Data from N_1_DEC_NC_4n_Splice17_12-17-44-368.txt Node
Date: Sat Mar 07 12:17:44 EST 2020
User: sa697716
Spectrometer: NQ5500242
Trigger mode: 0
Integration Time (sec): 1.450000E-1
Scans to average: 20
Nonlinearity correction enabled: false
Boxcar width: 5
Storing dark spectrum: false
XAxis mode: Wavelengths
Number of Pixels in Spectrum: 512
>>>>>Begin Spectral Data<<<<<
187.83	159.02
188.298	202.99
188.766	176.09
189.233	142.6
189.701	146.34
190.169	146.24
190.636	180.92
191.104	230.09
191.571	345.04
192.039	180.72
192.506	147.59
192.974	190.86
193.441	529.14
193.908	264.58
194.375	128.47
194.842	103.22
195.31	120.63
195.777	275.4
196.244	30.21
196.711	29.3
197.177	29.2
197.644	27.13
198.111	26.09
198.578	26.26
199.045	26.96
199.511	27.12
199.978	26.91
200.445	26.61
200.911	26.33
201.378	26.26
201.844	26.43
202.31	26.19
202.777	26.46
203.243	26.8
203.709	26.51
204.176	26.04
204.642	26.12
205.108	26.19
205.574	26.06
206.04	26.16
206.506	26.18
206.972	26.03
207.438	25.82
207.903	25.42
208.369	24.63
208.835	24.24
209.301	23.78
209.766	22.73
210.232	22.08
210.697	21.67
211.163	21.31
211.628	20.93
212.094	20.14
212.559	19.59
213.024	19.1
213.49	18.78
213.955	18.19
214.42	17.79
214.885	17.54
215.35	16.82
215.815	15.86
216.28	14.53
216.745	13.26
217.21	12.14
217.675	11.14
218.14	10.2
218.604	9.4
219.069	8.76
219.534	8.19
219.998	7.71
220.463	7.36
220.927	7.01
221.392	6.74
221.856	6.51
222.32	6.28
222.785	6.13
223.249	5.97
223.713	5.8
224.177	5.67
224.642	5.55
225.106	5.43
225.57	5.31
226.034	5.2
226.497	5.13
226.961	5.02
227.425	4.94
227.889	4.85
228.353	4.79
228.816	4.73
229.28	4.65
229.744	4.57
230.207	4.51
230.671	4.43
231.134	4.38
231.597	4.32
232.061	4.27
232.524	4.22
232.987	4.16
233.45	4.11
233.914	4.06
234.377	4.02
234.84	3.97
235.303	3.93
235.766	3.9
236.229	3.86
236.691	3.81
237.154	3.79
237.617	3.75
238.08	3.72
238.542	3.67
239.005	3.65
239.468	3.61
239.93	3.57
240.393	3.55
240.855	3.51
241.317	3.46
241.78	3.43
242.242	3.38
242.704	3.35
243.166	3.33
243.629	3.31
244.091	3.27
244.553	3.25
245.015	3.22
245.477	3.19
245.939	3.16
246.4	3.15
246.862	3.13
247.324	3.11
247.786	3.08
248.247	3.06
248.709	3.02
249.17	2.99
249.632	2.98
250.093	2.95
250.555	2.94
251.016	2.92
251.477	2.9
251.939	2.88
252.4	2.86
252.861	2.84
253.322	2.83
253.783	2.81
254.244	2.8
254.705	2.78
255.166	2.77
255.627	2.75
256.088	2.73
256.549	2.72
257.009	2.7
257.47	2.68
257.931	2.65
258.391	2.62
258.852	2.61
259.312	2.59
259.773	2.57
260.233	2.55
260.694	2.54
261.154	2.52
261.614	2.51
262.074	2.49
262.534	2.47
262.994	2.47
263.455	2.46
263.915	2.45
264.374	2.44
264.834	2.44
265.294	2.42
265.754	2.42
266.214	2.4
266.673	2.39
267.133	2.39
267.593	2.38
268.052	2.37
268.512	2.37
268.971	2.37
269.431	2.36
269.89	2.35
270.349	2.35
270.809	2.34
271.268	2.34
271.727	2.33
272.186	2.33
272.645	2.32
273.104	2.32
273.563	2.31
274.022	2.3
274.481	2.3
274.94	2.3
275.399	2.29
275.857	2.29
276.316	2.28
276.775	2.28
277.233	2.27
277.692	2.27
278.15	2.26
278.609	2.26
279.067	2.26
279.525	2.25
279.984	2.25
280.442	2.24
280.9	2.24
281.358	2.24
281.816	2.24
282.274	2.24
282.732	2.24
283.19	2.23
283.648	2.23
284.106	2.22
284.564	2.21
285.021	2.22
285.479	2.21
285.937	2.21
286.394	2.2
286.852	2.18
287.309	2.18
287.767	2.17
288.224	2.17
288.682	2.16
289.139	2.15
289.596	2.14
290.053	2.13
290.511	2.12
290.968	2.11
291.425	2.1
291.882	2.1
292.339	2.1
292.796	2.09
293.252	2.08
293.709	2.07
294.166	2.07
294.623	2.06
295.079	2.06
295.536	2.05
295.992	2.05
296.449	2.04
296.905	2.04
297.362	2.03
297.818	2.02
298.274	2.02
298.731	2.02
299.187	2.02
299.643	2.01
300.099	2.01
300.555	2
301.011	2
301.467	1.99
301.923	1.98
302.379	1.98
302.835	1.99
303.291	1.98
303.746	1.98
304.202	1.98
304.658	1.98
305.113	1.97
305.569	1.97
306.024	1.97
306.479	1.97
306.935	1.96
307.39	1.96
307.845	1.95
308.301	1.95
308.756	1.94
309.211	1.94
309.666	1.94
310.121	1.95
310.576	1.95
311.031	1.95
311.486	1.95
311.94	1.96
312.395	1.96
312.85	1.96
313.305	1.96
313.759	1.96
314.214	1.96
314.668	1.95
315.123	1.95
315.577	1.95
316.032	1.94
316.486	1.95
316.94	1.94
317.394	1.94
317.849	1.94
318.303	1.93
318.757	1.93
319.211	1.92
319.665	1.92
320.119	1.91
320.572	1.9
321.026	1.9
321.48	1.88
321.934	1.88
322.387	1.87
322.841	1.86
323.295	1.87
323.748	1.87
324.202	1.86
324.655	1.87
325.108	1.87
325.562	1.87
326.015	1.87
326.468	1.88
326.921	1.88
327.374	1.88
327.827	1.88
328.28	1.87
328.733	1.87
329.186	1.88
329.639	1.87
330.092	1.87
330.545	1.87
330.997	1.87
331.45	1.88
331.903	1.88
332.355	1.89
332.808	1.88
333.26	1.88
333.713	1.87
334.165	1.87
334.617	1.87
335.069	1.86
335.522	1.86
335.974	1.86
336.426	1.85
336.878	1.85
337.33	1.85
337.782	1.84
338.234	1.85
338.686	1.85
339.137	1.86
339.589	1.85
340.041	1.86
340.493	1.85
340.944	1.85
341.396	1.84
341.847	1.84
342.299	1.83
342.75	1.83
343.201	1.81
343.653	1.81
344.104	1.8
344.555	1.8
345.006	1.79
345.457	1.8
345.908	1.8
346.359	1.8
346.81	1.8
347.261	1.79
347.712	1.79
348.163	1.8
348.613	1.8
349.064	1.8
349.515	1.81
349.965	1.81
350.416	1.8
350.866	1.8
351.317	1.79
351.767	1.79
352.217	1.79
352.668	1.79
353.118	1.79
353.568	1.78
354.018	1.78
354.468	1.78
354.918	1.78
355.368	1.8
355.818	1.79
356.268	1.79
356.718	1.79
357.168	1.78
357.617	1.78
358.067	1.78
358.517	1.79
358.966	1.8
359.416	1.81
359.865	1.8
360.315	1.81
360.764	1.82
361.213	1.82
361.663	1.82
362.112	1.83
362.561	1.84
363.01	1.84
363.459	1.84
363.908	1.82
364.357	1.83
364.806	1.82
365.255	1.82
365.703	1.82
366.152	1.83
366.601	1.84
367.05	1.84
367.498	1.83
367.947	1.84
368.395	1.85
368.844	1.86
369.292	1.85
369.74	1.86
370.189	1.86
370.637	1.86
371.085	1.86
371.533	1.86
371.981	1.87
372.429	1.87
372.877	1.87
373.325	1.87
373.773	1.88
374.221	1.89
374.669	1.89
375.116	1.89
375.564	1.89
376.012	1.9
376.459	1.91
376.907	1.92
377.354	1.93
377.801	1.94
378.249	1.96
378.696	1.96
379.143	1.97
379.591	1.98
380.038	2
380.485	2.01
380.932	2.02
381.379	2.03
381.826	2.05
382.273	2.07
382.72	2.08
383.166	2.1
383.613	2.12
384.06	2.14
384.506	2.16
384.953	2.18
385.4	2.2
385.846	2.23
386.292	2.24
386.739	2.27
387.185	2.28
387.631	2.3
388.078	2.33
388.524	2.35
388.97	2.37
389.416	2.4
389.862	2.44
390.308	2.48
390.754	2.51
391.2	2.54
391.645	2.57
392.091	2.62
392.537	2.66
392.983	2.69
393.428	2.73
393.874	2.76
394.319	2.8
394.765	2.82
395.21	2.85
395.655	2.88
396.101	2.92
396.546	2.94
396.991	2.97
397.436	3.01
397.881	3.05
398.326	3.08
398.771	3.12
399.216	3.14
399.661	3.18
400.106	3.21
400.551	3.22
400.995	3.25
401.44	3.27
401.885	3.3
402.329	3.31
402.774	3.33
403.218	3.35
403.663	3.38
404.107	3.4
404.551	3.41
404.995	3.42
405.44	3.43
405.884	3.45
406.328	3.47
406.772	3.48
407.216	3.5
407.66	3.5
408.104	3.5
408.547	3.52
408.991	3.53
409.435	3.54
409.879	3.56
410.322	3.58
410.766	3.59
411.209	3.61
411.653	3.63
412.096	3.63
412.54	3.65
412.983	3.67
413.426	3.7
413.869	3.71
414.312	3.73
414.756	3.74
415.199	3.74
415.642	3.74
416.085	3.74
416.527	3.74
416.97	3.76
417.413	3.76
417.856	3.76
418.298	3.75
418.741	3.75
419.184	3.76
419.626	3.76
420.069	3.77
420.511	3.77
420.953	3.79
421.396	3.8
421.838	3.78
422.28	3.79
422.722	3.81
423.164	3.81
423.606	3.81
424.048	3.8
424.49	3.79
424.932	3.8
425.374	3.79
425.816	3.76
426.258	3.74
426.699	3.76
427.141	3.75
427.582	3.73
428.024	3.73
428.465	3.73
428.907	3.73
429.348	3.73
429.789	3.71
430.231	3.72
430.672	3.75
431.113	3.76
431.554	3.75
431.995	3.76
432.436	3.76
432.877	3.77
433.318	3.78
433.759	3.8
434.2	3.82
434.64	3.85
435.081	3.85
435.522	3.87
435.962	3.89
436.403	3.92
436.843	3.94
437.284	3.96
437.724	3.97
438.164	3.97
438.604	3.99
439.045	4
439.485	4.01
439.925	4.03
440.365	4.05
440.805	4.06
441.245	4.09
441.685	4.14
442.125	4.17
442.564	4.21
443.004	4.23
443.444	4.25
443.883	4.29
444.323	4.31
444.762	4.34
445.202	4.35
445.641	4.4
446.081	4.41
446.52	4.43
446.959	4.46
447.398	4.49
447.837	4.53
448.276	4.56
448.716	4.59
449.154	4.63
449.593	4.68
450.032	4.71
450.471	4.72
450.91	4.76
451.349	4.78
451.787	4.8
452.226	4.8
452.664	4.82
453.103	4.83
453.541	4.86
453.98	4.87
454.418	4.87
454.856	4.88
455.295	4.88
455.733	4.88
456.171	4.88
456.609	4.89
457.047	4.89
457.485	4.88
457.923	4.88
458.361	4.87
458.798	4.86
459.236	4.87
459.674	4.87
460.111	4.86
460.549	4.88
460.987	4.89
461.424	4.88
461.862	4.89
462.299	4.91
462.736	4.91
463.173	4.91
463.611	4.91
464.048	4.92
464.485	4.92
464.922	4.93
465.359	4.93
465.796	4.92
466.233	4.94
466.67	4.94
467.106	4.94
467.543	4.94
467.98	4.94
468.416	4.94
468.853	4.95
469.29	4.95
469.726	4.95
470.162	4.95
470.599	4.97
471.035	4.97
471.471	4.98
471.907	4.96
472.344	4.98
472.78	4.98
473.216	4.98
473.652	4.99
474.088	4.99
474.523	5
474.959	5.01
475.395	4.99
475.831	4.99
476.266	4.99
476.702	5
477.138	5.01
477.573	5.02
478.008	5.04
478.444	5.04
478.879	5.05
479.314	5.05
479.75	5.06
480.185	5.06
480.62	5.06
481.055	5.07
481.49	5.08
481.925	5.09
482.36	5.1
482.795	5.1
483.229	5.11
483.664	5.13
484.099	5.14
484.534	5.16
484.968	5.18
485.403	5.21
485.837	5.24
486.271	5.27
486.706	5.29
487.14	5.32
487.574	5.35
488.009	5.38
488.443	5.41
488.877	5.45
489.311	5.49
489.745	5.54
490.179	5.59
490.613	5.64
491.046	5.69
491.48	5.73
491.914	5.79
492.348	5.84
492.781	5.91
493.215	5.99
493.648	6.05
494.082	6.12
494.515	6.19
494.948	6.26
495.382	6.34
495.815	6.42
496.248	6.52
496.681	6.62
497.114	6.71
497.547	6.8
497.98	6.9
498.413	7
498.846	7.11
499.279	7.21
499.711	7.32
500.144	7.44
500.577	7.57
501.009	7.67
501.442	7.79
501.874	7.93
502.306	8.05
502.739	8.2
503.171	8.33
503.603	8.47
504.036	8.62
504.468	8.76
504.9	8.9
505.332	9.04
505.764	9.2
506.196	9.36
506.627	9.53
507.059	9.69
507.491	9.85
507.923	10.04
508.354	10.23
508.786	10.42
509.217	10.61
509.649	10.81
510.08	11.01
510.512	11.21
510.943	11.39
511.374	11.59
511.805	11.79
512.237	11.98
512.668	12.17
513.099	12.35
513.53	12.55
513.961	12.74
514.391	12.94
514.822	13.14
515.253	13.34
515.684	13.54
516.114	13.74
516.545	13.94
516.975	14.14
517.406	14.34
517.836	14.53
518.267	14.72
518.697	14.89
519.127	15.06
519.558	15.24
519.988	15.43
520.418	15.6
520.848	15.76
521.278	15.93
521.708	16.24
522.138	16.4
522.567	16.56
522.997	16.71
523.427	16.88
523.857	17.03
524.286	17.16
524.716	17.28
525.145	17.42
525.575	17.54
526.004	17.67
526.433	17.63
526.863	17.73
527.292	17.83
527.721	17.93
528.15	18
528.579	18.1
529.008	18.19
529.437	18.27
529.866	18.34
530.295	18.41
530.724	18.47
531.152	18.54
531.581	18.63
532.01	18.69
532.438	18.74
532.867	18.81
533.295	18.87
533.723	18.92
534.152	18.97
534.58	19.01
535.008	19.04
535.436	19.09
535.865	19.12
536.293	19.14
536.721	19.17
537.149	19.21
537.576	19.23
538.004	19.25
538.432	19.27
538.86	19.29
539.287	19.32
539.715	19.37
540.143	19.39
540.57	19.43
540.998	19.46
541.425	19.48
541.852	19.51
542.28	19.53
542.707	19.55
543.134	19.56
543.561	19.59
543.988	19.61
544.415	19.62
544.842	19.63
545.269	19.63
545.696	19.65
546.123	19.66
546.549	19.68
546.976	19.7
547.403	19.72
547.829	19.74
548.256	19.75
548.682	19.76
549.108	19.77
549.535	19.78
549.961	19.8
550.387	19.8
550.813	19.8
551.24	19.79
551.666	19.78
552.092	19.78
552.518	19.76
552.943	19.75
553.369	19.73
553.795	19.71
554.221	19.7
554.646	19.67
555.072	19.64
555.498	19.62
555.923	19.6
556.349	19.56
556.774	19.52
557.199	19.51
557.625	19.48
558.05	19.44
558.475	19.4
558.9	19.36
559.325	19.34
559.75	19.31
560.175	19.27
560.6	19.22
561.025	19.18
561.449	19.13
561.874	19.06
562.299	19
562.723	18.93
563.148	18.86
563.572	18.78
563.997	18.69
564.421	18.6
564.846	18.53
565.27	18.46
565.694	18.38
566.118	18.31
566.542	18.24
566.966	18.16
567.39	18.1
567.814	18.02
568.238	17.96
568.662	17.89
569.086	17.82
569.509	17.75
569.933	17.67
570.357	17.59
570.78	17.52
571.204	17.44
571.627	17.37
572.05	17.29
572.474	17.22
572.897	17.16
573.32	17.09
573.743	17.01
574.166	16.95
574.589	16.88
575.012	16.81
575.435	16.74
575.858	16.69
576.281	16.63
576.704	16.58
577.126	16.52
577.549	16.45
577.972	16.39
578.394	16.33
578.817	16.28
579.239	16.24
579.661	16.2
580.084	16.16
580.506	16.11
580.928	16.05
581.35	16
581.772	15.95
582.194	15.89
582.616	15.86
583.038	15.84
583.46	15.77
583.882	15.73
584.303	15.65
584.725	15.59
585.147	15.54
585.568	15.51
585.99	15.45
586.411	15.4
586.833	15.35
587.254	15.31
587.675	15.26
588.096	15.23
588.518	15.19
588.939	15.18
589.36	15.15
589.781	15.11
590.202	15.08
590.623	15.06
591.043	15.04
591.464	15.02
591.885	14.98
592.305	14.96
592.726	14.94
593.147	14.91
593.567	14.88
593.987	14.86
594.408	14.83
594.828	14.8
595.248	14.78
595.669	14.76
596.089	14.74
596.509	14.72
596.929	14.68
597.349	14.65
597.769	14.62
598.189	14.58
598.608	14.57
599.028	14.54
599.448	14.51
599.867	14.48
600.287	14.45
600.706	14.42
601.126	14.39
601.545	14.37
601.965	14.35
602.384	14.32
602.803	14.3
603.222	14.27
603.641	14.25
604.061	14.23
604.48	14.19
604.898	14.15
605.317	14.11
605.736	14.07
606.155	14.04
606.574	13.99
606.992	13.94
607.411	13.89
607.829	13.82
608.248	13.75
608.666	13.7
609.085	13.66
609.503	13.61
609.921	13.56
610.339	13.51
610.758	13.44
611.176	13.4
611.594	13.35
612.012	13.31
612.43	13.29
612.847	13.24
613.265	13.2
613.683	13.16
614.101	13.11
614.518	13.07
614.936	13.03
615.353	12.99
615.771	12.93
616.188	12.89
616.606	12.85
617.023	12.81
617.44	12.78
617.857	12.73
618.274	12.7
618.691	12.65
619.108	12.61
619.525	12.57
619.942	12.54
620.359	12.52
620.776	12.5
621.192	12.47
621.609	12.45
622.026	12.42
622.442	12.41
622.859	12.39
623.275	12.38
623.691	12.37
624.108	12.36
624.524	12.36
624.94	12.34
625.356	12.33
625.772	12.32
626.188	12.31
626.604	12.3
627.02	12.28
627.436	12.28
627.852	12.27
628.268	12.26
628.683	12.26
629.099	12.25
629.514	12.24
629.93	12.23
630.345	12.22
630.761	12.2
631.176	12.18
631.591	12.15
632.007	12.12
632.422	12.08
632.837	12.04
633.252	11.98
633.667	11.92
634.082	11.88
634.497	11.8
634.911	11.71
635.326	11.64
635.741	11.56
636.155	11.47
636.57	11.39
636.984	11.31
637.399	11.21
637.813	11.12
638.228	11.01
638.642	10.9
639.056	10.8
639.47	10.71
639.884	10.6
640.298	10.49
640.712	10.38
641.126	10.27
641.54	10.15
641.954	10.04
642.368	9.92
642.781	9.82
643.195	9.72
643.609	9.62
644.022	9.5
644.436	9.41
644.849	9.31
645.262	9.2
645.676	9.1
646.089	9.03
646.502	8.94
646.915	8.88
647.328	8.81
647.741	8.74
648.154	8.67
648.567	8.63
648.98	8.57
649.393	8.52
649.805	8.49
650.218	8.45
650.631	8.4
651.043	8.38
651.456	8.34
651.868	8.3
652.28	8.27
652.693	8.24
653.105	8.2
653.517	8.16
653.929	8.13
654.341	8.08
654.753	8.03
655.165	7.98
655.577	7.92
655.989	7.85
656.401	7.79
656.813	7.72
657.224	7.63
657.636	7.54
658.047	7.47
658.459	7.38
658.87	7.29
659.282	7.19
659.693	7.09
660.104	7
660.515	6.91
660.926	6.82
661.338	6.72
661.749	6.63
662.159	6.55
662.57	6.47
662.981	6.38
663.392	6.3
663.803	6.23
664.213	6.15
664.624	6.07
665.035	5.99
665.445	5.91
665.855	5.85
666.266	5.79
666.676	5.73
667.086	5.66
667.497	5.6
667.907	5.54
668.317	5.49
668.727	5.46
669.137	5.42
669.547	5.39
669.956	5.36
670.366	5.33
670.776	5.31
671.186	5.3
671.595	5.29
672.005	5.28
672.414	5.29
672.824	5.28
673.233	5.27
673.642	5.28
674.052	5.28
674.461	5.29
674.87	5.3
675.279	5.32
675.688	5.34
676.097	5.36
676.506	5.38
676.915	5.41
677.323	5.45
677.732	5.5
678.141	5.55
678.549	5.6
678.958	5.67
679.366	5.74
679.775	5.82
680.183	5.91
680.592	6.02
681	6.14
681.408	6.27
681.816	6.41
682.224	6.56
682.632	6.74
683.04	6.91
683.448	7.11
683.856	7.31
684.264	7.53
684.671	7.77
685.079	8.02
685.487	8.3
685.894	8.6
686.302	8.9
686.709	9.22
687.116	9.54
687.524	9.88
687.931	10.24
688.338	10.61
688.745	10.98
689.152	11.36
689.559	11.76
689.966	12.14
690.373	12.53
690.78	12.93
691.187	13.32
691.593	13.71
692	14.1
692.407	14.46
692.813	14.83
693.22	15.19
693.626	15.56
694.032	15.91
694.439	16.27
694.845	16.62
695.251	16.96
695.657	17.27
696.063	17.59
696.469	17.92
696.875	18.24
697.281	18.54
697.687	18.85
698.093	19.13
698.498	19.4
698.904	19.66
699.31	19.9
699.715	20.14
700.12	20.41
700.526	20.64
700.931	20.88
701.337	21.1
701.742	21.3
702.147	21.52
702.552	21.74
702.957	21.92
703.362	22.11
703.767	22.28
704.172	22.45
704.577	22.61
704.981	22.79
705.386	22.95
705.791	23.08
706.195	23.25
706.6	23.4
707.004	23.53
707.408	23.68
707.813	23.83
708.217	23.98
708.621	24.13
709.025	24.24
709.43	24.37
709.834	24.48
710.237	24.6
710.641	24.69
711.045	24.8
711.449	24.91
711.853	25.02
712.256	25.1
712.66	25.19
713.064	25.25
713.467	25.35
713.87	25.44
714.274	25.51
714.677	25.63
715.08	25.72
715.484	25.82
715.887	25.91
716.29	25.99
716.693	26.09
717.096	26.18
717.499	26.27
717.901	26.36
718.304	26.41
718.707	26.5
719.109	26.58
719.512	26.64
719.915	26.69
720.317	26.73
720.719	26.77
721.122	26.81
721.524	26.86
721.926	26.93
722.328	26.98
722.731	27.02
723.133	27.08
723.535	27.11
723.937	27.16
724.338	27.19
724.74	27.24
725.142	27.35
725.544	27.38
725.945	27.43
726.347	27.46
726.748	27.49
727.15	27.51
727.551	27.56
727.952	27.57
728.354	27.6
728.755	27.62
729.156	27.64
729.557	27.6
729.958	27.61
730.359	27.62
730.76	27.64
731.161	27.67
731.562	27.71
731.962	27.71
732.363	27.76
732.763	27.78
733.164	27.8
733.564	27.83
733.965	27.85
734.365	27.91
734.766	27.92
735.166	27.94
735.566	27.96
735.966	27.98
736.366	28
736.766	28
737.166	28.01
737.566	28.03
737.966	28.04
738.365	28.07
738.765	28.07
739.165	28.08
739.564	28.09
739.964	28.1
740.363	28.09
740.763	28.08
741.162	28.1
741.561	28.12
741.96	28.09
742.36	28.09
742.759	28.1
743.158	28.09
743.557	28.1
743.955	28.11
744.354	28.1
744.753	28.11
745.152	28.15
745.55	28.15
745.949	28.15
746.348	28.19
746.746	28.19
747.144	28.19
747.543	28.18
747.941	28.19
748.339	28.17
748.737	28.19
749.136	28.18
749.534	28.16
749.932	28.14
750.33	28.13
750.727	28.13
751.125	28.12
751.523	28.12
751.921	28.14
752.318	28.14
752.716	28.15
753.113	28.14
753.511	28.14
753.908	28.17
754.305	28.18
754.703	28.18
755.1	28.18
755.497	28.17
755.894	28.15
756.291	28.13
756.688	28.1
757.085	28.07
757.482	28.07
757.878	28.07
758.275	28.04
758.672	28.01
759.068	28
759.465	27.98
759.861	27.97
760.258	27.98
760.654	27.97
761.05	27.99
761.447	28.02
761.843	28.01
762.239	28
762.635	28.01
763.031	28.03
763.427	28.03
763.822	28.04
764.218	28.06
764.614	28.08
765.01	28.09
765.405	28.08
765.801	28.06
766.196	28.08
766.592	28.09
766.987	28.1
767.382	28.11
767.778	28.12
768.173	28.12
768.568	28.14
768.963	28.11
769.358	28.12
769.753	28.12
770.148	28.14
770.542	28.12
770.937	28.11
771.332	28.1
771.726	28.08
772.121	28.06
772.515	28.05
772.91	28.04
773.304	28.04
773.699	28.04
774.093	28.04
774.487	28.03
774.881	28.04
775.275	28.06
775.669	28.04
776.063	28.02
776.457	28.03
776.851	28.02
777.245	27.99
777.638	27.98
778.032	27.98
778.425	27.99
778.819	27.99
779.212	27.99
779.606	27.98
779.999	28
780.392	28.03
780.786	28.03
781.179	28.03
781.572	28.06
781.965	28.07
782.358	28.08
782.751	28.09
783.143	28.08
783.536	28.06
783.929	28.06
784.322	28.04
784.714	28.04
785.107	28.04
785.499	28.05
785.891	28.02
786.284	28.02
786.676	27.98
787.068	27.97
787.46	27.97
787.852	27.97
788.245	27.96
788.636	27.96
789.028	27.95
789.42	27.95
789.812	27.93
790.204	27.95
790.595	27.95
790.987	27.97
791.378	27.99
791.77	27.98
792.161	27.96
792.553	27.98
792.944	27.97
793.335	27.98
793.726	27.97
794.117	27.97
794.508	27.95
794.899	27.93
795.29	27.92
795.681	27.9
796.072	27.91
796.463	27.93
796.853	27.89
797.244	27.89
797.634	27.87
798.025	27.89
798.415	27.9
798.806	27.91
799.196	27.92
799.586	27.93
799.976	27.94
800.366	27.94
800.756	27.92
801.146	27.94
801.536	27.94
801.926	27.94
802.316	27.91
802.706	27.9
803.095	27.91
803.485	27.88
803.874	27.87
804.264	27.83
804.653	27.81
805.043	27.83
805.432	27.82
805.821	27.82
806.21	27.8
806.599	27.79
806.988	27.78
807.377	27.74
807.766	27.74
808.155	27.72
808.544	27.71
808.933	27.69
809.321	27.66
809.71	27.65
810.098	27.62
810.487	27.6
810.875	27.61
811.264	27.6
811.652	27.61
812.04	27.6
812.428	27.64
812.816	27.63
813.204	27.62
813.592	27.6
813.98	27.59
814.368	27.6
814.756	27.59
815.144	27.57
815.531	27.56
815.919	27.54
816.306	27.53
816.694	27.51
817.081	27.51
817.469	27.52
817.856	27.53
818.243	27.51
818.63	27.5
819.017	27.5
819.404	27.5
819.791	27.48
820.178	27.48
820.565	27.47
820.952	27.45
821.339	27.42
821.725	27.42
822.112	27.43
822.498	27.43
822.885	27.42
823.271	27.41
823.657	27.38
824.044	27.39
824.43	27.39
824.816	27.39
825.202	27.38
825.588	27.38
825.974	27.38
826.36	27.34
826.746	27.34
827.132	27.33
827.517	27.34
827.903	27.37
828.289	27.36
828.674	27.36
829.06	27.37
829.445	27.35
829.83	27.35
830.216	27.35
830.601	27.36
830.986	27.36
831.371	27.36
831.756	27.36
832.141	27.32
832.526	27.32
832.911	27.31
833.295	27.3
833.68	27.32
834.065	27.31
834.449	27.29
834.834	27.27
835.218	27.29
835.603	27.3
835.987	27.28
836.371	27.31
836.755	27.3
837.139	27.3
837.524	27.3
837.908	27.3
838.291	27.32
838.675	27.32
839.059	27.32
839.443	27.3
839.827	27.29
840.21	27.29
840.594	27.27
840.977	27.28
841.361	27.28
841.744	27.26
842.127	27.26
842.511	27.24
842.894	27.24
843.277	27.24
843.66	27.25
844.043	27.25
844.426	27.26
844.809	27.28
845.191	27.28
845.574	27.27
845.957	27.29
846.339	27.26
846.722	27.26
847.104	27.28
847.487	27.29
847.869	27.27
848.252	27.26
848.634	27.27
849.016	27.26
849.398	27.27
849.78	27.26
850.162	27.25
850.544	27.26
850.926	27.25
851.307	27.24
851.689	27.22
852.071	27.22
852.452	27.21
852.834	27.21
853.215	27.19
853.597	27.17
853.978	27.15
854.359	27.14
854.741	27.14
855.122	27.14
855.503	27.15
855.884	27.15
856.265	27.16
856.646	27.16
857.026	27.16
857.407	27.18
857.788	27.16
858.169	27.19
858.549	27.19
858.93	27.19
859.31	27.18
859.69	27.18
860.071	27.18
860.451	27.17
860.831	27.16
861.211	27.11
861.591	27.1
861.971	27.1
862.351	27.08
862.731	27.07
863.111	27.06
863.491	27.04
863.87	27.02
864.25	27
864.629	27
865.009	27
865.388	27
865.768	27
866.147	27
866.526	27
866.905	27
867.284	27
867.663	27
868.042	27
868.421	27.02
868.8	27.02
869.179	27.01
869.558	27.02
869.936	27.03
870.315	27.02
870.693	27.02
871.072	27.02
871.45	27.04
871.828	27.05
872.207	27.07
872.585	27.04
872.963	27.04
873.341	27.04
873.719	27.05
874.097	27.02
874.475	27.04
874.853	27.05
875.23	27.07
875.608	27.04
875.986	27.04
876.363	27.04
876.741	27.05
877.118	27.05
877.495	27.04
877.873	27.03
878.25	27.05
878.627	27.05
879.004	27.05
879.381	27.04
879.758	27.04
880.135	27.05
880.512	27.03
880.889	27.02
881.265	27
881.642	27
882.019	27.03
882.395	27.02
882.772	27.01
883.148	27
883.524	27.01
883.901	27.02
884.277	27.02
884.653	27
885.029	27.02
885.405	27.02
885.781	27.03
886.157	27.03
886.532	27.02
886.908	27.01
887.284	27.01
887.659	26.98
888.035	26.98
888.411	26.98
888.786	26.99
889.161	26.99
889.537	26.99
889.912	26.98
890.287	26.97
890.662	26.97
891.037	26.97
891.412	26.98
891.787	26.97
892.162	26.96
892.536	26.96
892.911	26.95
893.286	26.94
893.66	26.93
894.035	26.93
894.409	26.92
894.784	26.91
895.158	26.9
895.532	26.9
895.906	26.9
896.281	26.9
896.655	26.88
897.029	26.88
897.402	26.89
897.776	26.89
898.15	26.88
898.524	26.89
898.898	26.89
899.271	26.9
899.645	26.89
900.018	26.9
900.392	26.91
900.765	26.92
901.138	26.92
901.511	26.9
901.884	26.9
902.258	26.9
902.631	26.89
903.003	26.9
903.376	26.89
903.749	26.89
904.122	26.87
904.495	26.87
904.867	26.87
905.24	26.87
905.612	26.89
905.985	26.88
906.357	26.87
906.729	26.88
907.102	26.87
907.474	26.87
907.846	26.86
908.218	26.87
908.59	26.87
908.962	26.87
909.334	26.88
909.705	26.87
910.077	26.88
910.449	26.9
910.82	26.9
911.192	26.89
911.563	26.88
911.935	26.88
912.306	26.9
912.677	26.92
913.048	26.92
913.419	26.91
913.79	26.91
914.161	26.92
914.532	26.93
914.903	26.93
915.274	26.94
915.645	26.96
916.015	26.96
916.386	26.96
916.756	26.94
917.127	26.97
917.497	26.99
917.868	26.99
918.238	26.96
918.608	26.96
918.978	26.96
919.348	26.94
919.718	26.94
920.088	26.94
920.458	26.92
920.828	26.9
921.198	26.89
921.567	26.9
921.937	26.9
922.306	26.89
922.676	26.9
923.045	26.88
923.415	26.9
923.784	26.9
924.153	26.9
924.522	26.91
924.891	26.93
925.26	26.93
925.629	26.91
925.998	26.91
926.367	26.91
926.736	26.89
927.104	26.9
927.473	26.88
927.842	26.87
928.21	26.91
928.578	26.9
928.947	26.9
929.315	26.88
929.683	26.86
930.051	26.86
930.42	26.88
930.788	26.88
931.156	26.9
931.523	26.92
931.891	26.96
932.259	26.95
932.627	26.97
932.994	26.97
933.362	26.97
933.729	27.01
934.097	27
934.464	27.03
934.831	27.04
935.199	27.04
935.566	27.06
935.933	26.99
936.3	26.94
936.667	26.93
937.034	26.97
937.401	26.97
937.767	26.96
938.134	26.97
938.501	26.96
938.867	26.98
939.234	26.96
939.6	26.94
939.967	27
940.333	27.06
940.699	27.13
941.065	27.05
941.431	27.04
941.798	26.99
942.163	26.97
942.529	26.94
942.895	26.86
943.261	26.82
943.627	26.82
943.992	26.81
944.358	26.77
944.723	26.69
945.089	26.69
945.454	26.73
945.82	26.72
946.185	26.74
946.55	26.67
946.915	26.66
947.28	26.69
947.645	26.64
948.01	26.64
948.375	26.6
948.74	26.6
949.104	26.61
949.469	26.58
949.834	26.55
950.198	26.57
950.562	26.6
950.927	26.59
951.291	26.55
951.655	26.54
952.02	26.54
952.384	26.52
952.748	26.5
953.112	26.46
953.476	26.41
953.839	26.41
954.203	26.32
954.567	26.32
954.931	26.32
955.294	26.3
955.658	26.35
956.021	26.3
956.385	26.27
956.748	26.28
957.111	26.29
957.474	26.34
957.837	26.32
958.2	26.34
958.563	26.3
958.926	26.33
959.289	26.35
959.652	26.3
960.015	26.32
960.377	26.34
960.74	26.35
961.102	26.34
961.465	26.35
961.827	26.4
962.189	26.4
962.552	26.42
962.914	26.43
963.276	26.46
963.638	26.49
964	26.46
964.362	26.48
964.724	26.44
965.085	26.44
965.447	26.44
965.809	26.39
966.17	26.41
966.532	26.39
966.893	26.39
967.255	26.34
967.616	26.32
967.977	26.31
968.338	26.27
968.699	26.32
969.061	26.32
969.421	26.31
969.782	26.35
970.143	26.33
970.504	26.36
970.865	26.38
971.225	26.37
971.586	26.35
971.946	26.38
972.307	26.43
972.667	26.43
973.027	26.48
973.388	26.48
973.748	26.48
974.108	26.53
974.468	26.5
974.828	26.48
975.188	26.55
975.548	26.57
975.907	26.55
976.267	26.57
976.627	26.58
976.986	26.52
977.346	26.48
977.705	26.47
978.064	26.43
978.424	26.51
978.783	26.45
979.142	26.45
979.501	26.47
979.86	26.49
980.219	26.45
980.578	26.45
980.937	26.5
981.296	26.57
981.654	26.62
982.013	26.66
982.371	26.69
982.73	26.79
983.088	26.74
983.447	26.71
983.805	26.7
984.163	26.74
984.521	26.7
984.879	26.64
985.237	26.68
985.595	26.7
985.953	26.62
986.311	26.52
986.669	26.52
987.026	26.57
987.384	26.58
987.741	26.55
988.099	26.55
988.456	26.6
988.814	26.62
989.171	26.53
989.528	26.5
989.885	26.55
990.242	26.61
990.599	26.64
990.956	26.64
991.313	26.74
991.67	26.78
992.027	26.84
992.383	26.86
992.74	26.97
993.096	26.99
993.453	27.01
993.809	27.11
994.165	27.15
994.522	27.14
994.878	27.21
995.234	27.16
995.59	27.21
995.946	27.2
996.302	27.13
996.658	27.08
997.013	27.13
997.369	27.05
997.725	26.99
998.08	27
998.436	26.99
998.791	26.93
999.147	26.85
999.502	26.92
999.857	26.9
1000.212	26.86
1000.567	26.86
1000.922	26.87
1001.277	26.9
1001.632	26.85
1001.987	26.9
1002.342	26.82
1002.696	26.8
1003.051	26.95
1003.406	27
1003.76	27.04
1004.114	27.2
1004.469	27.23
1004.823	27.37
1005.177	27.48
1005.531	27.5
1005.885	27.49
1006.239	27.51
1006.593	27.67
1006.947	27.5
1007.301	27.38
1007.655	27.32
1008.008	27.36
1008.362	27.39
1008.715	27.3
1009.069	27.32
1009.422	27.45
1009.776	27.43
1010.129	27.52
1010.482	27.43
1010.835	27.58
1011.188	27.72
1011.541	27.84
1011.894	27.83
1012.247	27.92
1012.6	27.97
1012.952	27.79
1013.305	27.8
1013.657	27.91
1014.01	27.98
1014.362	28
1014.715	28.1
1015.067	28.07
1015.419	28.06
1015.771	28.17
1016.123	28.12
1016.475	28.18
1016.827	28.48
1017.179	28.54
1017.531	28.52
1017.883	28.36
1018.234	28.48
1018.586	28.53
1018.938	28.6
1019.289	28.52
1019.64	28.37
1019.992	28.28
1020.343	28.16
1020.694	27.93
1021.045	27.89
1021.396	27.87
1021.747	28.22
1022.098	28.35
1022.449	28.17
1022.8	28.1
1023.151	28.2
1023.501	28.49
1023.852	28.61
1024.202	28.62
1024.553	28.62
1024.903	28.68
1025.253	28.77
1025.604	28.56
1025.954	28.21
1026.304	28.35
1026.654	28.42
1027.004	28.37
1027.354	28.18
1027.703	28
1028.053	28.19
1028.403	28.6
1028.753	28.4
1029.102	28.48
1029.452	28.65
1029.801	28.95
1030.15	29
1030.499	28.95
897.758	387.08
901.051	390.27
904.343	388.86
907.636	397.25
910.928	385.14
914.22	385.66
917.511	383.55
920.803	364.53
924.094	362.97
927.384	353.26
930.675	339.29
933.965	337.95
937.255	317.89
940.544	306.37
943.834	290.98
947.123	289.81
950.411	272.68
953.7	267.32
956.988	258.37
960.276	247.43
963.563	243.65
966.851	238.2
970.138	233.14
973.424	227.4
976.711	228.01
979.997	217.69
983.283	215.83
986.568	212.61
989.853	207.75
993.138	200.88
996.423	194.19
999.708	189.83
1002.992	186.2
1006.275	179.65
1009.559	176.33
1012.842	170.42
1016.125	167.92
1019.408	164.75
1022.69	163.36
1025.972	157.7
1029.254	156.07
1032.536	154.84
1035.817	151.08
1039.098	148.18
1042.379	145.27
1045.659	145.08
1048.939	141.6
1052.219	138.66
1055.498	136.15
1058.778	132.3
1062.057	129.86
1065.335	127.63
1068.614	126.12
1071.892	124.31
1075.17	123.02
1078.447	121.31
1081.724	119.75
1085.001	119.23
1088.278	117.97
1091.554	116.05
1094.83	116.45
1098.106	115.8
1101.382	115.36
1104.657	114.49
1107.932	112.62
1111.206	112.45
1114.481	110.56
1117.755	110.18
1121.029	108.95
1124.302	107.09
1127.575	105.52
1130.848	104.75
1134.121	103.5
1137.393	102.44
1140.665	100.23
1143.937	100.4
1147.208	99.29
1150.48	97.89
1153.75	96.56
1157.021	95.73
1160.291	95.44
1163.561	94.22
1166.831	94.2
1170.101	93.77
1173.37	94.36
1176.639	94.91
1179.907	93.62
1183.176	92.82
1186.444	93.54
1189.711	93.23
1192.979	92.6
1196.246	92.34
1199.513	93.42
1202.78	91.94
1206.046	91.98
1209.312	90.41
1212.578	90.27
1215.843	91.35
1219.108	91.28
1222.373	92.35
1225.638	93.04
1228.902	94.31
1232.166	94.38
1235.43	94.26
1238.693	96.09
1241.956	96.32
1245.219	98.18
1248.482	98.3
1251.744	97.39
1255.006	98.19
1258.268	96.23
1261.529	95.42
1264.79	95.48
1268.051	95.38
1271.312	94.86
1274.572	92.93
1277.832	92.59
1281.092	90.41
1284.351	89.79
1287.61	90.61
1290.869	88.31
1294.128	88.24
1297.386	88.13
1300.644	86.67
1303.902	86.46
1307.159	85.87
1310.416	85.9
1313.673	85.39
1316.93	86.71
1320.186	86.59
1323.442	86.11
1326.697	87.32
1329.953	87.18
1333.208	87.41
1336.463	88.61
1339.717	88.67
1342.972	89.97
1346.226	90.5
1349.479	91.04
1352.733	91.31
1355.986	91.81
1359.238	92.17
1362.491	92.25
1365.743	92.64
1368.995	92.3
1372.247	91.91
1375.498	91.61
1378.749	91.45
1382	90.79
1385.251	90.44
1388.501	89.65
1391.751	88.89
1395	88.8
1398.25	87.91
1401.499	87.5
1404.748	87.12
1407.996	85.63
1411.244	85.32
1414.492	84.48
1417.74	83.36
1420.987	82.41
1424.234	82.17
1427.481	80.97
1430.728	80.51
1433.974	80.2
1437.22	79.1
1440.465	79.33
1443.711	78.69
1446.956	77.59
1450.201	77.3
1453.445	76.84
1456.689	76.13
1459.933	74.53
1463.177	74.09
1466.42	73.02
1469.663	71.74
1472.906	71.16
1476.148	69.6
1479.391	68.7
1482.633	68.85
1485.874	67.48
1489.115	67.33
1492.356	67.01
1495.597	66.52
1498.838	66.22
1502.078	65.76
1505.318	66.17
1508.557	66.31
1511.797	65.73
1515.036	65.96
1518.274	65.64
1521.513	64.99
1524.751	64.41
1527.989	64.5
1531.227	65.01
1534.464	64.7
1537.701	64.38
1540.938	63.86
1544.174	63.74
1547.41	63.55
1550.646	63.18
1553.882	63.29
1557.117	63.03
1560.352	62.78
1563.587	62.47
1566.821	61.75
1570.055	61.38
1573.289	61.12
1576.523	61.41
1579.756	60.66
1582.989	60.73
1586.222	60.98
1589.454	59.93
1592.686	60.78
1595.918	60.45
1599.15	60.42
1602.381	60.53
1605.612	60.67
1608.843	60.77
1612.073	60.14
1615.303	60.45
1618.533	60.7
1621.762	60.54
1624.992	61.24
1628.221	60.8
1631.449	60.76
1634.678	60.44
1637.906	60.97
1641.134	61.03
1644.361	61.12
1647.588	61.56
1650.815	61.46
1654.042	61.42
1657.269	61.33
1660.495	61.72
1663.72	61.59
1666.946	61.99
1670.171	62.42
1673.396	62.25
1676.621	62.72
1679.845	62.51
1683.069	62.92
1686.293	62.77
1689.517	63.15
1692.74	63.42
1695.963	63.35
1699.185	63.57
1702.408	63.88
1705.63	64
1708.852	64.26
1712.073	63.84
1715.294	64.23
1718.515	64.07
1721.736	64.47
1724.956	64.47
1728.176	64.4
1731.396	64.59
1734.616	64.49
1737.835	64.7
1741.054	64.11
1744.272	64.17
1747.491	64.49
1750.709	64.31
1753.927	64.42
1757.144	64.54
1760.361	64.43
1763.578	64.65
1766.795	64.26
1770.011	65.02
1773.227	64.55
1776.443	65.26
1779.658	65.34
1782.874	65.36
1786.089	65.05
1789.303	65.34
1792.518	65.67
1795.732	65.72
1798.945	66.21
1802.159	66.49
1805.372	66.28
1808.585	67.44
1811.797	67.4
1815.01	67.47
1818.222	68.07
1821.434	68.53
1824.645	68.81
1827.856	69.7
1831.067	69.69
1834.278	70.22
1837.488	70.35
1840.698	70.7
1843.908	70.32
1847.117	70.69
1850.326	71.29
1853.535	70.57
1856.744	72.04
1859.952	71.45
1863.16	70.61
1866.368	70.26
1869.575	69.53
1872.782	69.16
1875.989	68.89
1879.196	68.67
1882.402	68.18
1885.608	67.71
1888.814	67.92
1892.019	66.64
1895.224	66.66
1898.429	66.61
1901.634	67.36
1904.838	68.03
1908.042	68.2
1911.246	67.9
1914.449	68.17
1917.652	68
1920.855	67.81
1924.058	67.2
1927.26	67.9
1930.462	67.19
1933.664	67.71
1936.865	67.57
1940.066	66.83
1943.267	66.53
1946.467	66.18
1949.668	66.39
1952.868	67.65
1956.067	68.03
1959.267	68.43
1962.466	68.67
1965.665	68.7
1968.863	69.56
1972.061	69.32
1975.259	69.48
1978.457	70.77
1981.654	71.87
1984.852	72.04
1988.048	71.62
1991.245	72.71
1994.441	73.21
1997.637	74.46
2000.833	75.98
2004.028	75.69
2007.223	77.17
2010.418	78.07
2013.613	79.02
2016.807	80.37
2020.001	81.05
2023.194	82.4
2026.388	83.94
2029.581	86.77
2032.774	86.37
2035.966	88.75
2039.158	89.57
2042.35	91.14
2045.542	91
2048.733	93.06
2051.924	92.4
2055.115	94.36
2058.306	94.85
2061.496	95.11
2064.686	94.77
2067.875	96.3
2071.065	96.14
2074.254	95.94
2077.442	96.8
2080.631	98.18
2083.819	98.21
2087.007	99.73
2090.195	100.88
2093.382	102.38
2096.569	102.27
2099.756	103.85
2102.942	104.28
2106.128	105.5
2109.314	108.42
2112.5	108.67
2115.685	110.88
2118.87	111.17
2122.055	114.1
2125.239	114.14
2128.424	114.26
2131.608	115.7
2134.791	116.37
2137.974	117.08
2141.157	117.56
2144.34	117.14
2147.523	116.9
2150.705	116.96
2153.887	118.89
2157.068	118.61
2160.25	118.91
2163.431	119.77
2166.611	120.51
2169.792	122.84
2172.972	123.51
2176.152	125.55
2179.331	126.64
2182.511	130.33
2185.69	130.96
2188.868	132.68
2192.047	133.02
2195.225	136.3
2198.403	138.85
2201.58	141.59
2204.758	143.75
2207.935	147.43
2211.111	148
2214.288	150.5
2217.464	150.64
2220.64	151.77
2223.815	152.93
2226.991	158.16
2230.166	157.77
2233.34	160.24
2236.515	163.04
2239.689	164.23
2242.863	164.02
2246.036	169.92
2249.209	168.8
2252.382	171.03
2255.555	178.05
2258.727	180.14
2261.9	183.22
2265.071	186.1
2268.243	187.26
2271.414	189.9
2274.585	193.36
2277.756	197.08
2280.926	199
2284.096	203.37
2287.266	207.99
2290.436	208.7
2293.605	211.61
2296.774	217.11
2299.942	221.84
2303.111	228.05
2306.279	231.56
2309.447	234.39
2312.614	241.55
2315.781	244.56
2318.948	256.18
2322.115	253.77
2325.281	267.29
2328.447	264.4
2331.613	271.69
2334.779	271.61
2337.944	278.91
2341.109	281.41
2344.274	292.4
2347.438	299.37
2350.602	298.95
2353.766	311.26
2356.929	316
2360.092	315.59
2363.255	334.85
2366.418	338.38
2369.58	342.41
2372.742	361.49
2375.904	371.52
2379.066	370.26
2382.227	364.03
2385.388	392.73
2388.548	392.84
2391.709	396.74
2394.869	434.79
2398.029	421.69
2401.188	431.95
2404.347	428.95
2407.506	427
2410.665	433.92
2413.823	454.53
2416.981	481.24
2420.139	471.37
2423.296	468.69
2426.453	483.64
2429.61	474.25
2432.767	488.93
2435.923	482.8
2439.079	530.01
2442.235	539.41
2445.391	538.08
2448.546	534.97
2451.701	519.72
2454.855	517.7
2458.009	533.43
2461.163	568.44
2464.317	582.18
2467.471	600.56
2470.624	605.38
2473.777	584.95
2476.929	570.7
2480.082	557.79
2483.234	553.52
2486.385	582.52
2489.537	590.62
2492.688	618.65
2495.839	593.95
2498.989	582.04
2502.14	582.96
2505.29	586.7
2508.439	596.72
2511.589	593.27
2514.738	648.42
2517.887	634.75
2521.035	671.23
2524.183	669.13
2527.331	673.57
2530.479	671.91
2533.627	676.92
