Data from N_1_DIV_IL_4n_Splice17_12-33-07-497.txt Node
Date: Sat Mar 07 12:33:07 EST 2020
User: sa697716
Spectrometer: NQ5500242
Trigger mode: 0
Integration Time (sec): 1.450000E-1
Scans to average: 20
Nonlinearity correction enabled: false
Boxcar width: 5
Storing dark spectrum: false
XAxis mode: Wavelengths
Number of Pixels in Spectrum: 512
>>>>>Begin Spectral Data<<<<<
187.83	99.61
188.298	107.73
188.766	79.59
189.233	68.31
189.701	75.9
190.169	84.22
190.636	68.48
191.104	20.56
191.571	119.19
192.039	218.24
192.506	104.27
192.974	48.45
193.441	111.25
193.908	-33.5
194.375	-7.89
194.842	-3.51
195.31	22.98
195.777	-193.01
196.244	16.14
196.711	31.13
197.177	33.83
197.644	31.74
198.111	31.55
198.578	31.92
199.045	32.09
199.511	32.26
199.978	32.47
200.445	32.6
200.911	32.84
201.378	32.8
201.844	32.89
202.31	32.57
202.777	33
203.243	33.21
203.709	33.11
204.176	32.99
204.642	32.79
205.108	32.69
205.574	32.5
206.04	32.02
206.506	31.72
206.972	31.79
207.438	31.81
207.903	31.45
208.369	30.6
208.835	29.99
209.301	29.42
209.766	28.52
210.232	27.62
210.697	26.7
211.163	26.19
211.628	25.57
212.094	24.74
212.559	23.98
213.024	23.37
213.49	22.96
213.955	22.29
214.42	21.9
214.885	21.29
215.35	20.47
215.815	19.57
216.28	18.21
216.745	16.85
217.21	15.51
217.675	14.31
218.14	13.2
218.604	12.2
219.069	11.37
219.534	10.64
219.998	10.09
220.463	9.68
220.927	9.23
221.392	8.9
221.856	8.6
222.32	8.31
222.785	8.1
223.249	7.9
223.713	7.73
224.177	7.61
224.642	7.47
225.106	7.29
225.57	7.11
226.034	6.98
226.497	6.87
226.961	6.76
227.425	6.65
227.889	6.53
228.353	6.42
228.816	6.32
229.28	6.2
229.744	6.09
230.207	6.01
230.671	5.92
231.134	5.85
231.597	5.79
232.061	5.72
232.524	5.66
232.987	5.59
233.45	5.53
233.914	5.47
234.377	5.4
234.84	5.35
235.303	5.31
235.766	5.27
236.229	5.21
236.691	5.15
237.154	5.1
237.617	5.05
238.08	5
238.542	4.95
239.005	4.92
239.468	4.88
239.93	4.82
240.393	4.78
240.855	4.72
241.317	4.68
241.78	4.63
242.242	4.57
242.704	4.53
243.166	4.49
243.629	4.44
244.091	4.39
244.553	4.34
245.015	4.3
245.477	4.25
245.939	4.21
246.4	4.18
246.862	4.14
247.324	4.11
247.786	4.07
248.247	4.03
248.709	3.99
249.17	3.95
249.632	3.93
250.093	3.9
250.555	3.87
251.016	3.84
251.477	3.81
251.939	3.78
252.4	3.75
252.861	3.73
253.322	3.7
253.783	3.69
254.244	3.67
254.705	3.64
255.166	3.61
255.627	3.59
256.088	3.58
256.549	3.55
257.009	3.53
257.47	3.51
257.931	3.48
258.391	3.45
258.852	3.42
259.312	3.4
259.773	3.37
260.233	3.35
260.694	3.32
261.154	3.29
261.614	3.27
262.074	3.24
262.534	3.22
262.994	3.2
263.455	3.18
263.915	3.16
264.374	3.14
264.834	3.13
265.294	3.1
265.754	3.09
266.214	3.08
266.673	3.07
267.133	3.06
267.593	3.04
268.052	3.03
268.512	3.02
268.971	3.01
269.431	3
269.89	3
270.349	2.99
270.809	2.98
271.268	2.97
271.727	2.96
272.186	2.95
272.645	2.95
273.104	2.94
273.563	2.93
274.022	2.92
274.481	2.91
274.94	2.91
275.399	2.9
275.857	2.89
276.316	2.88
276.775	2.87
277.233	2.86
277.692	2.85
278.15	2.84
278.609	2.84
279.067	2.83
279.525	2.82
279.984	2.81
280.442	2.8
280.9	2.8
281.358	2.79
281.816	2.79
282.274	2.78
282.732	2.77
283.19	2.77
283.648	2.76
284.106	2.76
284.564	2.75
285.021	2.75
285.479	2.74
285.937	2.74
286.394	2.73
286.852	2.73
287.309	2.72
287.767	2.71
288.224	2.71
288.682	2.7
289.139	2.68
289.596	2.67
290.053	2.65
290.511	2.64
290.968	2.63
291.425	2.61
291.882	2.6
292.339	2.59
292.796	2.58
293.252	2.57
293.709	2.56
294.166	2.56
294.623	2.55
295.079	2.54
295.536	2.55
295.992	2.54
296.449	2.53
296.905	2.53
297.362	2.52
297.818	2.52
298.274	2.51
298.731	2.5
299.187	2.5
299.643	2.49
300.099	2.48
300.555	2.47
301.011	2.46
301.467	2.46
301.923	2.45
302.379	2.45
302.835	2.45
303.291	2.44
303.746	2.44
304.202	2.44
304.658	2.44
305.113	2.44
305.569	2.44
306.024	2.44
306.479	2.44
306.935	2.43
307.39	2.44
307.845	2.44
308.301	2.44
308.756	2.44
309.211	2.44
309.666	2.45
310.121	2.44
310.576	2.44
311.031	2.44
311.486	2.45
311.94	2.46
312.395	2.45
312.85	2.45
313.305	2.45
313.759	2.45
314.214	2.44
314.668	2.44
315.123	2.44
315.577	2.43
316.032	2.43
316.486	2.42
316.94	2.42
317.394	2.42
317.849	2.4
318.303	2.39
318.757	2.38
319.211	2.37
319.665	2.36
320.119	2.36
320.572	2.34
321.026	2.34
321.48	2.33
321.934	2.31
322.387	2.3
322.841	2.3
323.295	2.3
323.748	2.3
324.202	2.3
324.655	2.3
325.108	2.3
325.562	2.3
326.015	2.3
326.468	2.31
326.921	2.31
327.374	2.31
327.827	2.31
328.28	2.3
328.733	2.31
329.186	2.31
329.639	2.31
330.092	2.31
330.545	2.3
330.997	2.3
331.45	2.3
331.903	2.31
332.355	2.32
332.808	2.31
333.26	2.31
333.713	2.31
334.165	2.3
334.617	2.31
335.069	2.3
335.522	2.31
335.974	2.32
336.426	2.31
336.878	2.31
337.33	2.3
337.782	2.31
338.234	2.32
338.686	2.31
339.137	2.32
339.589	2.31
340.041	2.31
340.493	2.3
340.944	2.27
341.396	2.27
341.847	2.27
342.299	2.25
342.75	2.24
343.201	2.23
343.653	2.22
344.104	2.21
344.555	2.2
345.006	2.19
345.457	2.19
345.908	2.19
346.359	2.19
346.81	2.18
347.261	2.18
347.712	2.18
348.163	2.16
348.613	2.16
349.064	2.16
349.515	2.16
349.965	2.15
350.416	2.15
350.866	2.14
351.317	2.13
351.767	2.14
352.217	2.13
352.668	2.13
353.118	2.13
353.568	2.12
354.018	2.13
354.468	2.14
354.918	2.13
355.368	2.14
355.818	2.15
356.268	2.15
356.718	2.15
357.168	2.15
357.617	2.14
358.067	2.15
358.517	2.17
358.966	2.17
359.416	2.16
359.865	2.17
360.315	2.17
360.764	2.18
361.213	2.17
361.663	2.17
362.112	2.18
362.561	2.19
363.01	2.19
363.459	2.17
363.908	2.17
364.357	2.17
364.806	2.15
365.255	2.15
365.703	2.15
366.152	2.16
366.601	2.16
367.05	2.15
367.498	2.14
367.947	2.15
368.395	2.16
368.844	2.17
369.292	2.17
369.74	2.19
370.189	2.18
370.637	2.18
371.085	2.18
371.533	2.18
371.981	2.18
372.429	2.18
372.877	2.18
373.325	2.18
373.773	2.16
374.221	2.17
374.669	2.17
375.116	2.16
375.564	2.16
376.012	2.16
376.459	2.17
376.907	2.17
377.354	2.18
377.801	2.19
378.249	2.2
378.696	2.21
379.143	2.21
379.591	2.21
380.038	2.22
380.485	2.23
380.932	2.24
381.379	2.25
381.826	2.25
382.273	2.26
382.72	2.26
383.166	2.27
383.613	2.27
384.06	2.28
384.506	2.3
384.953	2.31
385.4	2.32
385.846	2.34
386.292	2.36
386.739	2.37
387.185	2.38
387.631	2.39
388.078	2.41
388.524	2.42
388.97	2.44
389.416	2.45
389.862	2.46
390.308	2.48
390.754	2.51
391.2	2.52
391.645	2.55
392.091	2.57
392.537	2.6
392.983	2.61
393.428	2.63
393.874	2.65
394.319	2.67
394.765	2.69
395.21	2.71
395.655	2.72
396.101	2.74
396.546	2.76
396.991	2.79
397.436	2.81
397.881	2.85
398.326	2.88
398.771	2.9
399.216	2.93
399.661	2.98
400.106	3
400.551	3.02
400.995	3.04
401.44	3.06
401.885	3.08
402.329	3.1
402.774	3.12
403.218	3.15
403.663	3.18
404.107	3.2
404.551	3.22
404.995	3.24
405.44	3.26
405.884	3.29
406.328	3.32
406.772	3.34
407.216	3.37
407.66	3.39
408.104	3.41
408.547	3.43
408.991	3.46
409.435	3.48
409.879	3.52
410.322	3.55
410.766	3.58
411.209	3.61
411.653	3.65
412.096	3.67
412.54	3.7
412.983	3.72
413.426	3.78
413.869	3.8
414.312	3.83
414.756	3.86
415.199	3.88
415.642	3.9
416.085	3.93
416.527	3.94
416.97	3.96
417.413	3.97
417.856	3.99
418.298	4
418.741	4.02
419.184	4.04
419.626	4.06
420.069	4.08
420.511	4.11
420.953	4.13
421.396	4.16
421.838	4.18
422.28	4.21
422.722	4.25
423.164	4.27
423.606	4.29
424.048	4.32
424.49	4.34
424.932	4.36
425.374	4.37
425.816	4.37
426.258	4.38
426.699	4.39
427.141	4.41
427.582	4.43
428.024	4.46
428.465	4.48
428.907	4.49
429.348	4.5
429.789	4.51
430.231	4.53
430.672	4.56
431.113	4.6
431.554	4.62
431.995	4.64
432.436	4.66
432.877	4.67
433.318	4.7
433.759	4.73
434.2	4.77
434.64	4.81
435.081	4.83
435.522	4.86
435.962	4.89
436.403	4.94
436.843	4.96
437.284	4.97
437.724	5
438.164	4.99
438.604	5.01
439.045	5
439.485	5.02
439.925	5.03
440.365	5.04
440.805	5.04
441.245	5.05
441.685	5.06
442.125	5.09
442.564	5.08
443.004	5.12
443.444	5.13
443.883	5.16
444.323	5.15
444.762	5.18
445.202	5.19
445.641	5.21
446.081	5.23
446.52	5.25
446.959	5.26
447.398	5.29
447.837	5.31
448.276	5.31
448.716	5.33
449.154	5.37
449.593	5.38
450.032	5.37
450.471	5.37
450.91	5.36
451.349	5.36
451.787	5.34
452.226	5.33
452.664	5.33
453.103	5.33
453.541	5.33
453.98	5.32
454.418	5.33
454.856	5.33
455.295	5.34
455.733	5.32
456.171	5.32
456.609	5.32
457.047	5.32
457.485	5.32
457.923	5.32
458.361	5.32
458.798	5.32
459.236	5.32
459.674	5.31
460.111	5.31
460.549	5.33
460.987	5.33
461.424	5.34
461.862	5.35
462.299	5.36
462.736	5.36
463.173	5.35
463.611	5.36
464.048	5.36
464.485	5.37
464.922	5.38
465.359	5.38
465.796	5.39
466.233	5.38
466.67	5.39
467.106	5.39
467.543	5.4
467.98	5.41
468.416	5.41
468.853	5.41
469.29	5.41
469.726	5.4
470.162	5.39
470.599	5.38
471.035	5.38
471.471	5.36
471.907	5.36
472.344	5.36
472.78	5.36
473.216	5.34
473.652	5.35
474.088	5.33
474.523	5.32
474.959	5.32
475.395	5.3
475.831	5.3
476.266	5.29
476.702	5.27
477.138	5.26
477.573	5.25
478.008	5.25
478.444	5.24
478.879	5.24
479.314	5.23
479.75	5.23
480.185	5.22
480.62	5.21
481.055	5.21
481.49	5.21
481.925	5.2
482.36	5.2
482.795	5.19
483.229	5.18
483.664	5.17
484.099	5.17
484.534	5.16
484.968	5.16
485.403	5.17
485.837	5.17
486.271	5.17
486.706	5.17
487.14	5.17
487.574	5.17
488.009	5.17
488.443	5.18
488.877	5.19
489.311	5.2
489.745	5.21
490.179	5.21
490.613	5.23
491.046	5.24
491.48	5.25
491.914	5.27
492.348	5.28
492.781	5.3
493.215	5.32
493.648	5.34
494.082	5.36
494.515	5.37
494.948	5.39
495.382	5.41
495.815	5.44
496.248	5.47
496.681	5.5
497.114	5.52
497.547	5.56
497.98	5.59
498.413	5.62
498.846	5.66
499.279	5.69
499.711	5.74
500.144	5.78
500.577	5.82
501.009	5.86
501.442	5.9
501.874	5.96
502.306	6.01
502.739	6.09
503.171	6.16
503.603	6.23
504.036	6.31
504.468	6.38
504.9	6.45
505.332	6.54
505.764	6.63
506.196	6.73
506.627	6.82
507.059	6.93
507.491	7.03
507.923	7.14
508.354	7.26
508.786	7.38
509.217	7.52
509.649	7.66
510.08	7.8
510.512	7.94
510.943	8.1
511.374	8.24
511.805	8.39
512.237	8.55
512.668	8.71
513.099	8.88
513.53	9.05
513.961	9.22
514.391	9.4
514.822	9.59
515.253	9.77
515.684	9.95
516.114	10.15
516.545	10.35
516.975	10.57
517.406	10.78
517.836	10.98
518.267	11.2
518.697	11.41
519.127	11.62
519.558	11.84
519.988	12.06
520.418	12.29
520.848	12.5
521.278	12.71
521.708	12.93
522.138	13.14
522.567	13.33
522.997	13.52
523.427	13.72
523.857	13.91
524.286	14.09
524.716	14.27
525.145	14.45
525.575	14.62
526.004	14.8
526.433	14.94
526.863	15.11
527.292	15.27
527.721	15.41
528.15	15.56
528.579	15.7
529.008	15.84
529.437	15.96
529.866	16.08
530.295	16.21
530.724	16.31
531.152	16.41
531.581	16.52
532.01	16.62
532.438	16.73
532.867	16.82
533.295	16.9
533.723	16.97
534.152	17.04
534.58	17.11
535.008	17.16
535.436	17.22
535.865	17.27
536.293	17.31
536.721	17.35
537.149	17.39
537.576	17.43
538.004	17.48
538.432	17.52
538.86	17.56
539.287	17.59
539.715	17.62
540.143	17.66
540.57	17.69
540.998	17.73
541.425	17.78
541.852	17.81
542.28	17.82
542.707	17.84
543.134	17.86
543.561	17.89
543.988	17.92
544.415	17.94
544.842	17.96
545.269	17.99
545.696	18
546.123	18.01
546.549	18.03
546.976	18.06
547.403	18.1
547.829	18.11
548.256	18.12
548.682	18.13
549.108	18.15
549.535	18.16
549.961	18.17
550.387	18.16
550.813	18.17
551.24	18.17
551.666	18.16
552.092	18.14
552.518	18.13
552.943	18.11
553.369	18.09
553.795	18.05
554.221	18.02
554.646	17.97
555.072	17.93
555.498	17.87
555.923	17.81
556.349	17.75
556.774	17.69
557.199	17.62
557.625	17.56
558.05	17.48
558.475	17.42
558.9	17.34
559.325	17.26
559.75	17.19
560.175	17.1
560.6	16.99
561.025	16.89
561.449	16.79
561.874	16.69
562.299	16.58
562.723	16.46
563.148	16.34
563.572	16.22
563.997	16.1
564.421	15.96
564.846	15.84
565.27	15.71
565.694	15.6
566.118	15.45
566.542	15.31
566.966	15.17
567.39	15.04
567.814	14.91
568.238	14.78
568.662	14.65
569.086	14.52
569.509	14.39
569.933	14.27
570.357	14.14
570.78	14.02
571.204	13.9
571.627	13.79
572.05	13.68
572.474	13.57
572.897	13.46
573.32	13.34
573.743	13.24
574.166	13.13
574.589	13.02
575.012	12.92
575.435	12.83
575.858	12.74
576.281	12.65
576.704	12.56
577.126	12.47
577.549	12.39
577.972	12.31
578.394	12.23
578.817	12.16
579.239	12.08
579.661	12.02
580.084	11.94
580.506	11.87
580.928	11.8
581.35	11.74
581.772	11.67
582.194	11.6
582.616	11.53
583.038	11.47
583.46	11.41
583.882	11.36
584.303	11.29
584.725	11.24
585.147	11.18
585.568	11.15
585.99	11.1
586.411	11.05
586.833	11
587.254	10.94
587.675	10.9
588.096	10.86
588.518	10.82
588.939	10.79
589.36	10.74
589.781	10.72
590.202	10.69
590.623	10.65
591.043	10.61
591.464	10.59
591.885	10.57
592.305	10.55
592.726	10.53
593.147	10.5
593.567	10.47
593.987	10.44
594.408	10.41
594.828	10.38
595.248	10.35
595.669	10.34
596.089	10.31
596.509	10.3
596.929	10.27
597.349	10.23
597.769	10.21
598.189	10.19
598.608	10.16
599.028	10.14
599.448	10.11
599.867	10.08
600.287	10.04
600.706	10.01
601.126	9.96
601.545	9.93
601.965	9.91
602.384	9.87
602.803	9.83
603.222	9.8
603.641	9.77
604.061	9.73
604.48	9.68
604.898	9.62
605.317	9.58
605.736	9.54
606.155	9.49
606.574	9.44
606.992	9.38
607.411	9.34
607.829	9.25
608.248	9.18
608.666	9.13
609.085	9.09
609.503	9.06
609.921	9.01
610.339	8.96
610.758	8.92
611.176	8.86
611.594	8.82
612.012	8.77
612.43	8.75
612.847	8.71
613.265	8.66
613.683	8.6
614.101	8.56
614.518	8.5
614.936	8.45
615.353	8.39
615.771	8.35
616.188	8.29
616.606	8.25
617.023	8.21
617.44	8.18
617.857	8.14
618.274	8.11
618.691	8.06
619.108	8.04
619.525	8.02
619.942	7.99
620.359	7.98
620.776	7.96
621.192	7.94
621.609	7.92
622.026	7.9
622.442	7.88
622.859	7.86
623.275	7.85
623.691	7.84
624.108	7.82
624.524	7.8
624.94	7.8
625.356	7.79
625.772	7.78
626.188	7.77
626.604	7.77
627.02	7.76
627.436	7.75
627.852	7.74
628.268	7.74
628.683	7.75
629.099	7.75
629.514	7.75
629.93	7.74
630.345	7.72
630.761	7.71
631.176	7.69
631.591	7.68
632.007	7.66
632.422	7.63
632.837	7.6
633.252	7.56
633.667	7.52
634.082	7.47
634.497	7.43
634.911	7.38
635.326	7.34
635.741	7.29
636.155	7.24
636.57	7.2
636.984	7.16
637.399	7.1
637.813	7.04
638.228	6.98
638.642	6.92
639.056	6.86
639.47	6.81
639.884	6.76
640.298	6.71
640.712	6.64
641.126	6.59
641.54	6.52
641.954	6.47
642.368	6.42
642.781	6.38
643.195	6.32
643.609	6.28
644.022	6.23
644.436	6.18
644.849	6.12
645.262	6.08
645.676	6.03
646.089	5.99
646.502	5.96
646.915	5.93
647.328	5.89
647.741	5.87
648.154	5.84
648.567	5.83
648.98	5.8
649.393	5.8
649.805	5.79
650.218	5.77
650.631	5.75
651.043	5.74
651.456	5.73
651.868	5.7
652.28	5.7
652.693	5.69
653.105	5.66
653.517	5.65
653.929	5.63
654.341	5.61
654.753	5.59
655.165	5.57
655.577	5.54
655.989	5.51
656.401	5.49
656.813	5.47
657.224	5.44
657.636	5.41
658.047	5.39
658.459	5.35
658.87	5.33
659.282	5.3
659.693	5.27
660.104	5.25
660.515	5.22
660.926	5.19
661.338	5.15
661.749	5.13
662.159	5.11
662.57	5.09
662.981	5.06
663.392	5.04
663.803	5.02
664.213	5
664.624	4.98
665.035	4.98
665.445	4.98
665.855	4.97
666.266	4.97
666.676	4.98
667.086	4.96
667.497	4.97
667.907	4.97
668.317	4.97
668.727	4.97
669.137	4.98
669.547	4.98
669.956	4.97
670.366	4.99
670.776	4.99
671.186	4.99
671.595	5
672.005	5
672.414	5.02
672.824	5.04
673.233	5.06
673.642	5.08
674.052	5.1
674.461	5.13
674.87	5.14
675.279	5.17
675.688	5.2
676.097	5.23
676.506	5.26
676.915	5.28
677.323	5.31
677.732	5.31
678.141	5.33
678.549	5.36
678.958	5.38
679.366	5.41
679.775	5.43
680.183	5.46
680.592	5.49
681	5.52
681.408	5.57
681.816	5.61
682.224	5.66
682.632	5.71
683.04	5.75
683.448	5.8
683.856	5.84
684.264	5.88
684.671	5.95
685.079	6.01
685.487	6.09
685.894	6.17
686.302	6.26
686.709	6.37
687.116	6.49
687.524	6.64
687.931	6.8
688.338	6.97
688.745	7.17
689.152	7.37
689.559	7.62
689.966	7.87
690.373	8.14
690.78	8.43
691.187	8.75
691.593	9.08
692	9.42
692.407	9.77
692.813	10.15
693.22	10.54
693.626	10.94
694.032	11.34
694.439	11.78
694.845	12.22
695.251	12.66
695.657	13.1
696.063	13.56
696.469	14.04
696.875	14.53
697.281	15.02
697.687	15.53
698.093	16.04
698.498	16.56
698.904	17.07
699.31	17.58
699.715	18.11
700.12	18.63
700.526	19.15
700.931	19.66
701.337	20.16
701.742	20.67
702.147	21.17
702.552	21.7
702.957	22.18
703.362	22.68
703.767	23.16
704.172	23.65
704.577	24.14
704.981	24.62
705.386	25.12
705.791	25.62
706.195	26.11
706.6	26.59
707.004	27.05
707.408	27.52
707.813	28
708.217	28.49
708.621	28.97
709.025	29.43
709.43	29.89
709.834	30.35
710.237	30.78
710.641	31.23
711.045	31.67
711.449	32.13
711.853	32.62
712.256	33.03
712.66	33.43
713.064	33.85
713.467	34.28
713.87	34.69
714.274	35.1
714.677	35.51
715.08	35.88
715.484	36.28
715.887	36.67
716.29	37.01
716.693	37.4
717.096	37.78
717.499	38.16
717.901	38.52
718.304	38.9
718.707	39.25
719.109	39.6
719.512	39.96
719.915	40.31
720.317	40.61
720.719	40.93
721.122	41.23
721.524	41.55
721.926	41.83
722.328	42.14
722.731	42.4
723.133	42.69
723.535	42.95
723.937	43.22
724.338	43.48
724.74	43.76
725.142	44.07
725.544	44.3
725.945	44.55
726.347	44.79
726.748	45
727.15	45.23
727.551	45.46
727.952	45.65
728.354	45.86
728.755	46.04
729.156	46.24
729.557	46.37
729.958	46.57
730.359	46.73
730.76	46.9
731.161	47.07
731.562	47.25
731.962	47.37
732.363	47.54
732.763	47.68
733.164	47.83
733.564	47.94
733.965	48.08
734.365	48.2
734.766	48.33
735.166	48.46
735.566	48.57
735.966	48.66
736.366	48.78
736.766	48.88
737.166	49.02
737.566	49.12
737.966	49.22
738.365	49.3
738.765	49.42
739.165	49.49
739.564	49.58
739.964	49.66
740.363	49.71
740.763	49.78
741.162	49.87
741.561	49.9
741.96	49.93
742.36	49.98
742.759	50.03
743.158	50.07
743.557	50.12
743.955	50.14
744.354	50.2
744.753	50.27
745.152	50.36
745.55	50.4
745.949	50.46
746.348	50.55
746.746	50.61
747.144	50.67
747.543	50.7
747.941	50.73
748.339	50.76
748.737	50.77
749.136	50.79
749.534	50.77
749.932	50.78
750.33	50.8
750.727	50.8
751.125	50.81
751.523	50.83
751.921	50.84
752.318	50.87
752.716	50.9
753.113	50.94
753.511	50.95
753.908	50.99
754.305	51.01
754.703	51.02
755.1	51.03
755.497	51.03
755.894	51.03
756.291	51.06
756.688	51.06
757.085	51.08
757.482	51.08
757.878	51.07
758.275	51.07
758.672	51.09
759.068	51.11
759.465	51.11
759.861	51.15
760.258	51.16
760.654	51.15
761.05	51.16
761.447	51.16
761.843	51.15
762.239	51.15
762.635	51.15
763.031	51.12
763.427	51.08
763.822	51.09
764.218	51.1
764.614	51.11
765.01	51.1
765.405	51.08
765.801	51.06
766.196	51.07
766.592	51.09
766.987	51.07
767.382	51.04
767.778	51.07
768.173	51.08
768.568	51.06
768.963	51.05
769.358	51.06
769.753	51.06
770.148	51.09
770.542	51.1
770.937	51.09
771.332	51.12
771.726	51.17
772.121	51.16
772.515	51.16
772.91	51.16
773.304	51.17
773.699	51.16
774.093	51.17
774.487	51.17
774.881	51.18
775.275	51.19
775.669	51.15
776.063	51.13
776.457	51.14
776.851	51.14
777.245	51.14
777.638	51.12
778.032	51.12
778.425	51.15
778.819	51.16
779.212	51.16
779.606	51.16
779.999	51.18
780.392	51.21
780.786	51.21
781.179	51.19
781.572	51.19
781.965	51.17
782.358	51.16
782.751	51.15
783.143	51.11
783.536	51.08
783.929	51.06
784.322	51.09
784.714	51.06
785.107	51.04
785.499	51.04
785.891	51.03
786.284	51.06
786.676	51.08
787.068	51.06
787.46	51.08
787.852	51.09
788.245	51.12
788.636	51.1
789.028	51.11
789.42	51.09
789.812	51.1
790.204	51.13
790.595	51.14
790.987	51.14
791.378	51.17
791.77	51.15
792.161	51.13
792.553	51.13
792.944	51.12
793.335	51.13
793.726	51.14
794.117	51.11
794.508	51.08
794.899	51.06
795.29	51.05
795.681	51.03
796.072	51.05
796.463	51.06
796.853	51.04
797.244	51.04
797.634	51.05
798.025	51.07
798.415	51.09
798.806	51.1
799.196	51.13
799.586	51.14
799.976	51.17
800.366	51.16
800.756	51.19
801.146	51.22
801.536	51.21
801.926	51.2
802.316	51.2
802.706	51.24
803.095	51.24
803.485	51.19
803.874	51.2
804.264	51.18
804.653	51.19
805.043	51.15
805.432	51.14
805.821	51.14
806.21	51.13
806.599	51.12
806.988	51.09
807.377	51.09
807.766	51.11
808.155	51.09
808.544	51.1
808.933	51.11
809.321	51.13
809.71	51.13
810.098	51.15
810.487	51.13
810.875	51.14
811.264	51.14
811.652	51.14
812.04	51.12
812.428	51.15
812.816	51.13
813.204	51.09
813.592	51.06
813.98	51.04
814.368	51.02
814.756	51.03
815.144	51.01
815.531	51.01
815.919	51
816.306	51.02
816.694	51
817.081	50.99
817.469	51.02
817.856	51
818.243	50.98
818.63	50.94
819.017	50.94
819.404	50.91
819.791	50.89
820.178	50.9
820.565	50.86
820.952	50.87
821.339	50.88
821.725	50.89
822.112	50.9
822.498	50.95
822.885	51.01
823.271	51
823.657	51.01
824.044	51.03
824.43	51.03
824.816	51.03
825.202	51.02
825.588	51.02
825.974	50.99
826.36	51
826.746	50.98
827.132	50.94
827.517	50.95
827.903	50.98
828.289	51
828.674	50.99
829.06	51.01
829.445	51
829.83	51.01
830.216	51
830.601	51
830.986	51.01
831.371	51.01
831.756	51.02
832.141	50.99
832.526	50.97
832.911	50.96
833.295	50.97
833.68	50.99
834.065	50.97
834.449	50.99
834.834	50.98
835.218	50.97
835.603	50.98
835.987	50.98
836.371	50.99
836.755	50.98
837.139	50.99
837.524	51
837.908	51.01
838.291	51.02
838.675	51
839.059	51.01
839.443	51.01
839.827	51.01
840.21	50.97
840.594	50.97
840.977	50.98
841.361	50.99
841.744	50.98
842.127	50.95
842.511	50.95
842.894	50.94
843.277	50.93
843.66	50.92
844.043	50.94
844.426	50.96
844.809	50.97
845.191	50.99
845.574	50.99
845.957	51
846.339	51
846.722	51.04
847.104	51.06
847.487	51.08
847.869	51.09
848.252	51.09
848.634	51.11
849.016	51.11
849.398	51.11
849.78	51.12
850.162	51.11
850.544	51.12
850.926	51.11
851.307	51.09
851.689	51.09
852.071	51.12
852.452	51.1
852.834	51.1
853.215	51.08
853.597	51.06
853.978	51.05
854.359	51.07
854.741	51.08
855.122	51.07
855.503	51.11
855.884	51.09
856.265	51.09
856.646	51.09
857.026	51.09
857.407	51.11
857.788	51.11
858.169	51.12
858.549	51.09
858.93	51.08
859.31	51.09
859.69	51.08
860.071	51.09
860.451	51.08
860.831	51.08
861.211	51.04
861.591	51.02
861.971	51.01
862.351	51.03
862.731	51.04
863.111	51.03
863.491	51.01
863.87	50.98
864.25	50.94
864.629	50.94
865.009	50.94
865.388	50.94
865.768	50.98
866.147	50.99
866.526	50.96
866.905	50.96
867.284	50.99
867.663	50.98
868.042	51
868.421	51.05
868.8	51.03
869.179	51.03
869.558	51.05
869.936	51.02
870.315	51.02
870.693	51.01
871.072	51.02
871.45	51.01
871.828	51.03
872.207	51.04
872.585	51
872.963	51
873.341	50.99
873.719	50.98
874.097	51
874.475	51
874.853	51
875.23	51.02
875.608	51.02
875.986	51.03
876.363	51.03
876.741	51.04
877.118	51.06
877.495	51.09
877.873	51.12
878.25	51.14
878.627	51.18
879.004	51.19
879.381	51.18
879.758	51.17
880.135	51.16
880.512	51.15
880.889	51.17
881.265	51.17
881.642	51.16
882.019	51.16
882.395	51.13
882.772	51.12
883.148	51.1
883.524	51.08
883.901	51.07
884.277	51.07
884.653	51.05
885.029	51.02
885.405	51.01
885.781	50.99
886.157	50.98
886.532	50.97
886.908	50.96
887.284	50.97
887.659	50.96
888.035	50.95
888.411	50.96
888.786	50.99
889.161	50.99
889.537	51
889.912	50.99
890.287	51.01
890.662	51
891.037	51
891.412	50.98
891.787	50.96
892.162	50.97
892.536	50.95
892.911	50.94
893.286	50.93
893.66	50.93
894.035	50.92
894.409	50.89
894.784	50.89
895.158	50.88
895.532	50.88
895.906	50.9
896.281	50.88
896.655	50.88
897.029	50.9
897.402	50.9
897.776	50.9
898.15	50.89
898.524	50.92
898.898	50.91
899.271	50.94
899.645	50.95
900.018	50.97
900.392	51
900.765	51.01
901.138	50.99
901.511	51.03
901.884	51.04
902.258	51.08
902.631	51.08
903.003	51.1
903.376	51.1
903.749	51.1
904.122	51.09
904.495	51.09
904.867	51.1
905.24	51.11
905.612	51.11
905.985	51.07
906.357	51.06
906.729	51.08
907.102	51.07
907.474	51.07
907.846	51.06
908.218	51.05
908.59	51.06
908.962	51.05
909.334	51.07
909.705	51.05
910.077	51.08
910.449	51.06
910.82	51.05
911.192	51.05
911.563	51.03
911.935	51.05
912.306	51.04
912.677	51.06
913.048	51.07
913.419	51.04
913.79	51.07
914.161	51.07
914.532	51.07
914.903	51.07
915.274	51.06
915.645	51.08
916.015	51.08
916.386	51.1
916.756	51.07
917.127	51.07
917.497	51.07
917.868	51.04
918.238	51.05
918.608	51.05
918.978	51.04
919.348	51.07
919.718	51.09
920.088	51.1
920.458	51.09
920.828	51.08
921.198	51.04
921.567	51.04
921.937	51.07
922.306	51.05
922.676	51.04
923.045	51.03
923.415	51
923.784	50.99
924.153	50.98
924.522	51
924.891	51
925.26	50.99
925.629	50.98
925.998	50.93
926.367	50.91
926.736	50.91
927.104	50.92
927.473	50.91
927.842	50.88
928.21	50.86
928.578	50.81
928.947	50.83
929.315	50.83
929.683	50.83
930.051	50.83
930.42	50.84
930.788	50.81
931.156	50.75
931.523	50.73
931.891	50.76
932.259	50.76
932.627	50.72
932.994	50.68
933.362	50.63
933.729	50.61
934.097	50.6
934.464	50.6
934.831	50.56
935.199	50.6
935.566	50.6
935.933	50.57
936.3	50.55
936.667	50.58
937.034	50.59
937.401	50.65
937.767	50.65
938.134	50.61
938.501	50.6
938.867	50.64
939.234	50.64
939.6	50.61
939.967	50.55
940.333	50.54
940.699	50.49
941.065	50.42
941.431	50.39
941.798	50.37
942.163	50.38
942.529	50.37
942.895	50.37
943.261	50.35
943.627	50.37
943.992	50.43
944.358	50.39
944.723	50.41
945.089	50.43
945.454	50.45
945.82	50.46
946.185	50.48
946.55	50.41
946.915	50.4
947.28	50.42
947.645	50.4
948.01	50.36
948.375	50.37
948.74	50.36
949.104	50.37
949.469	50.35
949.834	50.32
950.198	50.27
950.562	50.25
950.927	50.24
951.291	50.11
951.655	50.01
952.02	50.02
952.384	49.98
952.748	49.93
953.112	49.86
953.476	49.83
953.839	49.79
954.203	49.73
954.567	49.78
954.931	49.75
955.294	49.75
955.658	49.82
956.021	49.77
956.385	49.71
956.748	49.72
957.111	49.76
957.474	49.75
957.837	49.78
958.2	49.81
958.563	49.76
958.926	49.77
959.289	49.81
959.652	49.77
960.015	49.76
960.377	49.76
960.74	49.79
961.102	49.77
961.465	49.8
961.827	49.81
962.189	49.82
962.552	49.84
962.914	49.81
963.276	49.8
963.638	49.81
964	49.79
964.362	49.85
964.724	49.81
965.085	49.78
965.447	49.72
965.809	49.71
966.17	49.65
966.532	49.63
966.893	49.61
967.255	49.66
967.616	49.65
967.977	49.71
968.338	49.7
968.699	49.71
969.061	49.71
969.421	49.73
969.782	49.76
970.143	49.8
970.504	49.79
970.865	49.83
971.225	49.72
971.586	49.71
971.946	49.7
972.307	49.68
972.667	49.65
973.027	49.67
973.388	49.66
973.748	49.66
974.108	49.68
974.468	49.68
974.828	49.67
975.188	49.69
975.548	49.68
975.907	49.68
976.267	49.63
976.627	49.66
976.986	49.63
977.346	49.62
977.705	49.53
978.064	49.56
978.424	49.59
978.783	49.55
979.142	49.59
979.501	49.64
979.86	49.65
980.219	49.65
980.578	49.64
980.937	49.69
981.296	49.71
981.654	49.75
982.013	49.67
982.371	49.64
982.73	49.63
983.088	49.56
983.447	49.48
983.805	49.44
984.163	49.42
984.521	49.4
984.879	49.28
985.237	49.23
985.595	49.25
985.953	49.2
986.311	49.1
986.669	49.12
987.026	49.17
987.384	49.21
987.741	49.2
988.099	49.29
988.456	49.31
988.814	49.42
989.171	49.5
989.528	49.48
989.885	49.49
990.242	49.54
990.599	49.57
990.956	49.63
991.313	49.66
991.67	49.67
992.027	49.7
992.383	49.73
992.74	49.77
993.096	49.7
993.453	49.77
993.809	49.82
994.165	49.86
994.522	49.89
994.878	49.82
995.234	49.74
995.59	49.68
995.946	49.54
996.302	49.45
996.658	49.41
997.013	49.46
997.369	49.41
997.725	49.42
998.08	49.48
998.436	49.44
998.791	49.41
999.147	49.46
999.502	49.55
999.857	49.63
1000.212	49.59
1000.567	49.52
1000.922	49.45
1001.277	49.41
1001.632	49.43
1001.987	49.38
1002.342	49.4
1002.696	49.33
1003.051	49.45
1003.406	49.5
1003.76	49.51
1004.114	49.58
1004.469	49.7
1004.823	49.98
1005.177	50.08
1005.531	50.02
1005.885	50.08
1006.239	50.01
1006.593	50.12
1006.947	49.98
1007.301	49.84
1007.655	49.74
1008.008	49.82
1008.362	49.84
1008.715	49.59
1009.069	49.48
1009.422	49.49
1009.776	49.46
1010.129	49.58
1010.482	49.54
1010.835	49.53
1011.188	49.53
1011.541	49.51
1011.894	49.49
1012.247	49.44
1012.6	49.41
1012.952	49.41
1013.305	49.49
1013.657	49.45
1014.01	49.44
1014.362	49.5
1014.715	49.65
1015.067	49.75
1015.419	49.86
1015.771	49.77
1016.123	49.74
1016.475	49.88
1016.827	49.93
1017.179	49.69
1017.531	49.71
1017.883	49.62
1018.234	49.55
1018.586	49.54
1018.938	49.55
1019.289	49.41
1019.64	49.47
1019.992	49.45
1020.343	49.46
1020.694	49.4
1021.045	49.51
1021.396	49.48
1021.747	49.66
1022.098	49.81
1022.449	49.75
1022.8	49.68
1023.151	49.84
1023.501	49.93
1023.852	50.02
1024.202	49.83
1024.553	49.68
1024.903	49.73
1025.253	49.78
1025.604	49.59
1025.954	49.29
1026.304	49.16
1026.654	49.24
1027.004	49.02
1027.354	48.73
1027.703	48.27
1028.053	48.31
1028.403	48.44
1028.753	48.2
1029.102	48.22
1029.452	48.29
1029.801	48.51
1030.15	48.47
1030.499	48.24
897.758	696.29
901.051	702.19
904.343	702.17
907.636	714.07
910.928	695.87
914.22	694.35
917.511	685.67
920.803	653.21
924.094	651.51
927.384	634.44
930.675	611.57
933.965	610.65
937.255	573.13
940.544	550.4
943.834	525.09
947.123	520.02
950.411	494.01
953.7	485.4
956.988	461.11
960.276	444
963.563	438.8
966.851	423.31
970.138	420.7
973.424	410.97
976.711	411.78
979.997	392.86
983.283	390.63
986.568	381.4
989.853	371.19
993.138	365.54
996.423	351.14
999.708	341.54
1002.992	337.32
1006.275	322.15
1009.559	317.99
1012.842	307.8
1016.125	302.21
1019.408	296.37
1022.69	292.79
1025.972	286.05
1029.254	279.78
1032.536	276.33
1035.817	271.3
1039.098	267.92
1042.379	264.32
1045.659	262.69
1048.939	255.79
1052.219	249.99
1055.498	248.44
1058.778	242.36
1062.057	237.97
1065.335	235.64
1068.614	233.2
1071.892	230.34
1075.17	224.2
1078.447	219.49
1081.724	217.42
1085.001	217.28
1088.278	213.47
1091.554	207.78
1094.83	208.54
1098.106	206.57
1101.382	205.9
1104.657	204.2
1107.932	200.59
1111.206	201.33
1114.481	197.24
1117.755	195.46
1121.029	193.26
1124.302	192.26
1127.575	190.59
1130.848	188.49
1134.121	187.23
1137.393	185.17
1140.665	181.57
1143.937	180.65
1147.208	180.39
1150.48	179.68
1153.75	177.21
1157.021	175.37
1160.291	174.86
1163.561	172.58
1166.831	172.58
1170.101	171.11
1173.37	171.74
1176.639	172.3
1179.907	171.29
1183.176	168.89
1186.444	168.56
1189.711	168.67
1192.979	168.1
1196.246	167.92
1199.513	168.59
1202.78	167.65
1206.046	167.2
1209.312	165.63
1212.578	165.77
1215.843	166.6
1219.108	166.46
1222.373	169.48
1225.638	171.12
1228.902	172.71
1232.166	173.64
1235.43	174.16
1238.693	176.28
1241.956	177.25
1245.219	179.19
1248.482	179.36
1251.744	179.66
1255.006	179.32
1258.268	175.75
1261.529	174.32
1264.79	173.58
1268.051	171.42
1271.312	170.53
1274.572	168.2
1277.832	167.84
1281.092	164.99
1284.351	163.92
1287.61	163.85
1290.869	161.99
1294.128	161.08
1297.386	161.06
1300.644	159.14
1303.902	159.92
1307.159	159.67
1310.416	159.75
1313.673	158.47
1316.93	159.34
1320.186	159.08
1323.442	159.29
1326.697	161.02
1329.953	161.43
1333.208	160.65
1336.463	163.24
1339.717	163.11
1342.972	163.4
1346.226	165.21
1349.479	165.86
1352.733	167.15
1355.986	168.21
1359.238	168.15
1362.491	168.41
1365.743	168.99
1368.995	169.06
1372.247	168.98
1375.498	168.16
1378.749	169.26
1382	166.92
1385.251	165.99
1388.501	164.5
1391.751	163.21
1395	161.88
1398.25	160.67
1401.499	158.66
1404.748	157.73
1407.996	154.45
1411.244	154.02
1414.492	152.24
1417.74	149.6
1420.987	148.07
1424.234	146.98
1427.481	145.03
1430.728	144.58
1433.974	143.8
1437.22	142.73
1440.465	142.55
1443.711	140.86
1446.956	139.33
1450.201	138.4
1453.445	137.56
1456.689	137.22
1459.933	134.28
1463.177	133.71
1466.42	131.59
1469.663	129.18
1472.906	128.42
1476.148	125.63
1479.391	125.04
1482.633	124.48
1485.874	121.87
1489.115	120.87
1492.356	120
1495.597	120.31
1498.838	118.78
1502.078	118.44
1505.318	118.73
1508.557	118.09
1511.797	117.87
1515.036	117.26
1518.274	116.82
1521.513	116.46
1524.751	116.69
1527.989	116.14
1531.227	116.22
1534.464	116.2
1537.701	116.26
1540.938	115.81
1544.174	115.62
1547.41	116.11
1550.646	115.23
1553.882	115.34
1557.117	114.93
1560.352	114.13
1563.587	114.53
1566.821	113.92
1570.055	113.42
1573.289	112.72
1576.523	113.03
1579.756	112.2
1582.989	111.82
1586.222	111.57
1589.454	111.56
1592.686	112.58
1595.918	112.29
1599.15	112.01
1602.381	112.35
1605.612	112.58
1608.843	112.46
1612.073	112.02
1615.303	112.98
1618.533	113.17
1621.762	113.47
1624.992	113.73
1628.221	113.09
1631.449	112.69
1634.678	113.23
1637.906	113.63
1641.134	113.22
1644.361	113.47
1647.588	113.94
1650.815	113.64
1654.042	113.5
1657.269	114.17
1660.495	114.09
1663.72	113.79
1666.946	114.62
1670.171	114.3
1673.396	113.9
1676.621	114.44
1679.845	114.52
1683.069	114.58
1686.293	115.02
1689.517	115.17
1692.74	115.17
1695.963	115.43
1699.185	116.12
1702.408	115.94
1705.63	116.29
1708.852	116.82
1712.073	116.99
1715.294	117.1
1718.515	117.95
1721.736	117.9
1724.956	117.96
1728.176	117.99
1731.396	118.43
1734.616	118.18
1737.835	118.75
1741.054	117.97
1744.272	117.95
1747.491	118.51
1750.709	118.61
1753.927	117.94
1757.144	117.73
1760.361	117.84
1763.578	118.21
1766.795	117.66
1770.011	118.21
1773.227	118.38
1776.443	119.23
1779.658	119.27
1782.874	118.87
1786.089	119.05
1789.303	119.48
1792.518	120.5
1795.732	120.39
1798.945	121.2
1802.159	121.91
1805.372	122.22
1808.585	123.36
1811.797	124.01
1815.01	124.77
1818.222	126.02
1821.434	126.95
1824.645	126.9
1827.856	128.84
1831.067	129.33
1834.278	129.46
1837.488	130.3
1840.698	130.55
1843.908	129.9
1847.117	130.24
1850.326	130.42
1853.535	128.88
1856.744	130.7
1859.952	130.29
1863.16	128.97
1866.368	128.39
1869.575	128.07
1872.782	125.22
1875.989	124.04
1879.196	123.19
1882.402	121.74
1885.608	121.39
1888.814	121.63
1892.019	120.44
1895.224	119.83
1898.429	119.3
1901.634	119.32
1904.838	119.61
1908.042	120.84
1911.246	121.49
1914.449	122.31
1917.652	122.07
1920.855	122.14
1924.058	121.92
1927.26	121.15
1930.462	121.21
1933.664	121.86
1936.865	121.69
1940.066	120.27
1943.267	120.01
1946.467	120.46
1949.668	120.73
1952.868	122.32
1956.067	122.74
1959.267	123.53
1962.466	123.91
1965.665	123.73
1968.863	123.94
1972.061	125.34
1975.259	126.78
1978.457	128.27
1981.654	128.61
1984.852	129.16
1988.048	128.68
1991.245	129.67
1994.441	129.89
1997.637	131.42
2000.833	134.37
2004.028	136.14
2007.223	137.08
2010.418	138.7
2013.613	140.47
2016.807	142.65
2020.001	144.29
2023.194	146.81
2026.388	149.87
2029.581	153.53
2032.774	154.15
2035.966	156.79
2039.158	157.16
2042.35	160.77
2045.542	161.6
2048.733	163.98
2051.924	165.63
2055.115	168.11
2058.306	168.57
2061.496	169.55
2064.686	169.42
2067.875	172.68
2071.065	173.54
2074.254	173.66
2077.442	175.15
2080.631	176.14
2083.819	177.97
2087.007	178.89
2090.195	180.93
2093.382	182.86
2096.569	182.92
2099.756	186.23
2102.942	186.85
2106.128	188.33
2109.314	192.04
2112.5	191.48
2115.685	196.3
2118.87	196.47
2122.055	200.89
2125.239	201.6
2128.424	204.4
2131.608	205.14
2134.791	208.45
2137.974	209.07
2141.157	210.34
2144.34	211.08
2147.523	214.03
2150.705	212.47
2153.887	214.89
2157.068	214.81
2160.25	213.26
2163.431	214.24
2166.611	216.77
2169.792	220.84
2172.972	222.93
2176.152	224.49
2179.331	227.14
2182.511	230.1
2185.69	231.87
2188.868	236.68
2192.047	237.49
2195.225	245.12
2198.403	249.59
2201.58	254.13
2204.758	257.37
2207.935	262.22
2211.111	268.05
2214.288	270.98
2217.464	272.52
2220.64	278.68
2223.815	281.11
2226.991	291.64
2230.166	290.97
2233.34	294.29
2236.515	300.63
2239.689	302.37
2242.863	305.53
2246.036	310.96
2249.209	310.16
2252.382	315.42
2255.555	324.11
2258.727	325.93
2261.9	330.17
2265.071	334.3
2268.243	340.14
2271.414	343.91
2274.585	350.33
2277.756	353.47
2280.926	357.16
2284.096	364.75
2287.266	371.58
2290.436	374.18
2293.605	381.36
2296.774	389.64
2299.942	402.61
2303.111	407.65
2306.279	414.71
2309.447	419.36
2312.614	430.87
2315.781	441.35
2318.948	462.01
2322.115	456.59
2325.281	482.04
2328.447	472.7
2331.613	490.23
2334.779	484.69
2337.944	504
2341.109	508.24
2344.274	527.58
2347.438	540.71
2350.602	542.61
2353.766	561.13
2356.929	570.34
2360.092	562.37
2363.255	603.12
2366.418	604.83
2369.58	613.83
2372.742	651.47
2375.904	669.83
2379.066	661.87
2382.227	652.93
2385.388	706.77
2388.548	704.92
2391.709	709.86
2394.869	794.1
2398.029	760.24
2401.188	779.05
2404.347	777.64
2407.506	765.74
2410.665	784.32
2413.823	831.38
2416.981	883.33
2420.139	856.49
2423.296	850.92
2426.453	886.02
2429.61	848
2432.767	885.67
2435.923	877.57
2439.079	963.71
2442.235	972.61
2445.391	968.05
2448.546	958.11
2451.701	933.82
2454.855	929.66
2458.009	976.79
2461.163	1023.35
2464.317	1067.59
2467.471	1092.86
2470.624	1096.26
2473.777	1065.38
2476.929	1043.28
2480.082	1012.71
2483.234	1004.99
2486.385	1051.25
2489.537	1057.74
2492.688	1098.5
2495.839	1069.72
2498.989	1043.44
2502.14	1053.27
2505.29	1061.43
2508.439	1074.49
2511.589	1071.71
2514.738	1170.47
2517.887	1143.46
2521.035	1212.58
2524.183	1217.09
2527.331	1227.62
2530.479	1220.78
2533.627	1230.65
