Data from N_1_DEC_ON_6n_Splice17_12-27-27-137.txt Node
Date: Sat Mar 07 12:27:27 EST 2020
User: sa697716
Spectrometer: NQ5500242
Trigger mode: 0
Integration Time (sec): 1.450000E-1
Scans to average: 20
Nonlinearity correction enabled: false
Boxcar width: 5
Storing dark spectrum: false
XAxis mode: Wavelengths
Number of Pixels in Spectrum: 512
>>>>>Begin Spectral Data<<<<<
187.83	56.3
188.298	70.24
188.766	46.78
189.233	46.46
189.701	53.45
190.169	64.12
190.636	18.45
191.104	-49.35
191.571	-342.11
192.039	-142.68
192.506	-631.44
192.974	152.39
193.441	178.93
193.908	35.04
194.375	18.47
194.842	3.02
195.31	36.95
195.777	-143.79
196.244	23.37
196.711	27.86
197.177	32.92
197.644	33.25
198.111	32.57
198.578	33.24
199.045	33.39
199.511	33.27
199.978	33.53
200.445	33.47
200.911	33.41
201.378	33.34
201.844	33.62
202.31	33.11
202.777	33.2
203.243	33.64
203.709	33.29
204.176	32.99
204.642	32.99
205.108	32.99
205.574	32.98
206.04	32.6
206.506	32.54
206.972	32.56
207.438	32.22
207.903	31.92
208.369	31.25
208.835	31.16
209.301	30.68
209.766	30.07
210.232	29.16
210.697	28.48
211.163	28.05
211.628	27.38
212.094	26.53
212.559	26.43
213.024	25.87
213.49	25.22
213.955	24.59
214.42	24.13
214.885	23.5
215.35	22.95
215.815	21.9
216.28	20.68
216.745	19.42
217.21	18.3
217.675	17.03
218.14	16.08
218.604	15.26
219.069	14.51
219.534	13.89
219.998	13.38
220.463	12.95
220.927	12.58
221.392	12.3
221.856	12.03
222.32	11.8
222.785	11.59
223.249	11.4
223.713	11.25
224.177	11.11
224.642	10.96
225.106	10.8
225.57	10.62
226.034	10.5
226.497	10.34
226.961	10.21
227.425	10.07
227.889	9.94
228.353	9.79
228.816	9.65
229.28	9.51
229.744	9.41
230.207	9.3
230.671	9.2
231.134	9.09
231.597	9
232.061	8.91
232.524	8.82
232.987	8.73
233.45	8.65
233.914	8.58
234.377	8.5
234.84	8.4
235.303	8.33
235.766	8.26
236.229	8.19
236.691	8.12
237.154	8.05
237.617	7.98
238.08	7.9
238.542	7.82
239.005	7.77
239.468	7.69
239.93	7.63
240.393	7.57
240.855	7.49
241.317	7.42
241.78	7.35
242.242	7.27
242.704	7.22
243.166	7.17
243.629	7.12
244.091	7.06
244.553	7.01
245.015	6.95
245.477	6.89
245.939	6.84
246.4	6.8
246.862	6.75
247.324	6.71
247.786	6.65
248.247	6.6
248.709	6.55
249.17	6.49
249.632	6.45
250.093	6.41
250.555	6.37
251.016	6.34
251.477	6.3
251.939	6.26
252.4	6.23
252.861	6.2
253.322	6.17
253.783	6.14
254.244	6.12
254.705	6.09
255.166	6.06
255.627	6.02
256.088	5.99
256.549	5.96
257.009	5.93
257.47	5.89
257.931	5.86
258.391	5.82
258.852	5.8
259.312	5.76
259.773	5.73
260.233	5.71
260.694	5.68
261.154	5.66
261.614	5.63
262.074	5.6
262.534	5.58
262.994	5.56
263.455	5.55
263.915	5.52
264.374	5.5
264.834	5.49
265.294	5.47
265.754	5.46
266.214	5.45
266.673	5.44
267.133	5.43
267.593	5.42
268.052	5.41
268.512	5.4
268.971	5.39
269.431	5.38
269.89	5.36
270.349	5.35
270.809	5.34
271.268	5.32
271.727	5.31
272.186	5.29
272.645	5.28
273.104	5.26
273.563	5.25
274.022	5.24
274.481	5.22
274.94	5.21
275.399	5.2
275.857	5.18
276.316	5.16
276.775	5.15
277.233	5.15
277.692	5.13
278.15	5.12
278.609	5.11
279.067	5.09
279.525	5.08
279.984	5.07
280.442	5.06
280.9	5.04
281.358	5.03
281.816	5.02
282.274	5.01
282.732	4.99
283.19	4.97
283.648	4.96
284.106	4.94
284.564	4.93
285.021	4.92
285.479	4.91
285.937	4.89
286.394	4.88
286.852	4.86
287.309	4.84
287.767	4.83
288.224	4.82
288.682	4.8
289.139	4.78
289.596	4.76
290.053	4.74
290.511	4.72
290.968	4.72
291.425	4.7
291.882	4.69
292.339	4.67
292.796	4.66
293.252	4.65
293.709	4.65
294.166	4.64
294.623	4.63
295.079	4.62
295.536	4.62
295.992	4.61
296.449	4.6
296.905	4.59
297.362	4.59
297.818	4.57
298.274	4.57
298.731	4.56
299.187	4.54
299.643	4.53
300.099	4.52
300.555	4.51
301.011	4.5
301.467	4.49
301.923	4.48
302.379	4.47
302.835	4.47
303.291	4.46
303.746	4.45
304.202	4.45
304.658	4.45
305.113	4.44
305.569	4.43
306.024	4.42
306.479	4.41
306.935	4.41
307.39	4.4
307.845	4.39
308.301	4.39
308.756	4.39
309.211	4.38
309.666	4.38
310.121	4.38
310.576	4.37
311.031	4.37
311.486	4.38
311.94	4.37
312.395	4.36
312.85	4.36
313.305	4.35
313.759	4.34
314.214	4.33
314.668	4.32
315.123	4.32
315.577	4.31
316.032	4.3
316.486	4.29
316.94	4.29
317.394	4.28
317.849	4.26
318.303	4.26
318.757	4.24
319.211	4.23
319.665	4.21
320.119	4.2
320.572	4.19
321.026	4.18
321.48	4.17
321.934	4.15
322.387	4.13
322.841	4.12
323.295	4.12
323.748	4.11
324.202	4.11
324.655	4.1
325.108	4.1
325.562	4.09
326.015	4.09
326.468	4.08
326.921	4.08
327.374	4.08
327.827	4.08
328.28	4.08
328.733	4.07
329.186	4.06
329.639	4.06
330.092	4.05
330.545	4.05
330.997	4.04
331.45	4.04
331.903	4.04
332.355	4.04
332.808	4.03
333.26	4.03
333.713	4.02
334.165	4.01
334.617	4
335.069	3.99
335.522	3.99
335.974	3.98
336.426	3.97
336.878	3.97
337.33	3.96
337.782	3.95
338.234	3.95
338.686	3.94
339.137	3.94
339.589	3.93
340.041	3.93
340.493	3.92
340.944	3.9
341.396	3.89
341.847	3.88
342.299	3.87
342.75	3.85
343.201	3.84
343.653	3.83
344.104	3.81
344.555	3.8
345.006	3.79
345.457	3.78
345.908	3.77
346.359	3.77
346.81	3.76
347.261	3.75
347.712	3.75
348.163	3.74
348.613	3.72
349.064	3.72
349.515	3.72
349.965	3.71
350.416	3.69
350.866	3.69
351.317	3.68
351.767	3.67
352.217	3.67
352.668	3.66
353.118	3.67
353.568	3.66
354.018	3.66
354.468	3.66
354.918	3.66
355.368	3.68
355.818	3.67
356.268	3.68
356.718	3.68
357.168	3.66
357.617	3.66
358.067	3.66
358.517	3.68
358.966	3.67
359.416	3.66
359.865	3.66
360.315	3.65
360.764	3.65
361.213	3.64
361.663	3.63
362.112	3.65
362.561	3.65
363.01	3.65
363.459	3.64
363.908	3.63
364.357	3.64
364.806	3.63
365.255	3.64
365.703	3.64
366.152	3.65
366.601	3.66
367.05	3.66
367.498	3.64
367.947	3.65
368.395	3.67
368.844	3.67
369.292	3.68
369.74	3.68
370.189	3.69
370.637	3.69
371.085	3.68
371.533	3.69
371.981	3.69
372.429	3.7
372.877	3.71
373.325	3.7
373.773	3.71
374.221	3.71
374.669	3.72
375.116	3.72
375.564	3.73
376.012	3.74
376.459	3.74
376.907	3.76
377.354	3.76
377.801	3.77
378.249	3.79
378.696	3.79
379.143	3.8
379.591	3.82
380.038	3.83
380.485	3.84
380.932	3.85
381.379	3.86
381.826	3.87
382.273	3.89
382.72	3.89
383.166	3.91
383.613	3.92
384.06	3.93
384.506	3.95
384.953	3.97
385.4	3.99
385.846	4.01
386.292	4.02
386.739	4.04
387.185	4.04
387.631	4.07
388.078	4.07
388.524	4.09
388.97	4.1
389.416	4.11
389.862	4.12
390.308	4.14
390.754	4.15
391.2	4.16
391.645	4.17
392.091	4.18
392.537	4.2
392.983	4.21
393.428	4.22
393.874	4.24
394.319	4.25
394.765	4.24
395.21	4.25
395.655	4.27
396.101	4.28
396.546	4.29
396.991	4.3
397.436	4.3
397.881	4.32
398.326	4.33
398.771	4.34
399.216	4.34
399.661	4.37
400.106	4.37
400.551	4.37
400.995	4.37
401.44	4.38
401.885	4.39
402.329	4.4
402.774	4.4
403.218	4.41
403.663	4.42
404.107	4.42
404.551	4.42
404.995	4.42
405.44	4.43
405.884	4.42
406.328	4.42
406.772	4.41
407.216	4.42
407.66	4.41
408.104	4.4
408.547	4.39
408.991	4.4
409.435	4.4
409.879	4.4
410.322	4.41
410.766	4.43
411.209	4.43
411.653	4.44
412.096	4.45
412.54	4.45
412.983	4.45
413.426	4.48
413.869	4.47
414.312	4.49
414.756	4.49
415.199	4.47
415.642	4.47
416.085	4.47
416.527	4.46
416.97	4.45
417.413	4.46
417.856	4.46
418.298	4.44
418.741	4.43
419.184	4.42
419.626	4.41
420.069	4.42
420.511	4.41
420.953	4.4
421.396	4.41
421.838	4.41
422.28	4.42
422.722	4.43
423.164	4.43
423.606	4.44
424.048	4.45
424.49	4.46
424.932	4.46
425.374	4.45
425.816	4.43
426.258	4.43
426.699	4.42
427.141	4.41
427.582	4.41
428.024	4.41
428.465	4.41
428.907	4.39
429.348	4.37
429.789	4.36
430.231	4.38
430.672	4.39
431.113	4.4
431.554	4.41
431.995	4.42
432.436	4.41
432.877	4.4
433.318	4.41
433.759	4.43
434.2	4.44
434.64	4.45
435.081	4.45
435.522	4.46
435.962	4.48
436.403	4.5
436.843	4.5
437.284	4.51
437.724	4.53
438.164	4.53
438.604	4.54
439.045	4.53
439.485	4.54
439.925	4.54
440.365	4.55
440.805	4.54
441.245	4.54
441.685	4.56
442.125	4.56
442.564	4.56
443.004	4.55
443.444	4.55
443.883	4.56
444.323	4.54
444.762	4.54
445.202	4.53
445.641	4.54
446.081	4.54
446.52	4.52
446.959	4.54
447.398	4.55
447.837	4.56
448.276	4.56
448.716	4.57
449.154	4.59
449.593	4.6
450.032	4.59
450.471	4.57
450.91	4.56
451.349	4.58
451.787	4.55
452.226	4.52
452.664	4.52
453.103	4.49
453.541	4.5
453.98	4.49
454.418	4.47
454.856	4.47
455.295	4.46
455.733	4.43
456.171	4.41
456.609	4.41
457.047	4.4
457.485	4.38
457.923	4.38
458.361	4.36
458.798	4.35
459.236	4.35
459.674	4.35
460.111	4.35
460.549	4.37
460.987	4.39
461.424	4.39
461.862	4.4
462.299	4.41
462.736	4.41
463.173	4.41
463.611	4.41
464.048	4.42
464.485	4.41
464.922	4.43
465.359	4.43
465.796	4.43
466.233	4.43
466.67	4.44
467.106	4.45
467.543	4.46
467.98	4.46
468.416	4.46
468.853	4.47
469.29	4.47
469.726	4.47
470.162	4.46
470.599	4.46
471.035	4.44
471.471	4.43
471.907	4.43
472.344	4.44
472.78	4.43
473.216	4.42
473.652	4.42
474.088	4.41
474.523	4.41
474.959	4.41
475.395	4.39
475.831	4.38
476.266	4.37
476.702	4.36
477.138	4.34
477.573	4.34
478.008	4.34
478.444	4.32
478.879	4.32
479.314	4.31
479.75	4.31
480.185	4.3
480.62	4.3
481.055	4.28
481.49	4.28
481.925	4.27
482.36	4.27
482.795	4.26
483.229	4.25
483.664	4.25
484.099	4.24
484.534	4.24
484.968	4.25
485.403	4.25
485.837	4.26
486.271	4.26
486.706	4.26
487.14	4.27
487.574	4.28
488.009	4.29
488.443	4.29
488.877	4.3
489.311	4.32
489.745	4.33
490.179	4.34
490.613	4.36
491.046	4.38
491.48	4.4
491.914	4.43
492.348	4.45
492.781	4.47
493.215	4.5
493.648	4.53
494.082	4.55
494.515	4.58
494.948	4.61
495.382	4.64
495.815	4.67
496.248	4.7
496.681	4.74
497.114	4.79
497.547	4.83
497.98	4.87
498.413	4.92
498.846	4.97
499.279	5.03
499.711	5.08
500.144	5.15
500.577	5.21
501.009	5.27
501.442	5.34
501.874	5.41
502.306	5.47
502.739	5.56
503.171	5.64
503.603	5.73
504.036	5.82
504.468	5.91
504.9	6.01
505.332	6.12
505.764	6.24
506.196	6.35
506.627	6.47
507.059	6.61
507.491	6.74
507.923	6.89
508.354	7.04
508.786	7.2
509.217	7.36
509.649	7.52
510.08	7.69
510.512	7.86
510.943	8.04
511.374	8.23
511.805	8.41
512.237	8.6
512.668	8.79
513.099	8.99
513.53	9.18
513.961	9.4
514.391	9.61
514.822	9.82
515.253	10.04
515.684	10.27
516.114	10.5
516.545	10.73
516.975	10.97
517.406	11.21
517.836	11.45
518.267	11.72
518.697	11.96
519.127	12.2
519.558	12.46
519.988	12.71
520.418	12.96
520.848	13.19
521.278	13.43
521.708	13.69
522.138	13.92
522.567	14.14
522.997	14.34
523.427	14.56
523.857	14.78
524.286	14.97
524.716	15.18
525.145	15.38
525.575	15.59
526.004	15.78
526.433	15.95
526.863	16.12
527.292	16.3
527.721	16.46
528.15	16.62
528.579	16.77
529.008	16.92
529.437	17.05
529.866	17.18
530.295	17.3
530.724	17.4
531.152	17.51
531.581	17.64
532.01	17.75
532.438	17.85
532.867	17.96
533.295	18.05
533.723	18.13
534.152	18.2
534.58	18.27
535.008	18.33
535.436	18.42
535.865	18.47
536.293	18.52
536.721	18.57
537.149	18.61
537.576	18.65
538.004	18.69
538.432	18.73
538.86	18.78
539.287	18.8
539.715	18.86
540.143	18.89
540.57	18.93
540.998	18.96
541.425	18.98
541.852	19.02
542.28	19.05
542.707	19.07
543.134	19.1
543.561	19.13
543.988	19.16
544.415	19.17
544.842	19.19
545.269	19.21
545.696	19.24
546.123	19.26
546.549	19.28
546.976	19.29
547.403	19.32
547.829	19.34
548.256	19.34
548.682	19.37
549.108	19.39
549.535	19.41
549.961	19.41
550.387	19.41
550.813	19.41
551.24	19.4
551.666	19.41
552.092	19.39
552.518	19.39
552.943	19.36
553.369	19.34
553.795	19.3
554.221	19.26
554.646	19.22
555.072	19.18
555.498	19.12
555.923	19.06
556.349	18.99
556.774	18.93
557.199	18.85
557.625	18.78
558.05	18.69
558.475	18.61
558.9	18.52
559.325	18.43
559.75	18.35
560.175	18.26
560.6	18.17
561.025	18.07
561.449	17.95
561.874	17.83
562.299	17.72
562.723	17.59
563.148	17.47
563.572	17.35
563.997	17.21
564.421	17.05
564.846	16.91
565.27	16.77
565.694	16.62
566.118	16.48
566.542	16.34
566.966	16.2
567.39	16.06
567.814	15.93
568.238	15.77
568.662	15.64
569.086	15.52
569.509	15.39
569.933	15.26
570.357	15.14
570.78	15
571.204	14.87
571.627	14.75
572.05	14.62
572.474	14.5
572.897	14.4
573.32	14.29
573.743	14.17
574.166	14.05
574.589	13.93
575.012	13.82
575.435	13.73
575.858	13.63
576.281	13.53
576.704	13.43
577.126	13.33
577.549	13.24
577.972	13.15
578.394	13.06
578.817	12.98
579.239	12.9
579.661	12.83
580.084	12.75
580.506	12.67
580.928	12.59
581.35	12.52
581.772	12.45
582.194	12.36
582.616	12.3
583.038	12.23
583.46	12.17
583.882	12.1
584.303	12.03
584.725	11.97
585.147	11.91
585.568	11.85
585.99	11.79
586.411	11.74
586.833	11.69
587.254	11.63
587.675	11.57
588.096	11.51
588.518	11.47
588.939	11.43
589.36	11.38
589.781	11.34
590.202	11.31
590.623	11.28
591.043	11.23
591.464	11.2
591.885	11.17
592.305	11.14
592.726	11.11
593.147	11.08
593.567	11.03
593.987	11
594.408	10.95
594.828	10.92
595.248	10.88
595.669	10.86
596.089	10.82
596.509	10.8
596.929	10.77
597.349	10.74
597.769	10.71
598.189	10.68
598.608	10.66
599.028	10.65
599.448	10.62
599.867	10.58
600.287	10.55
600.706	10.52
601.126	10.48
601.545	10.44
601.965	10.41
602.384	10.37
602.803	10.34
603.222	10.3
603.641	10.25
604.061	10.2
604.48	10.16
604.898	10.1
605.317	10.05
605.736	10
606.155	9.95
606.574	9.9
606.992	9.84
607.411	9.78
607.829	9.7
608.248	9.63
608.666	9.58
609.085	9.53
609.503	9.48
609.921	9.43
610.339	9.38
610.758	9.33
611.176	9.26
611.594	9.2
612.012	9.14
612.43	9.11
612.847	9.06
613.265	9
613.683	8.95
614.101	8.9
614.518	8.85
614.936	8.8
615.353	8.74
615.771	8.69
616.188	8.65
616.606	8.61
617.023	8.57
617.44	8.53
617.857	8.49
618.274	8.45
618.691	8.4
619.108	8.36
619.525	8.32
619.942	8.29
620.359	8.27
620.776	8.24
621.192	8.21
621.609	8.18
622.026	8.15
622.442	8.14
622.859	8.13
623.275	8.11
623.691	8.1
624.108	8.09
624.524	8.08
624.94	8.08
625.356	8.08
625.772	8.08
626.188	8.07
626.604	8.06
627.02	8.04
627.436	8.03
627.852	8.02
628.268	8.01
628.683	8.01
629.099	8
629.514	7.98
629.93	7.95
630.345	7.93
630.761	7.92
631.176	7.9
631.591	7.88
632.007	7.85
632.422	7.82
632.837	7.78
633.252	7.73
633.667	7.7
634.082	7.65
634.497	7.6
634.911	7.54
635.326	7.48
635.741	7.42
636.155	7.35
636.57	7.27
636.984	7.2
637.399	7.13
637.813	7.06
638.228	6.97
638.642	6.89
639.056	6.81
639.47	6.74
639.884	6.66
640.298	6.57
640.712	6.5
641.126	6.43
641.54	6.36
641.954	6.29
642.368	6.22
642.781	6.16
643.195	6.09
643.609	6.03
644.022	5.96
644.436	5.91
644.849	5.86
645.262	5.8
645.676	5.75
646.089	5.71
646.502	5.66
646.915	5.62
647.328	5.57
647.741	5.54
648.154	5.51
648.567	5.48
648.98	5.45
649.393	5.43
649.805	5.42
650.218	5.39
650.631	5.38
651.043	5.36
651.456	5.35
651.868	5.33
652.28	5.32
652.693	5.31
653.105	5.3
653.517	5.28
653.929	5.26
654.341	5.24
654.753	5.22
655.165	5.19
655.577	5.17
655.989	5.14
656.401	5.12
656.813	5.1
657.224	5.06
657.636	5.02
658.047	4.99
658.459	4.95
658.87	4.92
659.282	4.88
659.693	4.84
660.104	4.8
660.515	4.78
660.926	4.75
661.338	4.71
661.749	4.69
662.159	4.67
662.57	4.65
662.981	4.63
663.392	4.61
663.803	4.6
664.213	4.59
664.624	4.57
665.035	4.57
665.445	4.56
665.855	4.55
666.266	4.55
666.676	4.56
667.086	4.55
667.497	4.55
667.907	4.55
668.317	4.56
668.727	4.57
669.137	4.59
669.547	4.59
669.956	4.6
670.366	4.62
670.776	4.62
671.186	4.64
671.595	4.66
672.005	4.68
672.414	4.71
672.824	4.73
673.233	4.75
673.642	4.77
674.052	4.8
674.461	4.82
674.87	4.85
675.279	4.89
675.688	4.92
676.097	4.96
676.506	4.99
676.915	5.02
677.323	5.06
677.732	5.09
678.141	5.12
678.549	5.15
678.958	5.2
679.366	5.24
679.775	5.27
680.183	5.31
680.592	5.36
681	5.4
681.408	5.45
681.816	5.49
682.224	5.55
682.632	5.6
683.04	5.66
683.448	5.73
683.856	5.78
684.264	5.86
684.671	5.95
685.079	6.03
685.487	6.14
685.894	6.26
686.302	6.39
686.709	6.54
687.116	6.72
687.524	6.9
687.931	7.1
688.338	7.33
688.745	7.58
689.152	7.85
689.559	8.14
689.966	8.45
690.373	8.78
690.78	9.15
691.187	9.53
691.593	9.94
692	10.35
692.407	10.77
692.813	11.22
693.22	11.68
693.626	12.16
694.032	12.66
694.439	13.17
694.845	13.69
695.251	14.2
695.657	14.71
696.063	15.23
696.469	15.78
696.875	16.33
697.281	16.88
697.687	17.45
698.093	18.01
698.498	18.55
698.904	19.11
699.31	19.65
699.715	20.2
700.12	20.77
700.526	21.32
700.931	21.86
701.337	22.4
701.742	22.93
702.147	23.45
702.552	23.99
702.957	24.51
703.362	25.03
703.767	25.54
704.172	26.03
704.577	26.52
704.981	27.03
705.386	27.53
705.791	28.04
706.195	28.53
706.6	29.02
707.004	29.47
707.408	29.94
707.813	30.41
708.217	30.88
708.621	31.35
709.025	31.81
709.43	32.24
709.834	32.7
710.237	33.12
710.641	33.55
711.045	33.93
711.449	34.37
711.853	34.79
712.256	35.16
712.66	35.55
713.064	35.95
713.467	36.34
713.87	36.75
714.274	37.09
714.677	37.49
715.08	37.86
715.484	38.27
715.887	38.62
716.29	38.98
716.693	39.35
717.096	39.71
717.499	40.06
717.901	40.4
718.304	40.71
718.707	41.05
719.109	41.36
719.512	41.67
719.915	41.96
720.317	42.25
720.719	42.52
721.122	42.82
721.524	43.1
721.926	43.38
722.328	43.66
722.731	43.91
723.133	44.19
723.535	44.42
723.937	44.64
724.338	44.88
724.74	45.1
725.142	45.37
725.544	45.59
725.945	45.82
726.347	45.97
726.748	46.16
727.15	46.34
727.551	46.51
727.952	46.69
728.354	46.89
728.755	47.06
729.156	47.23
729.557	47.35
729.958	47.49
730.359	47.62
730.76	47.81
731.161	47.94
731.562	48.12
731.962	48.24
732.363	48.38
732.763	48.48
733.164	48.61
733.564	48.73
733.965	48.84
734.365	48.95
734.766	49.07
735.166	49.15
735.566	49.25
735.966	49.33
736.366	49.42
736.766	49.49
737.166	49.59
737.566	49.67
737.966	49.74
738.365	49.83
738.765	49.91
739.165	49.96
739.564	50.03
739.964	50.1
740.363	50.13
740.763	50.19
741.162	50.24
741.561	50.28
741.96	50.31
742.36	50.34
742.759	50.38
743.158	50.42
743.557	50.43
743.955	50.5
744.354	50.54
744.753	50.61
745.152	50.7
745.55	50.74
745.949	50.76
746.348	50.82
746.746	50.85
747.144	50.88
747.543	50.91
747.941	50.97
748.339	50.97
748.737	50.98
749.136	50.98
749.534	50.98
749.932	51.02
750.33	51.06
750.727	51.09
751.125	51.11
751.523	51.12
751.921	51.12
752.318	51.12
752.716	51.14
753.113	51.15
753.511	51.17
753.908	51.2
754.305	51.2
754.703	51.19
755.1	51.19
755.497	51.18
755.894	51.19
756.291	51.2
756.688	51.19
757.085	51.21
757.482	51.2
757.878	51.23
758.275	51.22
758.672	51.22
759.068	51.25
759.465	51.23
759.861	51.25
760.258	51.26
760.654	51.28
761.05	51.28
761.447	51.28
761.843	51.28
762.239	51.27
762.635	51.26
763.031	51.26
763.427	51.23
763.822	51.21
764.218	51.22
764.614	51.21
765.01	51.18
765.405	51.17
765.801	51.16
766.196	51.15
766.592	51.11
766.987	51.12
767.382	51.12
767.778	51.13
768.173	51.16
768.568	51.13
768.963	51.11
769.358	51.14
769.753	51.14
770.148	51.15
770.542	51.15
770.937	51.2
771.332	51.15
771.726	51.15
772.121	51.13
772.515	51.13
772.91	51.16
773.304	51.19
773.699	51.18
774.093	51.18
774.487	51.16
774.881	51.17
775.275	51.14
775.669	51.16
776.063	51.14
776.457	51.14
776.851	51.13
777.245	51.11
777.638	51.07
778.032	51.08
778.425	51.1
778.819	51.11
779.212	51.11
779.606	51.12
779.999	51.11
780.392	51.13
780.786	51.14
781.179	51.15
781.572	51.18
781.965	51.22
782.358	51.23
782.751	51.19
783.143	51.17
783.536	51.14
783.929	51.13
784.322	51.14
784.714	51.14
785.107	51.15
785.499	51.13
785.891	51.11
786.284	51.13
786.676	51.13
787.068	51.13
787.46	51.16
787.852	51.2
788.245	51.2
788.636	51.2
789.028	51.2
789.42	51.2
789.812	51.23
790.204	51.25
790.595	51.23
790.987	51.2
791.378	51.23
791.77	51.2
792.161	51.17
792.553	51.16
792.944	51.14
793.335	51.15
793.726	51.18
794.117	51.12
794.508	51.09
794.899	51.1
795.29	51.11
795.681	51.07
796.072	51.11
796.463	51.13
796.853	51.13
797.244	51.11
797.634	51.08
798.025	51.06
798.415	51.07
798.806	51.04
799.196	51.02
799.586	51.06
799.976	51.07
800.366	51.04
800.756	51.04
801.146	51.05
801.536	51.08
801.926	51.07
802.316	51.05
802.706	51.08
803.095	51.11
803.485	51.13
803.874	51.08
804.264	51.05
804.653	51.07
805.043	51.08
805.432	51.08
805.821	51.07
806.21	51.1
806.599	51.12
806.988	51.11
807.377	51.08
807.766	51.08
808.155	51.05
808.544	51.08
808.933	51.09
809.321	51.06
809.71	51.06
810.098	51.04
810.487	51.01
810.875	50.99
811.264	50.98
811.652	50.99
812.04	50.97
812.428	51
812.816	50.98
813.204	50.95
813.592	50.92
813.98	50.93
814.368	50.93
814.756	50.89
815.144	50.9
815.531	50.92
815.919	50.91
816.306	50.94
816.694	50.91
817.081	50.93
817.469	50.93
817.856	50.93
818.243	50.91
818.63	50.91
819.017	50.97
819.404	50.94
819.791	50.91
820.178	50.92
820.565	50.87
820.952	50.87
821.339	50.85
821.725	50.83
822.112	50.87
822.498	50.87
822.885	50.89
823.271	50.86
823.657	50.87
824.044	50.89
824.43	50.87
824.816	50.91
825.202	50.91
825.588	50.91
825.974	50.9
826.36	50.88
826.746	50.87
827.132	50.84
827.517	50.86
827.903	50.89
828.289	50.88
828.674	50.9
829.06	50.88
829.445	50.88
829.83	50.88
830.216	50.87
830.601	50.87
830.986	50.89
831.371	50.89
831.756	50.9
832.141	50.87
832.526	50.87
832.911	50.87
833.295	50.88
833.68	50.89
834.065	50.92
834.449	50.92
834.834	50.92
835.218	50.94
835.603	50.94
835.987	50.91
836.371	50.92
836.755	50.92
837.139	50.9
837.524	50.91
837.908	50.93
838.291	50.94
838.675	50.95
839.059	50.97
839.443	50.94
839.827	50.92
840.21	50.93
840.594	50.93
840.977	50.92
841.361	50.94
841.744	50.92
842.127	50.9
842.511	50.88
842.894	50.85
843.277	50.84
843.66	50.82
844.043	50.85
844.426	50.85
844.809	50.85
845.191	50.86
845.574	50.85
845.957	50.87
846.339	50.84
846.722	50.85
847.104	50.89
847.487	50.89
847.869	50.89
848.252	50.9
848.634	50.9
849.016	50.93
849.398	50.92
849.78	50.93
850.162	50.92
850.544	50.91
850.926	50.91
851.307	50.9
851.689	50.9
852.071	50.92
852.452	50.92
852.834	50.91
853.215	50.87
853.597	50.89
853.978	50.87
854.359	50.9
854.741	50.89
855.122	50.89
855.503	50.88
855.884	50.87
856.265	50.87
856.646	50.85
857.026	50.86
857.407	50.88
857.788	50.86
858.169	50.9
858.549	50.88
858.93	50.91
859.31	50.9
859.69	50.9
860.071	50.93
860.451	50.93
860.831	50.95
861.211	50.92
861.591	50.91
861.971	50.9
862.351	50.89
862.731	50.89
863.111	50.89
863.491	50.89
863.87	50.87
864.25	50.83
864.629	50.82
865.009	50.8
865.388	50.79
865.768	50.79
866.147	50.79
866.526	50.78
866.905	50.8
867.284	50.8
867.663	50.8
868.042	50.83
868.421	50.86
868.8	50.86
869.179	50.87
869.558	50.88
869.936	50.88
870.315	50.9
870.693	50.9
871.072	50.9
871.45	50.9
871.828	50.93
872.207	50.94
872.585	50.91
872.963	50.9
873.341	50.91
873.719	50.92
874.097	50.9
874.475	50.9
874.853	50.89
875.23	50.9
875.608	50.88
875.986	50.89
876.363	50.87
876.741	50.88
877.118	50.9
877.495	50.92
877.873	50.93
878.25	50.96
878.627	50.97
879.004	50.97
879.381	50.99
879.758	50.98
880.135	50.97
880.512	50.99
880.889	51
881.265	50.97
881.642	50.97
882.019	50.98
882.395	50.95
882.772	50.95
883.148	50.92
883.524	50.9
883.901	50.9
884.277	50.91
884.653	50.87
885.029	50.85
885.405	50.84
885.781	50.83
886.157	50.81
886.532	50.8
886.908	50.8
887.284	50.81
887.659	50.79
888.035	50.77
888.411	50.75
888.786	50.75
889.161	50.77
889.537	50.77
889.912	50.76
890.287	50.78
890.662	50.78
891.037	50.77
891.412	50.74
891.787	50.74
892.162	50.75
892.536	50.74
892.911	50.73
893.286	50.73
893.66	50.73
894.035	50.73
894.409	50.7
894.784	50.72
895.158	50.72
895.532	50.76
895.906	50.76
896.281	50.75
896.655	50.76
897.029	50.8
897.402	50.8
897.776	50.8
898.15	50.82
898.524	50.83
898.898	50.81
899.271	50.84
899.645	50.83
900.018	50.84
900.392	50.86
900.765	50.89
901.138	50.86
901.511	50.84
901.884	50.86
902.258	50.86
902.631	50.87
903.003	50.9
903.376	50.87
903.749	50.87
904.122	50.88
904.495	50.89
904.867	50.88
905.24	50.89
905.612	50.93
905.985	50.91
906.357	50.9
906.729	50.91
907.102	50.9
907.474	50.92
907.846	50.91
908.218	50.87
908.59	50.86
908.962	50.84
909.334	50.85
909.705	50.82
910.077	50.83
910.449	50.82
910.82	50.81
911.192	50.8
911.563	50.79
911.935	50.8
912.306	50.83
912.677	50.85
913.048	50.88
913.419	50.86
913.79	50.88
914.161	50.87
914.532	50.87
914.903	50.87
915.274	50.83
915.645	50.82
916.015	50.86
916.386	50.84
916.756	50.81
917.127	50.82
917.497	50.86
917.868	50.84
918.238	50.86
918.608	50.9
918.978	50.9
919.348	50.95
919.718	50.95
920.088	50.93
920.458	50.94
920.828	50.93
921.198	50.9
921.567	50.87
921.937	50.88
922.306	50.83
922.676	50.8
923.045	50.77
923.415	50.74
923.784	50.73
924.153	50.76
924.522	50.78
924.891	50.78
925.26	50.78
925.629	50.77
925.998	50.78
926.367	50.81
926.736	50.79
927.104	50.81
927.473	50.76
927.842	50.75
928.21	50.73
928.578	50.66
928.947	50.68
929.315	50.63
929.683	50.62
930.051	50.57
930.42	50.56
930.788	50.51
931.156	50.5
931.523	50.51
931.891	50.55
932.259	50.52
932.627	50.53
932.994	50.51
933.362	50.49
933.729	50.49
934.097	50.51
934.464	50.51
934.831	50.55
935.199	50.54
935.566	50.57
935.933	50.56
936.3	50.53
936.667	50.54
937.034	50.56
937.401	50.61
937.767	50.62
938.134	50.62
938.501	50.62
938.867	50.63
939.234	50.62
939.6	50.57
939.967	50.53
940.333	50.54
940.699	50.58
941.065	50.57
941.431	50.61
941.798	50.55
942.163	50.51
942.529	50.52
942.895	50.51
943.261	50.57
943.627	50.54
943.992	50.52
944.358	50.57
944.723	50.5
945.089	50.45
945.454	50.41
945.82	50.42
946.185	50.44
946.55	50.36
946.915	50.35
947.28	50.32
947.645	50.32
948.01	50.33
948.375	50.26
948.74	50.28
949.104	50.32
949.469	50.3
949.834	50.26
950.198	50.24
950.562	50.25
950.927	50.21
951.291	50.15
951.655	50.14
952.02	50.13
952.384	50.08
952.748	50.03
953.112	50
953.476	49.94
953.839	49.88
954.203	49.87
954.567	49.86
954.931	49.82
955.294	49.79
955.658	49.81
956.021	49.76
956.385	49.79
956.748	49.76
957.111	49.71
957.474	49.73
957.837	49.76
958.2	49.77
958.563	49.75
958.926	49.78
959.289	49.79
959.652	49.71
960.015	49.69
960.377	49.7
960.74	49.76
961.102	49.77
961.465	49.8
961.827	49.81
962.189	49.78
962.552	49.73
962.914	49.68
963.276	49.7
963.638	49.72
964	49.74
964.362	49.78
964.724	49.75
965.085	49.71
965.447	49.66
965.809	49.6
966.17	49.6
966.532	49.61
966.893	49.64
967.255	49.67
967.616	49.69
967.977	49.69
968.338	49.6
968.699	49.62
969.061	49.63
969.421	49.71
969.782	49.75
970.143	49.75
970.504	49.73
970.865	49.75
971.225	49.69
971.586	49.68
971.946	49.69
972.307	49.72
972.667	49.65
973.027	49.69
973.388	49.6
973.748	49.61
974.108	49.71
974.468	49.71
974.828	49.73
975.188	49.7
975.548	49.72
975.907	49.71
976.267	49.69
976.627	49.73
976.986	49.65
977.346	49.66
977.705	49.61
978.064	49.53
978.424	49.51
978.783	49.46
979.142	49.48
979.501	49.5
979.86	49.54
980.219	49.5
980.578	49.48
980.937	49.51
981.296	49.48
981.654	49.45
982.013	49.43
982.371	49.42
982.73	49.46
983.088	49.43
983.447	49.33
983.805	49.3
984.163	49.31
984.521	49.27
984.879	49.25
985.237	49.26
985.595	49.39
985.953	49.37
986.311	49.34
986.669	49.31
987.026	49.38
987.384	49.38
987.741	49.38
988.099	49.42
988.456	49.46
988.814	49.54
989.171	49.55
989.528	49.52
989.885	49.54
990.242	49.58
990.599	49.67
990.956	49.64
991.313	49.67
991.67	49.62
992.027	49.71
992.383	49.76
992.74	49.82
993.096	49.82
993.453	49.76
993.809	49.79
994.165	49.84
994.522	49.74
994.878	49.76
995.234	49.73
995.59	49.71
995.946	49.62
996.302	49.54
996.658	49.48
997.013	49.49
997.369	49.5
997.725	49.45
998.08	49.5
998.436	49.53
998.791	49.59
999.147	49.57
999.502	49.59
999.857	49.59
1000.212	49.56
1000.567	49.5
1000.922	49.49
1001.277	49.42
1001.632	49.37
1001.987	49.32
1002.342	49.21
1002.696	49.14
1003.051	49.26
1003.406	49.3
1003.76	49.27
1004.114	49.22
1004.469	49.26
1004.823	49.4
1005.177	49.37
1005.531	49.5
1005.885	49.51
1006.239	49.5
1006.593	49.57
1006.947	49.45
1007.301	49.39
1007.655	49.31
1008.008	49.4
1008.362	49.43
1008.715	49.28
1009.069	49.56
1009.422	49.53
1009.776	49.37
1010.129	49.39
1010.482	49.31
1010.835	49.44
1011.188	49.46
1011.541	49.58
1011.894	49.57
1012.247	49.45
1012.6	49.44
1012.952	49.23
1013.305	49.25
1013.657	49.36
1014.01	49.27
1014.362	49.13
1014.715	49.12
1015.067	49.24
1015.419	49.28
1015.771	49.16
1016.123	49.4
1016.475	49.5
1016.827	49.5
1017.179	49.45
1017.531	49.52
1017.883	49.69
1018.234	49.67
1018.586	49.38
1018.938	49.33
1019.289	49.18
1019.64	49.31
1019.992	49.09
1020.343	49.18
1020.694	49.17
1021.045	49.18
1021.396	49.21
1021.747	49.21
1022.098	49.4
1022.449	49.52
1022.8	49.44
1023.151	49.39
1023.501	49.41
1023.852	49.47
1024.202	49.22
1024.553	49
1024.903	49.03
1025.253	48.96
1025.604	48.92
1025.954	48.77
1026.304	49.01
1026.654	49.14
1027.004	49.29
1027.354	49.42
1027.703	49.35
1028.053	49.24
1028.403	49.57
1028.753	49.27
1029.102	49.26
1029.452	49.34
1029.801	49.54
1030.15	49.46
1030.499	49.35
897.758	565.03
901.051	569.04
904.343	568.3
907.636	578.88
910.928	564.43
914.22	566.47
917.511	562.81
920.803	540.3
924.094	538.04
927.384	524.84
930.675	503.12
933.965	503.24
937.255	476.56
940.544	460.54
943.834	439.45
947.123	436.18
950.411	412.98
953.7	403.66
956.988	387.35
960.276	374.17
963.563	366.03
966.851	358.67
970.138	355.6
973.424	345.71
976.711	346.2
979.997	332.03
983.283	330.36
986.568	323.59
989.853	317.59
993.138	309.21
996.423	298.6
999.708	293.5
1002.992	288.5
1006.275	273.4
1009.559	271.67
1012.842	262.84
1016.125	255.62
1019.408	251.57
1022.69	250.37
1025.972	242.92
1029.254	238.77
1032.536	235.15
1035.817	229.38
1039.098	227.42
1042.379	226.21
1045.659	224.12
1048.939	219.34
1052.219	216.67
1055.498	214.12
1058.778	208.08
1062.057	205.11
1065.335	203.55
1068.614	200.72
1071.892	199.99
1075.17	195.6
1078.447	191.97
1081.724	189.86
1085.001	189.42
1088.278	186.21
1091.554	181.35
1094.83	182.26
1098.106	180.79
1101.382	179.87
1104.657	179.74
1107.932	176.38
1111.206	176.69
1114.481	173.98
1117.755	173.2
1121.029	171.41
1124.302	170.36
1127.575	169.46
1130.848	167.43
1134.121	165.36
1137.393	163.97
1140.665	160.66
1143.937	160.25
1147.208	159.08
1150.48	157.88
1153.75	156.11
1157.021	154.98
1160.291	154.66
1163.561	152.57
1166.831	153.01
1170.101	152.81
1173.37	153.33
1176.639	153.44
1179.907	152.41
1183.176	151.11
1186.444	150.9
1189.711	150.49
1192.979	150.6
1196.246	149.59
1199.513	150.81
1202.78	149.51
1206.046	148.96
1209.312	147.27
1212.578	147.77
1215.843	148.51
1219.108	148.05
1222.373	150.32
1225.638	151.48
1228.902	151.99
1232.166	153.08
1235.43	152.23
1238.693	154.18
1241.956	155.04
1245.219	156.79
1248.482	156.76
1251.744	156.53
1255.006	157.45
1258.268	154.69
1261.529	153.74
1264.79	152.53
1268.051	152
1271.312	151.74
1274.572	150.19
1277.832	149.53
1281.092	147.56
1284.351	146.74
1287.61	147.04
1290.869	144.41
1294.128	143.93
1297.386	143.74
1300.644	143.39
1303.902	142.92
1307.159	142.3
1310.416	141.98
1313.673	141.17
1316.93	142.09
1320.186	141.49
1323.442	141.56
1326.697	143.38
1329.953	143.75
1333.208	143.07
1336.463	143.71
1339.717	144
1342.972	145.84
1346.226	146.45
1349.479	147.22
1352.733	148.05
1355.986	148.96
1359.238	148.81
1362.491	148.18
1365.743	148.83
1368.995	148.59
1372.247	147.9
1375.498	146.8
1378.749	145.86
1382	144.16
1385.251	143.39
1388.501	141.66
1391.751	140.3
1395	139.41
1398.25	138.41
1401.499	135.9
1404.748	135.5
1407.996	133.48
1411.244	133.14
1414.492	131.67
1417.74	129.46
1420.987	127.93
1424.234	126.61
1427.481	125.25
1430.728	124.82
1433.974	124.3
1437.22	122.74
1440.465	122.47
1443.711	121.08
1446.956	119.64
1450.201	118.89
1453.445	118.65
1456.689	118.11
1459.933	116.03
1463.177	115.47
1466.42	113.74
1469.663	111.73
1472.906	111.64
1476.148	108.92
1479.391	108.42
1482.633	108.38
1485.874	107.33
1489.115	106.14
1492.356	105.02
1495.597	105.39
1498.838	104.57
1502.078	104.11
1505.318	104.45
1508.557	104.05
1511.797	104.59
1515.036	103.86
1518.274	104
1521.513	103.24
1524.751	103.09
1527.989	103.87
1531.227	103.95
1534.464	103.67
1537.701	103.53
1540.938	103.15
1544.174	103.06
1547.41	102.91
1550.646	102.66
1553.882	102.68
1557.117	102.36
1560.352	102.61
1563.587	102.27
1566.821	101.96
1570.055	101.53
1573.289	101.21
1576.523	101.8
1579.756	100.99
1582.989	101.17
1586.222	100.8
1589.454	100.76
1592.686	101.55
1595.918	100.84
1599.15	100.45
1602.381	100.9
1605.612	100.96
1608.843	101.17
1612.073	100.84
1615.303	101.56
1618.533	101.61
1621.762	102.48
1624.992	102.48
1628.221	102.09
1631.449	102
1634.678	102
1637.906	102.01
1641.134	102.27
1644.361	102.4
1647.588	103.02
1650.815	102.9
1654.042	102.87
1657.269	103.02
1660.495	103.05
1663.72	103.1
1666.946	103.69
1670.171	104.19
1673.396	104.53
1676.621	104.51
1679.845	104.45
1683.069	104.71
1686.293	105.26
1689.517	105.32
1692.74	105.43
1695.963	105.6
1699.185	105.88
1702.408	106.14
1705.63	106.6
1708.852	106.55
1712.073	106.69
1715.294	107.01
1718.515	106.81
1721.736	106.7
1724.956	106.49
1728.176	106.75
1731.396	106.97
1734.616	106.94
1737.835	107.18
1741.054	106.26
1744.272	106.19
1747.491	107
1750.709	107.05
1753.927	106.78
1757.144	106.41
1760.361	106.91
1763.578	107.09
1766.795	106.74
1770.011	107.68
1773.227	107.15
1776.443	108
1779.658	108.3
1782.874	107.83
1786.089	107.83
1789.303	108.26
1792.518	108.93
1795.732	109.05
1798.945	109.79
1802.159	110.13
1805.372	109.74
1808.585	111.75
1811.797	112.02
1815.01	112.11
1818.222	112.99
1821.434	113.94
1824.645	113.86
1827.856	116.28
1831.067	116.45
1834.278	116.35
1837.488	116.92
1840.698	117.45
1843.908	116.28
1847.117	116.42
1850.326	116.97
1853.535	115.71
1856.744	116.67
1859.952	116.08
1863.16	113.99
1866.368	113.01
1869.575	112.42
1872.782	109.7
1875.989	108.24
1879.196	107.48
1882.402	105.68
1885.608	105.31
1888.814	104.67
1892.019	102.12
1895.224	101.37
1898.429	101.27
1901.634	100.68
1904.838	100.65
1908.042	101.66
1911.246	101.2
1914.449	101.5
1917.652	101.83
1920.855	100.94
1924.058	101.16
1927.26	101.61
1930.462	101.14
1933.664	101.43
1936.865	101.96
1940.066	100.96
1943.267	100.47
1946.467	100.77
1949.668	101.05
1952.868	101.89
1956.067	102.65
1959.267	102.92
1962.466	103.24
1965.665	103.22
1968.863	103.8
1972.061	104.36
1975.259	105.01
1978.457	105.74
1981.654	107.12
1984.852	107.2
1988.048	107.22
1991.245	108.25
1994.441	108.93
1997.637	110.22
2000.833	113.3
2004.028	113.91
2007.223	115.15
2010.418	116.3
2013.613	119.09
2016.807	120.51
2020.001	122.02
2023.194	124
2026.388	126.95
2029.581	129.4
2032.774	130.48
2035.966	132.17
2039.158	133.66
2042.35	136.36
2045.542	137.7
2048.733	138.98
2051.924	140.69
2055.115	143.04
2058.306	143.5
2061.496	144.35
2064.686	144.63
2067.875	146.78
2071.065	148.15
2074.254	146.55
2077.442	148.31
2080.631	148.93
2083.819	150.91
2087.007	151.76
2090.195	153.7
2093.382	156.15
2096.569	155.88
2099.756	158.96
2102.942	159.98
2106.128	160.35
2109.314	165.08
2112.5	164.6
2115.685	168.47
2118.87	168.83
2122.055	171.89
2125.239	173.29
2128.424	173.62
2131.608	175.43
2134.791	178.51
2137.974	179.04
2141.157	179.42
2144.34	180.25
2147.523	181.49
2150.705	180.53
2153.887	182.92
2157.068	183.38
2160.25	181.43
2163.431	183.26
2166.611	184.37
2169.792	187.73
2172.972	188.65
2176.152	190.8
2179.331	192.4
2182.511	195.94
2185.69	198.54
2188.868	200.92
2192.047	201.81
2195.225	208.12
2198.403	210.99
2201.58	216.65
2204.758	218.16
2207.935	223.13
2211.111	227.78
2214.288	230.16
2217.464	230.89
2220.64	233.6
2223.815	237.02
2226.991	245.11
2230.166	244.11
2233.34	248.2
2236.515	250.73
2239.689	252.17
2242.863	254.94
2246.036	259.42
2249.209	258.74
2252.382	263.69
2255.555	271.92
2258.727	272.72
2261.9	275.27
2265.071	279.35
2268.243	283.01
2271.414	286.72
2274.585	293.08
2277.756	293.89
2280.926	297.72
2284.096	303.8
2287.266	309.81
2290.436	311.1
2293.605	317.61
2296.774	324.78
2299.942	333.13
2303.111	338.4
2306.279	343.91
2309.447	347.29
2312.614	359.63
2315.781	368.94
2318.948	386.37
2322.115	381.39
2325.281	402.8
2328.447	395.16
2331.613	410.26
2334.779	408.21
2337.944	421.06
2341.109	424.5
2344.274	439.8
2347.438	450.83
2350.602	449.39
2353.766	463.5
2356.929	471.02
2360.092	463.8
2363.255	498.32
2366.418	500.95
2369.58	506.33
2372.742	538.34
2375.904	552.94
2379.066	548.21
2382.227	538.81
2385.388	584.16
2388.548	583.49
2391.709	589.37
2394.869	658.22
2398.029	627.92
2401.188	643.04
2404.347	642.73
2407.506	634.87
2410.665	650.23
2413.823	688.07
2416.981	730.17
2420.139	702.4
2423.296	695.66
2426.453	726.65
2429.61	696.73
2432.767	728.66
2435.923	719.05
2439.079	790.67
2442.235	803.37
2445.391	798.54
2448.546	787.3
2451.701	767.87
2454.855	770.88
2458.009	815.54
2461.163	847.56
2464.317	880.9
2467.471	903.95
2470.624	909.49
2473.777	884.24
2476.929	855.34
2480.082	830.46
2483.234	827.57
2486.385	860.67
2489.537	867.23
2492.688	898.71
2495.839	873.84
2498.989	859.58
2502.14	858.92
2505.29	860.23
2508.439	869.34
2511.589	872.38
2514.738	948.16
2517.887	925.5
2521.035	982.12
2524.183	992.18
2527.331	999.61
2530.479	995.62
2533.627	999.06
