Data from N_1_DIV_PA_2n_Splice17_12-34-24-666.txt Node
Date: Sat Mar 07 12:34:24 EST 2020
User: sa697716
Spectrometer: NQ5500242
Trigger mode: 0
Integration Time (sec): 1.450000E-1
Scans to average: 20
Nonlinearity correction enabled: false
Boxcar width: 5
Storing dark spectrum: false
XAxis mode: Wavelengths
Number of Pixels in Spectrum: 512
>>>>>Begin Spectral Data<<<<<
187.83	157.01
188.298	186.57
188.766	149.03
189.233	127.72
189.701	149.08
190.169	165.91
190.636	174.01
191.104	272.06
191.571	326.45
192.039	311.89
192.506	277.12
192.974	135.57
193.441	248.21
193.908	76.61
194.375	70.11
194.842	112.12
195.31	154.4
195.777	212.23
196.244	34.82
196.711	27.14
197.177	29.19
197.644	28.67
198.111	27.8
198.578	28.5
199.045	28.94
199.511	28.99
199.978	28.66
200.445	28.85
200.911	28.48
201.378	28.75
201.844	29
202.31	28.68
202.777	28.67
203.243	29.01
203.709	28.74
204.176	28.44
204.642	28.32
205.108	28.5
205.574	28.19
206.04	28.27
206.506	27.74
206.972	27.88
207.438	27.79
207.903	27.72
208.369	27.21
208.835	26.88
209.301	26.49
209.766	25.73
210.232	24.99
210.697	24.6
211.163	24.25
211.628	24
212.094	23.55
212.559	23.24
213.024	22.73
213.49	22.49
213.955	22.13
214.42	21.72
214.885	21.52
215.35	21.31
215.815	20.71
216.28	19.82
216.745	18.95
217.21	18.11
217.675	17.35
218.14	16.68
218.604	16.06
219.069	15.56
219.534	15.18
219.998	14.83
220.463	14.52
220.927	14.2
221.392	13.98
221.856	13.76
222.32	13.56
222.785	13.38
223.249	13.21
223.713	13.04
224.177	12.93
224.642	12.77
225.106	12.62
225.57	12.46
226.034	12.34
226.497	12.21
226.961	12.08
227.425	11.95
227.889	11.81
228.353	11.7
228.816	11.57
229.28	11.42
229.744	11.32
230.207	11.21
230.671	11.09
231.134	10.97
231.597	10.87
232.061	10.78
232.524	10.67
232.987	10.58
233.45	10.49
233.914	10.39
234.377	10.3
234.84	10.2
235.303	10.11
235.766	10.03
236.229	9.94
236.691	9.85
237.154	9.75
237.617	9.68
238.08	9.59
238.542	9.49
239.005	9.41
239.468	9.33
239.93	9.25
240.393	9.17
240.855	9.08
241.317	9.01
241.78	8.94
242.242	8.87
242.704	8.8
243.166	8.72
243.629	8.67
244.091	8.6
244.553	8.53
245.015	8.45
245.477	8.38
245.939	8.33
246.4	8.26
246.862	8.2
247.324	8.15
247.786	8.09
248.247	8.03
248.709	7.96
249.17	7.89
249.632	7.85
250.093	7.81
250.555	7.76
251.016	7.71
251.477	7.66
251.939	7.62
252.4	7.57
252.861	7.53
253.322	7.49
253.783	7.45
254.244	7.42
254.705	7.37
255.166	7.34
255.627	7.3
256.088	7.25
256.549	7.22
257.009	7.17
257.47	7.14
257.931	7.09
258.391	7.05
258.852	7.01
259.312	6.98
259.773	6.94
260.233	6.91
260.694	6.87
261.154	6.84
261.614	6.81
262.074	6.77
262.534	6.74
262.994	6.73
263.455	6.7
263.915	6.68
264.374	6.66
264.834	6.65
265.294	6.62
265.754	6.61
266.214	6.59
266.673	6.57
267.133	6.56
267.593	6.54
268.052	6.52
268.512	6.51
268.971	6.49
269.431	6.47
269.89	6.45
270.349	6.44
270.809	6.42
271.268	6.4
271.727	6.38
272.186	6.36
272.645	6.36
273.104	6.34
273.563	6.32
274.022	6.31
274.481	6.29
274.94	6.28
275.399	6.26
275.857	6.25
276.316	6.22
276.775	6.21
277.233	6.19
277.692	6.16
278.15	6.15
278.609	6.13
279.067	6.11
279.525	6.09
279.984	6.06
280.442	6.04
280.9	6.02
281.358	6
281.816	5.99
282.274	5.96
282.732	5.94
283.19	5.92
283.648	5.89
284.106	5.86
284.564	5.84
285.021	5.83
285.479	5.8
285.937	5.78
286.394	5.76
286.852	5.73
287.309	5.71
287.767	5.69
288.224	5.67
288.682	5.65
289.139	5.62
289.596	5.6
290.053	5.58
290.511	5.56
290.968	5.54
291.425	5.52
291.882	5.51
292.339	5.48
292.796	5.47
293.252	5.45
293.709	5.43
294.166	5.42
294.623	5.41
295.079	5.39
295.536	5.38
295.992	5.36
296.449	5.35
296.905	5.34
297.362	5.33
297.818	5.31
298.274	5.3
298.731	5.29
299.187	5.27
299.643	5.26
300.099	5.24
300.555	5.22
301.011	5.2
301.467	5.19
301.923	5.17
302.379	5.16
302.835	5.14
303.291	5.12
303.746	5.11
304.202	5.1
304.658	5.09
305.113	5.08
305.569	5.06
306.024	5.05
306.479	5.03
306.935	5.02
307.39	5.01
307.845	4.99
308.301	4.98
308.756	4.96
309.211	4.95
309.666	4.95
310.121	4.94
310.576	4.93
311.031	4.92
311.486	4.91
311.94	4.91
312.395	4.91
312.85	4.9
313.305	4.9
313.759	4.89
314.214	4.88
314.668	4.86
315.123	4.85
315.577	4.84
316.032	4.83
316.486	4.81
316.94	4.8
317.394	4.78
317.849	4.76
318.303	4.74
318.757	4.72
319.211	4.71
319.665	4.7
320.119	4.69
320.572	4.67
321.026	4.67
321.48	4.65
321.934	4.63
322.387	4.63
322.841	4.62
323.295	4.62
323.748	4.61
324.202	4.61
324.655	4.59
325.108	4.58
325.562	4.57
326.015	4.56
326.468	4.55
326.921	4.55
327.374	4.54
327.827	4.53
328.28	4.51
328.733	4.5
329.186	4.49
329.639	4.48
330.092	4.48
330.545	4.48
330.997	4.47
331.45	4.47
331.903	4.47
332.355	4.47
332.808	4.47
333.26	4.47
333.713	4.46
334.165	4.45
334.617	4.45
335.069	4.44
335.522	4.43
335.974	4.42
336.426	4.41
336.878	4.4
337.33	4.37
337.782	4.36
338.234	4.36
338.686	4.36
339.137	4.36
339.589	4.34
340.041	4.34
340.493	4.33
340.944	4.31
341.396	4.29
341.847	4.29
342.299	4.27
342.75	4.26
343.201	4.25
343.653	4.24
344.104	4.22
344.555	4.21
345.006	4.18
345.457	4.17
345.908	4.17
346.359	4.16
346.81	4.15
347.261	4.14
347.712	4.12
348.163	4.1
348.613	4.11
349.064	4.1
349.515	4.1
349.965	4.09
350.416	4.07
350.866	4.07
351.317	4.07
351.767	4.06
352.217	4.05
352.668	4.05
353.118	4.05
353.568	4.05
354.018	4.04
354.468	4.04
354.918	4.04
355.368	4.05
355.818	4.05
356.268	4.04
356.718	4.04
357.168	4.03
357.617	4.02
358.067	4.01
358.517	4.01
358.966	4.01
359.416	4
359.865	3.99
360.315	3.99
360.764	3.99
361.213	3.98
361.663	3.97
362.112	3.98
362.561	3.99
363.01	3.99
363.459	3.97
363.908	3.95
364.357	3.96
364.806	3.95
365.255	3.94
365.703	3.95
366.152	3.95
366.601	3.96
367.05	3.95
367.498	3.94
367.947	3.94
368.395	3.95
368.844	3.96
369.292	3.95
369.74	3.95
370.189	3.94
370.637	3.94
371.085	3.94
371.533	3.93
371.981	3.93
372.429	3.94
372.877	3.93
373.325	3.94
373.773	3.93
374.221	3.93
374.669	3.94
375.116	3.94
375.564	3.94
376.012	3.93
376.459	3.94
376.907	3.95
377.354	3.95
377.801	3.96
378.249	3.96
378.696	3.97
379.143	3.98
379.591	3.99
380.038	4.01
380.485	4.02
380.932	4.03
381.379	4.05
381.826	4.06
382.273	4.07
382.72	4.07
383.166	4.09
383.613	4.1
384.06	4.11
384.506	4.11
384.953	4.12
385.4	4.14
385.846	4.17
386.292	4.18
386.739	4.19
387.185	4.2
387.631	4.22
388.078	4.23
388.524	4.25
388.97	4.28
389.416	4.3
389.862	4.31
390.308	4.33
390.754	4.35
391.2	4.37
391.645	4.4
392.091	4.44
392.537	4.47
392.983	4.49
393.428	4.5
393.874	4.52
394.319	4.55
394.765	4.57
395.21	4.59
395.655	4.6
396.101	4.62
396.546	4.64
396.991	4.66
397.436	4.68
397.881	4.71
398.326	4.75
398.771	4.77
399.216	4.78
399.661	4.79
400.106	4.82
400.551	4.83
400.995	4.83
401.44	4.84
401.885	4.84
402.329	4.84
402.774	4.83
403.218	4.84
403.663	4.85
404.107	4.85
404.551	4.85
404.995	4.84
405.44	4.83
405.884	4.84
406.328	4.84
406.772	4.85
407.216	4.84
407.66	4.85
408.104	4.83
408.547	4.82
408.991	4.82
409.435	4.82
409.879	4.82
410.322	4.83
410.766	4.83
411.209	4.83
411.653	4.82
412.096	4.82
412.54	4.82
412.983	4.82
413.426	4.84
413.869	4.85
414.312	4.85
414.756	4.86
415.199	4.86
415.642	4.85
416.085	4.86
416.527	4.85
416.97	4.83
417.413	4.84
417.856	4.83
418.298	4.81
418.741	4.8
419.184	4.79
419.626	4.78
420.069	4.78
420.511	4.78
420.953	4.77
421.396	4.77
421.838	4.78
422.28	4.77
422.722	4.78
423.164	4.76
423.606	4.76
424.048	4.75
424.49	4.75
424.932	4.74
425.374	4.72
425.816	4.7
426.258	4.68
426.699	4.67
427.141	4.65
427.582	4.65
428.024	4.66
428.465	4.66
428.907	4.65
429.348	4.63
429.789	4.62
430.231	4.63
430.672	4.64
431.113	4.65
431.554	4.65
431.995	4.66
432.436	4.65
432.877	4.66
433.318	4.66
433.759	4.68
434.2	4.69
434.64	4.7
435.081	4.7
435.522	4.71
435.962	4.73
436.403	4.75
436.843	4.76
437.284	4.76
437.724	4.77
438.164	4.76
438.604	4.76
439.045	4.76
439.485	4.75
439.925	4.75
440.365	4.75
440.805	4.75
441.245	4.76
441.685	4.77
442.125	4.79
442.564	4.81
443.004	4.82
443.444	4.84
443.883	4.86
444.323	4.88
444.762	4.91
445.202	4.92
445.641	4.94
446.081	4.95
446.52	4.96
446.959	4.99
447.398	5
447.837	5.02
448.276	5.03
448.716	5.06
449.154	5.09
449.593	5.09
450.032	5.1
450.471	5.1
450.91	5.11
451.349	5.11
451.787	5.1
452.226	5.09
452.664	5.08
453.103	5.08
453.541	5.08
453.98	5.08
454.418	5.08
454.856	5.09
455.295	5.08
455.733	5.06
456.171	5.08
456.609	5.07
457.047	5.08
457.485	5.09
457.923	5.08
458.361	5.07
458.798	5.06
459.236	5.06
459.674	5.05
460.111	5.05
460.549	5.06
460.987	5.05
461.424	5.07
461.862	5.08
462.299	5.08
462.736	5.08
463.173	5.09
463.611	5.08
464.048	5.09
464.485	5.09
464.922	5.1
465.359	5.11
465.796	5.12
466.233	5.11
466.67	5.1
467.106	5.1
467.543	5.11
467.98	5.1
468.416	5.11
468.853	5.1
469.29	5.11
469.726	5.1
470.162	5.1
470.599	5.09
471.035	5.08
471.471	5.08
471.907	5.07
472.344	5.08
472.78	5.09
473.216	5.09
473.652	5.1
474.088	5.09
474.523	5.09
474.959	5.08
475.395	5.07
475.831	5.07
476.266	5.06
476.702	5.06
477.138	5.05
477.573	5.04
478.008	5.04
478.444	5.02
478.879	5.03
479.314	5.03
479.75	5.02
480.185	5.01
480.62	5.01
481.055	5
481.49	5
481.925	5
482.36	5
482.795	5
483.229	5.01
483.664	5.02
484.099	5.01
484.534	5.02
484.968	5.03
485.403	5.04
485.837	5.06
486.271	5.08
486.706	5.09
487.14	5.09
487.574	5.1
488.009	5.12
488.443	5.14
488.877	5.17
489.311	5.19
489.745	5.22
490.179	5.25
490.613	5.29
491.046	5.32
491.48	5.36
491.914	5.4
492.348	5.44
492.781	5.49
493.215	5.54
493.648	5.6
494.082	5.65
494.515	5.7
494.948	5.76
495.382	5.81
495.815	5.89
496.248	5.97
496.681	6.05
497.114	6.13
497.547	6.21
497.98	6.3
498.413	6.39
498.846	6.48
499.279	6.58
499.711	6.69
500.144	6.82
500.577	6.93
501.009	7.04
501.442	7.17
501.874	7.31
502.306	7.44
502.739	7.59
503.171	7.74
503.603	7.9
504.036	8.06
504.468	8.22
504.9	8.38
505.332	8.56
505.764	8.73
506.196	8.92
506.627	9.11
507.059	9.3
507.491	9.49
507.923	9.69
508.354	9.91
508.786	10.14
509.217	10.37
509.649	10.62
510.08	10.85
510.512	11.09
510.943	11.32
511.374	11.57
511.805	11.82
512.237	12.08
512.668	12.33
513.099	12.58
513.53	12.84
513.961	13.11
514.391	13.37
514.822	13.66
515.253	13.93
515.684	14.2
516.114	14.48
516.545	14.76
516.975	15.04
517.406	15.32
517.836	15.6
518.267	15.89
518.697	16.15
519.127	16.42
519.558	16.68
519.988	16.95
520.418	17.21
520.848	17.46
521.278	17.71
521.708	17.98
522.138	18.22
522.567	18.45
522.997	18.66
523.427	18.9
523.857	19.11
524.286	19.31
524.716	19.51
525.145	19.71
525.575	19.92
526.004	20.12
526.433	20.27
526.863	20.44
527.292	20.61
527.721	20.77
528.15	20.93
528.579	21.08
529.008	21.24
529.437	21.37
529.866	21.49
530.295	21.61
530.724	21.72
531.152	21.83
531.581	21.93
532.01	22.02
532.438	22.11
532.867	22.19
533.295	22.27
533.723	22.34
534.152	22.42
534.58	22.49
535.008	22.55
535.436	22.61
535.865	22.65
536.293	22.71
536.721	22.77
537.149	22.82
537.576	22.87
538.004	22.92
538.432	22.96
538.86	23.01
539.287	23.04
539.715	23.1
540.143	23.14
540.57	23.19
540.998	23.22
541.425	23.26
541.852	23.29
542.28	23.32
542.707	23.34
543.134	23.37
543.561	23.4
543.988	23.44
544.415	23.46
544.842	23.46
545.269	23.48
545.696	23.52
546.123	23.54
546.549	23.56
546.976	23.58
547.403	23.6
547.829	23.62
548.256	23.62
548.682	23.62
549.108	23.64
549.535	23.67
549.961	23.66
550.387	23.66
550.813	23.65
551.24	23.64
551.666	23.64
552.092	23.63
552.518	23.62
552.943	23.6
553.369	23.57
553.795	23.52
554.221	23.49
554.646	23.46
555.072	23.43
555.498	23.38
555.923	23.32
556.349	23.26
556.774	23.2
557.199	23.14
557.625	23.08
558.05	23.03
558.475	22.96
558.9	22.89
559.325	22.83
559.75	22.74
560.175	22.66
560.6	22.58
561.025	22.5
561.449	22.4
561.874	22.3
562.299	22.19
562.723	22.07
563.148	21.95
563.572	21.82
563.997	21.68
564.421	21.56
564.846	21.43
565.27	21.3
565.694	21.18
566.118	21.04
566.542	20.9
566.966	20.77
567.39	20.64
567.814	20.51
568.238	20.37
568.662	20.25
569.086	20.12
569.509	19.99
569.933	19.86
570.357	19.73
570.78	19.6
571.204	19.47
571.627	19.34
572.05	19.21
572.474	19.1
572.897	18.99
573.32	18.85
573.743	18.72
574.166	18.61
574.589	18.49
575.012	18.37
575.435	18.25
575.858	18.14
576.281	18.03
576.704	17.91
577.126	17.8
577.549	17.7
577.972	17.61
578.394	17.51
578.817	17.42
579.239	17.33
579.661	17.23
580.084	17.17
580.506	17.09
580.928	17.01
581.35	16.94
581.772	16.86
582.194	16.79
582.616	16.71
583.038	16.64
583.46	16.57
583.882	16.5
584.303	16.44
584.725	16.36
585.147	16.3
585.568	16.24
585.99	16.18
586.411	16.11
586.833	16.06
587.254	16.01
587.675	15.96
588.096	15.9
588.518	15.86
588.939	15.81
589.36	15.77
589.781	15.73
590.202	15.7
590.623	15.67
591.043	15.63
591.464	15.6
591.885	15.56
592.305	15.52
592.726	15.5
593.147	15.47
593.567	15.43
593.987	15.39
594.408	15.36
594.828	15.32
595.248	15.3
595.669	15.27
596.089	15.23
596.509	15.19
596.929	15.16
597.349	15.11
597.769	15.08
598.189	15.06
598.608	15.02
599.028	14.97
599.448	14.93
599.867	14.89
600.287	14.85
600.706	14.81
601.126	14.77
601.545	14.73
601.965	14.68
602.384	14.63
602.803	14.57
603.222	14.52
603.641	14.47
604.061	14.42
604.48	14.35
604.898	14.27
605.317	14.21
605.736	14.15
606.155	14.08
606.574	14.01
606.992	13.92
607.411	13.85
607.829	13.75
608.248	13.67
608.666	13.58
609.085	13.51
609.503	13.44
609.921	13.37
610.339	13.28
610.758	13.21
611.176	13.13
611.594	13.06
612.012	12.97
612.43	12.91
612.847	12.83
613.265	12.76
613.683	12.68
614.101	12.61
614.518	12.53
614.936	12.46
615.353	12.39
615.771	12.33
616.188	12.26
616.606	12.2
617.023	12.14
617.44	12.1
617.857	12.05
618.274	12
618.691	11.95
619.108	11.9
619.525	11.85
619.942	11.81
620.359	11.77
620.776	11.74
621.192	11.72
621.609	11.69
622.026	11.65
622.442	11.63
622.859	11.61
623.275	11.6
623.691	11.57
624.108	11.56
624.524	11.55
624.94	11.55
625.356	11.53
625.772	11.52
626.188	11.52
626.604	11.51
627.02	11.5
627.436	11.49
627.852	11.48
628.268	11.48
628.683	11.48
629.099	11.47
629.514	11.46
629.93	11.45
630.345	11.43
630.761	11.41
631.176	11.38
631.591	11.35
632.007	11.32
632.422	11.28
632.837	11.23
633.252	11.18
633.667	11.12
634.082	11.07
634.497	11.01
634.911	10.93
635.326	10.87
635.741	10.81
636.155	10.73
636.57	10.65
636.984	10.57
637.399	10.48
637.813	10.38
638.228	10.27
638.642	10.16
639.056	10.05
639.47	9.95
639.884	9.83
640.298	9.7
640.712	9.58
641.126	9.46
641.54	9.33
641.954	9.2
642.368	9.1
642.781	8.99
643.195	8.87
643.609	8.76
644.022	8.65
644.436	8.55
644.849	8.42
645.262	8.32
645.676	8.23
646.089	8.14
646.502	8.06
646.915	7.98
647.328	7.91
647.741	7.83
648.154	7.75
648.567	7.69
648.98	7.62
649.393	7.58
649.805	7.53
650.218	7.48
650.631	7.43
651.043	7.37
651.456	7.32
651.868	7.26
652.28	7.21
652.693	7.16
653.105	7.12
653.517	7.06
653.929	7
654.341	6.92
654.753	6.85
655.165	6.79
655.577	6.71
655.989	6.64
656.401	6.57
656.813	6.48
657.224	6.38
657.636	6.3
658.047	6.22
658.459	6.14
658.87	6.05
659.282	5.96
659.693	5.87
660.104	5.77
660.515	5.68
660.926	5.59
661.338	5.51
661.749	5.43
662.159	5.34
662.57	5.25
662.981	5.17
663.392	5.1
663.803	5.04
664.213	4.97
664.624	4.91
665.035	4.85
665.445	4.79
665.855	4.74
666.266	4.7
666.676	4.67
667.086	4.64
667.497	4.6
667.907	4.57
668.317	4.54
668.727	4.52
669.137	4.49
669.547	4.48
669.956	4.47
670.366	4.45
670.776	4.44
671.186	4.43
671.595	4.41
672.005	4.4
672.414	4.4
672.824	4.4
673.233	4.41
673.642	4.41
674.052	4.4
674.461	4.41
674.87	4.42
675.279	4.44
675.688	4.46
676.097	4.49
676.506	4.51
676.915	4.52
677.323	4.55
677.732	4.57
678.141	4.61
678.549	4.65
678.958	4.7
679.366	4.75
679.775	4.8
680.183	4.86
680.592	4.94
681	5.03
681.408	5.12
681.816	5.23
682.224	5.37
682.632	5.49
683.04	5.64
683.448	5.81
683.856	5.99
684.264	6.18
684.671	6.39
685.079	6.61
685.487	6.89
685.894	7.19
686.302	7.49
686.709	7.81
687.116	8.18
687.524	8.55
687.931	8.96
688.338	9.39
688.745	9.85
689.152	10.31
689.559	10.8
689.966	11.29
690.373	11.8
690.78	12.33
691.187	12.87
691.593	13.4
692	13.96
692.407	14.5
692.813	15.04
693.22	15.59
693.626	16.15
694.032	16.72
694.439	17.26
694.845	17.82
695.251	18.37
695.657	18.91
696.063	19.45
696.469	19.98
696.875	20.51
697.281	21.03
697.687	21.54
698.093	22.04
698.498	22.52
698.904	23.01
699.31	23.46
699.715	23.93
700.12	24.38
700.526	24.82
700.931	25.26
701.337	25.68
701.742	26.08
702.147	26.49
702.552	26.9
702.957	27.27
703.362	27.64
703.767	28.01
704.172	28.35
704.577	28.7
704.981	29.04
705.386	29.36
705.791	29.71
706.195	30.04
706.6	30.37
707.004	30.66
707.408	30.97
707.813	31.27
708.217	31.55
708.621	31.85
709.025	32.12
709.43	32.38
709.834	32.65
710.237	32.89
710.641	33.15
711.045	33.39
711.449	33.66
711.853	33.91
712.256	34.13
712.66	34.35
713.064	34.57
713.467	34.8
713.87	35.04
714.274	35.24
714.677	35.47
715.08	35.65
715.484	35.88
715.887	36.08
716.29	36.25
716.693	36.46
717.096	36.66
717.499	36.86
717.901	37.04
718.304	37.21
718.707	37.39
719.109	37.56
719.512	37.74
719.915	37.88
720.317	38.02
720.719	38.16
721.122	38.31
721.524	38.45
721.926	38.56
722.328	38.7
722.731	38.8
723.133	38.93
723.535	39.06
723.937	39.17
724.338	39.3
724.74	39.41
725.142	39.56
725.544	39.66
725.945	39.77
726.347	39.86
726.748	39.93
727.15	40.01
727.551	40.1
727.952	40.16
728.354	40.26
728.755	40.31
729.156	40.36
729.557	40.39
729.958	40.45
730.359	40.51
730.76	40.6
731.161	40.67
731.562	40.76
731.962	40.82
732.363	40.89
732.763	40.93
733.164	41
733.564	41.07
733.965	41.12
734.365	41.18
734.766	41.23
735.166	41.27
735.566	41.32
735.966	41.36
736.366	41.37
736.766	41.39
737.166	41.43
737.566	41.46
737.966	41.48
738.365	41.51
738.765	41.54
739.165	41.57
739.564	41.6
739.964	41.62
740.363	41.63
740.763	41.67
741.162	41.7
741.561	41.71
741.96	41.75
742.36	41.78
742.759	41.81
743.158	41.8
743.557	41.8
743.955	41.83
744.354	41.82
744.753	41.86
745.152	41.89
745.55	41.9
745.949	41.93
746.348	41.93
746.746	41.94
747.144	41.94
747.543	41.98
747.941	42.01
748.339	42
748.737	42.01
749.136	42.01
749.534	41.98
749.932	41.98
750.33	41.98
750.727	41.97
751.125	41.98
751.523	42
751.921	41.99
752.318	42
752.716	42.02
753.113	42.03
753.511	42.03
753.908	42.06
754.305	42.05
754.703	42.06
755.1	42.06
755.497	42.07
755.894	42.04
756.291	42.03
756.688	42.02
757.085	42.01
757.482	42.03
757.878	42.02
758.275	42
758.672	42
759.068	42.01
759.465	41.99
759.861	41.97
760.258	41.98
760.654	42
761.05	41.99
761.447	41.99
761.843	41.96
762.239	41.97
762.635	41.96
763.031	41.95
763.427	41.92
763.822	41.94
764.218	41.95
764.614	41.96
765.01	41.94
765.405	41.94
765.801	41.9
766.196	41.92
766.592	41.9
766.987	41.91
767.382	41.91
767.778	41.89
768.173	41.88
768.568	41.87
768.963	41.86
769.358	41.88
769.753	41.87
770.148	41.9
770.542	41.88
770.937	41.89
771.332	41.91
771.726	41.91
772.121	41.91
772.515	41.9
772.91	41.89
773.304	41.9
773.699	41.88
774.093	41.88
774.487	41.87
774.881	41.88
775.275	41.87
775.669	41.83
776.063	41.82
776.457	41.85
776.851	41.84
777.245	41.82
777.638	41.81
778.032	41.81
778.425	41.83
778.819	41.82
779.212	41.81
779.606	41.81
779.999	41.82
780.392	41.84
780.786	41.82
781.179	41.83
781.572	41.87
781.965	41.88
782.358	41.9
782.751	41.87
783.143	41.87
783.536	41.88
783.929	41.87
784.322	41.9
784.714	41.89
785.107	41.93
785.499	41.9
785.891	41.9
786.284	41.9
786.676	41.87
787.068	41.86
787.46	41.87
787.852	41.87
788.245	41.87
788.636	41.85
789.028	41.86
789.42	41.81
789.812	41.83
790.204	41.81
790.595	41.82
790.987	41.81
791.378	41.83
791.77	41.83
792.161	41.83
792.553	41.82
792.944	41.81
793.335	41.79
793.726	41.79
794.117	41.76
794.508	41.74
794.899	41.72
795.29	41.75
795.681	41.7
796.072	41.69
796.463	41.67
796.853	41.67
797.244	41.67
797.634	41.66
798.025	41.68
798.415	41.67
798.806	41.67
799.196	41.66
799.586	41.66
799.976	41.69
800.366	41.7
800.756	41.68
801.146	41.69
801.536	41.71
801.926	41.7
802.316	41.69
802.706	41.71
803.095	41.73
803.485	41.7
803.874	41.67
804.264	41.63
804.653	41.65
805.043	41.67
805.432	41.64
805.821	41.64
806.21	41.65
806.599	41.65
806.988	41.64
807.377	41.63
807.766	41.65
808.155	41.64
808.544	41.67
808.933	41.66
809.321	41.65
809.71	41.64
810.098	41.64
810.487	41.64
810.875	41.61
811.264	41.59
811.652	41.59
812.04	41.59
812.428	41.61
812.816	41.6
813.204	41.57
813.592	41.57
813.98	41.59
814.368	41.58
814.756	41.56
815.144	41.55
815.531	41.55
815.919	41.55
816.306	41.58
816.694	41.57
817.081	41.58
817.469	41.59
817.856	41.6
818.243	41.57
818.63	41.56
819.017	41.6
819.404	41.6
819.791	41.6
820.178	41.58
820.565	41.55
820.952	41.52
821.339	41.49
821.725	41.49
822.112	41.49
822.498	41.52
822.885	41.53
823.271	41.5
823.657	41.49
824.044	41.51
824.43	41.53
824.816	41.52
825.202	41.53
825.588	41.54
825.974	41.53
826.36	41.54
826.746	41.53
827.132	41.52
827.517	41.52
827.903	41.56
828.289	41.56
828.674	41.56
829.06	41.57
829.445	41.59
829.83	41.59
830.216	41.58
830.601	41.57
830.986	41.56
831.371	41.56
831.756	41.58
832.141	41.55
832.526	41.53
832.911	41.53
833.295	41.53
833.68	41.55
834.065	41.56
834.449	41.58
834.834	41.58
835.218	41.59
835.603	41.6
835.987	41.59
836.371	41.6
836.755	41.61
837.139	41.6
837.524	41.61
837.908	41.59
838.291	41.58
838.675	41.58
839.059	41.59
839.443	41.56
839.827	41.56
840.21	41.56
840.594	41.55
840.977	41.54
841.361	41.54
841.744	41.51
842.127	41.5
842.511	41.49
842.894	41.48
843.277	41.45
843.66	41.44
844.043	41.45
844.426	41.44
844.809	41.45
845.191	41.46
845.574	41.46
845.957	41.47
846.339	41.47
846.722	41.49
847.104	41.48
847.487	41.48
847.869	41.5
848.252	41.48
848.634	41.48
849.016	41.5
849.398	41.5
849.78	41.52
850.162	41.52
850.544	41.51
850.926	41.52
851.307	41.52
851.689	41.54
852.071	41.54
852.452	41.56
852.834	41.57
853.215	41.55
853.597	41.55
853.978	41.52
854.359	41.53
854.741	41.53
855.122	41.53
855.503	41.52
855.884	41.5
856.265	41.51
856.646	41.49
857.026	41.48
857.407	41.48
857.788	41.5
858.169	41.51
858.549	41.5
858.93	41.49
859.31	41.5
859.69	41.51
860.071	41.54
860.451	41.53
860.831	41.54
861.211	41.51
861.591	41.51
861.971	41.48
862.351	41.48
862.731	41.48
863.111	41.47
863.491	41.46
863.87	41.45
864.25	41.43
864.629	41.41
865.009	41.41
865.388	41.42
865.768	41.42
866.147	41.43
866.526	41.42
866.905	41.42
867.284	41.45
867.663	41.45
868.042	41.46
868.421	41.46
868.8	41.46
869.179	41.46
869.558	41.47
869.936	41.47
870.315	41.46
870.693	41.47
871.072	41.48
871.45	41.49
871.828	41.49
872.207	41.5
872.585	41.5
872.963	41.51
873.341	41.49
873.719	41.48
874.097	41.47
874.475	41.45
874.853	41.45
875.23	41.46
875.608	41.44
875.986	41.44
876.363	41.42
876.741	41.4
877.118	41.38
877.495	41.4
877.873	41.42
878.25	41.43
878.627	41.43
879.004	41.42
879.381	41.39
879.758	41.37
880.135	41.37
880.512	41.36
880.889	41.38
881.265	41.39
881.642	41.39
882.019	41.38
882.395	41.37
882.772	41.37
883.148	41.36
883.524	41.37
883.901	41.38
884.277	41.37
884.653	41.37
885.029	41.35
885.405	41.35
885.781	41.33
886.157	41.33
886.532	41.34
886.908	41.35
887.284	41.35
887.659	41.32
888.035	41.33
888.411	41.34
888.786	41.33
889.161	41.35
889.537	41.35
889.912	41.37
890.287	41.37
890.662	41.37
891.037	41.38
891.412	41.37
891.787	41.39
892.162	41.38
892.536	41.38
892.911	41.38
893.286	41.39
893.66	41.38
894.035	41.38
894.409	41.38
894.784	41.37
895.158	41.36
895.532	41.37
895.906	41.37
896.281	41.36
896.655	41.35
897.029	41.36
897.402	41.34
897.776	41.34
898.15	41.34
898.524	41.33
898.898	41.35
899.271	41.33
899.645	41.34
900.018	41.35
900.392	41.36
900.765	41.37
901.138	41.36
901.511	41.36
901.884	41.35
902.258	41.34
902.631	41.34
903.003	41.32
903.376	41.35
903.749	41.29
904.122	41.29
904.495	41.3
904.867	41.3
905.24	41.32
905.612	41.33
905.985	41.32
906.357	41.33
906.729	41.33
907.102	41.36
907.474	41.34
907.846	41.37
908.218	41.36
908.59	41.36
908.962	41.35
909.334	41.34
909.705	41.33
910.077	41.34
910.449	41.33
910.82	41.33
911.192	41.3
911.563	41.28
911.935	41.26
912.306	41.25
912.677	41.23
913.048	41.24
913.419	41.24
913.79	41.26
914.161	41.26
914.532	41.26
914.903	41.25
915.274	41.27
915.645	41.29
916.015	41.3
916.386	41.3
916.756	41.29
917.127	41.27
917.497	41.26
917.868	41.23
918.238	41.2
918.608	41.21
918.978	41.21
919.348	41.2
919.718	41.17
920.088	41.21
920.458	41.18
920.828	41.17
921.198	41.15
921.567	41.15
921.937	41.17
922.306	41.16
922.676	41.16
923.045	41.16
923.415	41.13
923.784	41.13
924.153	41.1
924.522	41.13
924.891	41.14
925.26	41.17
925.629	41.16
925.998	41.17
926.367	41.18
926.736	41.16
927.104	41.15
927.473	41.14
927.842	41.1
928.21	41.12
928.578	41.11
928.947	41.1
929.315	41.09
929.683	41.06
930.051	41.06
930.42	41.04
930.788	41.02
931.156	41.04
931.523	41.04
931.891	41.09
932.259	41.07
932.627	41.06
932.994	41.07
933.362	41.06
933.729	41.06
934.097	41
934.464	41.03
934.831	41.02
935.199	41
935.566	41.04
935.933	40.99
936.3	40.95
936.667	40.92
937.034	40.9
937.401	40.95
937.767	40.96
938.134	40.98
938.501	40.98
938.867	41.01
939.234	41.01
939.6	40.96
939.967	40.97
940.333	40.97
940.699	41
941.065	40.97
941.431	40.9
941.798	40.88
942.163	40.88
942.529	40.82
942.895	40.83
943.261	40.77
943.627	40.73
943.992	40.74
944.358	40.8
944.723	40.78
945.089	40.77
945.454	40.79
945.82	40.81
946.185	40.81
946.55	40.81
946.915	40.79
947.28	40.81
947.645	40.85
948.01	40.86
948.375	40.86
948.74	40.89
949.104	40.92
949.469	40.91
949.834	40.85
950.198	40.84
950.562	40.84
950.927	40.81
951.291	40.8
951.655	40.73
952.02	40.73
952.384	40.68
952.748	40.64
953.112	40.63
953.476	40.58
953.839	40.56
954.203	40.52
954.567	40.51
954.931	40.5
955.294	40.49
955.658	40.53
956.021	40.5
956.385	40.46
956.748	40.41
957.111	40.38
957.474	40.38
957.837	40.33
958.2	40.34
958.563	40.29
958.926	40.32
959.289	40.34
959.652	40.3
960.015	40.28
960.377	40.29
960.74	40.29
961.102	40.3
961.465	40.33
961.827	40.4
962.189	40.41
962.552	40.41
962.914	40.37
963.276	40.35
963.638	40.37
964	40.38
964.362	40.38
964.724	40.41
965.085	40.41
965.447	40.37
965.809	40.35
966.17	40.32
966.532	40.34
966.893	40.37
967.255	40.34
967.616	40.33
967.977	40.37
968.338	40.34
968.699	40.31
969.061	40.35
969.421	40.33
969.782	40.34
970.143	40.33
970.504	40.33
970.865	40.31
971.225	40.32
971.586	40.28
971.946	40.2
972.307	40.23
972.667	40.24
973.027	40.22
973.388	40.25
973.748	40.23
974.108	40.29
974.468	40.24
974.828	40.22
975.188	40.18
975.548	40.19
975.907	40.22
976.267	40.2
976.627	40.18
976.986	40.14
977.346	40.08
977.705	40.07
978.064	40.08
978.424	40.12
978.783	40.09
979.142	40.1
979.501	40.08
979.86	40.11
980.219	40.11
980.578	40.15
980.937	40.19
981.296	40.22
981.654	40.25
982.013	40.26
982.371	40.24
982.73	40.29
983.088	40.3
983.447	40.33
983.805	40.28
984.163	40.25
984.521	40.15
984.879	40.1
985.237	40.11
985.595	40.13
985.953	40.06
986.311	39.95
986.669	40.04
987.026	39.97
987.384	40.03
987.741	39.99
988.099	40.05
988.456	40.05
988.814	40.07
989.171	40.03
989.528	39.97
989.885	39.95
990.242	40.02
990.599	39.92
990.956	40.02
991.313	40.04
991.67	40.12
992.027	40.13
992.383	40.17
992.74	40.18
993.096	40.2
993.453	40.21
993.809	40.26
994.165	40.31
994.522	40.2
994.878	40.15
995.234	40.08
995.59	39.97
995.946	39.94
996.302	39.97
996.658	39.96
997.013	39.9
997.369	39.9
997.725	39.84
998.08	39.88
998.436	39.97
998.791	39.95
999.147	39.93
999.502	39.98
999.857	39.91
1000.212	39.78
1000.567	39.74
1000.922	39.74
1001.277	39.65
1001.632	39.64
1001.987	39.57
1002.342	39.52
1002.696	39.46
1003.051	39.63
1003.406	39.69
1003.76	39.68
1004.114	39.72
1004.469	39.76
1004.823	39.96
1005.177	40.05
1005.531	40.09
1005.885	40.13
1006.239	40.11
1006.593	40.1
1006.947	39.88
1007.301	39.75
1007.655	39.77
1008.008	39.88
1008.362	39.92
1008.715	39.67
1009.069	39.73
1009.422	39.64
1009.776	39.54
1010.129	39.56
1010.482	39.64
1010.835	39.73
1011.188	39.84
1011.541	39.83
1011.894	39.78
1012.247	39.71
1012.6	39.84
1012.952	39.67
1013.305	39.92
1013.657	39.97
1014.01	39.88
1014.362	39.81
1014.715	39.86
1015.067	39.76
1015.419	39.79
1015.771	39.6
1016.123	39.58
1016.475	39.63
1016.827	39.72
1017.179	39.64
1017.531	39.68
1017.883	39.86
1018.234	39.9
1018.586	39.81
1018.938	39.81
1019.289	39.84
1019.64	39.99
1019.992	39.93
1020.343	39.7
1020.694	39.67
1021.045	39.61
1021.396	39.61
1021.747	39.55
1022.098	39.51
1022.449	39.5
1022.8	39.5
1023.151	39.35
1023.501	39.29
1023.852	39.3
1024.202	39.32
1024.553	39.08
1024.903	39.02
1025.253	38.99
1025.604	38.92
1025.954	38.82
1026.304	38.81
1026.654	38.8
1027.004	38.77
1027.354	38.59
1027.703	38.4
1028.053	38.58
1028.403	38.84
1028.753	38.63
1029.102	38.77
1029.452	38.99
1029.801	39.33
1030.15	39.21
1030.499	39.23
897.758	715.98
901.051	724.62
904.343	726.51
907.636	735.33
910.928	714.81
914.22	717.88
917.511	710.87
920.803	679.72
924.094	676.7
927.384	658.57
930.675	636.13
933.965	635.85
937.255	597.69
940.544	573.53
943.834	549.85
947.123	544.9
950.411	514.89
953.7	504.55
956.988	480.82
960.276	463.69
963.563	454.54
966.851	439.3
970.138	435.12
973.424	423.56
976.711	424.57
979.997	404.52
983.283	402.67
986.568	393.3
989.853	382.45
993.138	372.66
996.423	358.87
999.708	350.42
1002.992	345.05
1006.275	332.02
1009.559	327.96
1012.842	315.54
1016.125	309.01
1019.408	303.92
1022.69	299.77
1025.972	292.9
1029.254	287.53
1032.536	283.04
1035.817	279.2
1039.098	276.6
1042.379	269.35
1045.659	266.83
1048.939	262.26
1052.219	256.05
1055.498	253.38
1058.778	247.36
1062.057	243.23
1065.335	240.45
1068.614	237.64
1071.892	234.06
1075.17	227.94
1078.447	224.69
1081.724	222.76
1085.001	221.21
1088.278	216.9
1091.554	212.22
1094.83	213.12
1098.106	211.14
1101.382	209.62
1104.657	208.71
1107.932	204.73
1111.206	205.56
1114.481	201.36
1117.755	199.69
1121.029	197.7
1124.302	197.5
1127.575	194.67
1130.848	192.28
1134.121	190.7
1137.393	189.57
1140.665	185.71
1143.937	184.91
1147.208	183.77
1150.48	182.62
1153.75	181.81
1157.021	179.46
1160.291	179.1
1163.561	176.9
1166.831	176.66
1170.101	175.46
1173.37	175.47
1176.639	175.95
1179.907	174.47
1183.176	172.25
1186.444	172.39
1189.711	171.02
1192.979	170.59
1196.246	170.3
1199.513	171.02
1202.78	170.51
1206.046	169.97
1209.312	168.51
1212.578	168.51
1215.843	169.5
1219.108	168.7
1222.373	171.81
1225.638	173.05
1228.902	174.92
1232.166	175.9
1235.43	176.72
1238.693	178.36
1241.956	179.11
1245.219	181.09
1248.482	181.47
1251.744	181.83
1255.006	183.09
1258.268	179.02
1261.529	177.96
1264.79	176.57
1268.051	175.11
1271.312	172.5
1274.572	171.72
1277.832	170.4
1281.092	167.44
1284.351	166.27
1287.61	166.36
1290.869	164.12
1294.128	163.34
1297.386	163.16
1300.644	162.79
1303.902	162.64
1307.159	163.01
1310.416	162.04
1313.673	161.8
1316.93	163.51
1320.186	162.83
1323.442	163.38
1326.697	165.36
1329.953	165.92
1333.208	165.9
1336.463	167.53
1339.717	167.89
1342.972	169.11
1346.226	170.3
1349.479	171.11
1352.733	172.35
1355.986	173.77
1359.238	173.38
1362.491	173.88
1365.743	174.55
1368.995	174.58
1372.247	175.29
1375.498	174.62
1378.749	176.2
1382	173.79
1385.251	173.34
1388.501	172.03
1391.751	171.93
1395	171.4
1398.25	169.52
1401.499	167.94
1404.748	167.95
1407.996	164.61
1411.244	164
1414.492	161.97
1417.74	160.69
1420.987	159.23
1424.234	158.13
1427.481	155.76
1430.728	155.18
1433.974	154.51
1437.22	153.15
1440.465	152.73
1443.711	151.08
1446.956	149.81
1450.201	148.89
1453.445	147.81
1456.689	147.17
1459.933	144.61
1463.177	144.29
1466.42	141.49
1469.663	139.97
1472.906	139.35
1476.148	136.04
1479.391	135.16
1482.633	134.47
1485.874	132.22
1489.115	131.16
1492.356	130.21
1495.597	130.1
1498.838	128.24
1502.078	128.36
1505.318	128.04
1508.557	127.73
1511.797	127.44
1515.036	126.62
1518.274	126.07
1521.513	125.78
1524.751	125.63
1527.989	125.2
1531.227	125.3
1534.464	125.16
1537.701	124.48
1540.938	124.2
1544.174	123.73
1547.41	123.73
1550.646	122.88
1553.882	123.05
1557.117	121.77
1560.352	121.12
1563.587	121.36
1566.821	120.69
1570.055	120.1
1573.289	119.65
1576.523	119.56
1579.756	118.24
1582.989	118.1
1586.222	118.11
1589.454	118.37
1592.686	119.6
1595.918	119.01
1599.15	118.1
1602.381	118.38
1605.612	118.47
1608.843	118.33
1612.073	118.16
1615.303	119.34
1618.533	119.71
1621.762	119.57
1624.992	119.49
1628.221	118.82
1631.449	118.72
1634.678	119.03
1637.906	119.65
1641.134	119.25
1644.361	119.36
1647.588	119.65
1650.815	119.14
1654.042	118.72
1657.269	119.33
1660.495	118.92
1663.72	118.7
1666.946	119.63
1670.171	119.69
1673.396	119.06
1676.621	119.62
1679.845	120.49
1683.069	120.23
1686.293	120.97
1689.517	121.25
1692.74	121.27
1695.963	121.42
1699.185	122.41
1702.408	122.15
1705.63	122.72
1708.852	123.43
1712.073	123.31
1715.294	122.82
1718.515	123.87
1721.736	123.67
1724.956	123.98
1728.176	123.98
1731.396	124.64
1734.616	124.23
1737.835	124.81
1741.054	124
1744.272	123.97
1747.491	125.14
1750.709	125.2
1753.927	124.97
1757.144	124.51
1760.361	124.81
1763.578	124.9
1766.795	124.45
1770.011	125.3
1773.227	125.59
1776.443	126.26
1779.658	126.32
1782.874	126.56
1786.089	126.52
1789.303	126.84
1792.518	127.88
1795.732	127.89
1798.945	128.71
1802.159	129.28
1805.372	129.54
1808.585	130.59
1811.797	131.44
1815.01	132.08
1818.222	132.36
1821.434	134.43
1824.645	134.35
1827.856	136.92
1831.067	137.25
1834.278	137.81
1837.488	138.21
1840.698	138.85
1843.908	138.14
1847.117	138.51
1850.326	139.23
1853.535	137.86
1856.744	138.67
1859.952	138.58
1863.16	136.81
1866.368	135.73
1869.575	136.13
1872.782	134.41
1875.989	132.49
1879.196	131.92
1882.402	130.28
1885.608	129.91
1888.814	129.79
1892.019	127.88
1895.224	127.22
1898.429	126.63
1901.634	126.93
1904.838	126.6
1908.042	127.01
1911.246	127.42
1914.449	127.74
1917.652	127.33
1920.855	126.94
1924.058	127.32
1927.26	127.39
1930.462	127.18
1933.664	127.84
1936.865	127.6
1940.066	126.17
1943.267	125.48
1946.467	126.34
1949.668	126.59
1952.868	128.38
1956.067	128.69
1959.267	128.98
1962.466	129.33
1965.665	129
1968.863	130.04
1972.061	131.04
1975.259	132.6
1978.457	134.52
1981.654	134.84
1984.852	135.44
1988.048	135.25
1991.245	136.52
1994.441	137.42
1997.637	138.89
2000.833	141.78
2004.028	142.87
2007.223	145.3
2010.418	146.48
2013.613	148.74
2016.807	151.15
2020.001	153.38
2023.194	155.23
2026.388	159.04
2029.581	162.97
2032.774	163.75
2035.966	167.03
2039.158	167.67
2042.35	169.77
2045.542	172.78
2048.733	174.9
2051.924	177.93
2055.115	180.22
2058.306	181.29
2061.496	182.47
2064.686	181.9
2067.875	185.99
2071.065	186.98
2074.254	186.75
2077.442	189.03
2080.631	188.13
2083.819	190.48
2087.007	189.16
2090.195	190.87
2093.382	193.67
2096.569	193.06
2099.756	196.75
2102.942	196.93
2106.128	198.08
2109.314	203.53
2112.5	202.93
2115.685	208.83
2118.87	209.22
2122.055	214.49
2125.239	215.91
2128.424	218.12
2131.608	219.25
2134.791	222.32
2137.974	223.66
2141.157	224.34
2144.34	224.03
2147.523	226.84
2150.705	224.62
2153.887	227.91
2157.068	228.02
2160.25	226.78
2163.431	228.23
2166.611	230.66
2169.792	235.75
2172.972	236.35
2176.152	238.11
2179.331	241.25
2182.511	245.09
2185.69	247.28
2188.868	251.76
2192.047	251.7
2195.225	259.36
2198.403	265.1
2201.58	269.65
2204.758	272.31
2207.935	278.36
2211.111	284.35
2214.288	286.9
2217.464	286.82
2220.64	293.35
2223.815	295.05
2226.991	308.28
2230.166	307.46
2233.34	310.59
2236.515	316.76
2239.689	317.28
2242.863	320.64
2246.036	327.76
2249.209	326.11
2252.382	332.89
2255.555	341.11
2258.727	344.04
2261.9	345.62
2265.071	349.9
2268.243	355.12
2271.414	358.27
2274.585	366.15
2277.756	368.86
2280.926	373.82
2284.096	381.9
2287.266	387.74
2290.436	388.78
2293.605	396.89
2296.774	406.99
2299.942	420.33
2303.111	424.51
2306.279	431.3
2309.447	435.89
2312.614	449.16
2315.781	457.84
2318.948	477.56
2322.115	472.91
2325.281	502.08
2328.447	488.97
2331.613	506.57
2334.779	499.69
2337.944	522.15
2341.109	528.7
2344.274	547.18
2347.438	560.98
2350.602	562.1
2353.766	579.27
2356.929	588.66
2360.092	580.32
2363.255	624.31
2366.418	626.75
2369.58	636.16
2372.742	672.91
2375.904	692.44
2379.066	686.64
2382.227	675.74
2385.388	733.01
2388.548	735.13
2391.709	741.02
2394.869	825.33
2398.029	790.38
2401.188	810.67
2404.347	807.95
2407.506	794.81
2410.665	812.97
2413.823	863.47
2416.981	915.78
2420.139	885.29
2423.296	878.03
2426.453	917.91
2429.61	884
2432.767	924.75
2435.923	915.33
2439.079	1001.11
2442.235	1016.78
2445.391	1009.29
2448.546	996.83
2451.701	972.22
2454.855	972.57
2458.009	1024.34
2461.163	1068.3
2464.317	1105.53
2467.471	1133
2470.624	1134.16
2473.777	1110.58
2476.929	1078.6
2480.082	1045.21
2483.234	1036.11
2486.385	1088.19
2489.537	1091.61
2492.688	1136.51
2495.839	1103.51
2498.989	1082.83
2502.14	1089.14
2505.29	1098.92
2508.439	1104.28
2511.589	1104.72
2514.738	1208.55
2517.887	1179.43
2521.035	1238.73
2524.183	1252.82
2527.331	1259.85
2530.479	1253.29
2533.627	1260.15
