Data from N_1_DEC_NC_4n_Splice17_12-17-32-494.txt Node
Date: Sat Mar 07 12:17:32 EST 2020
User: sa697716
Spectrometer: NQ5500242
Trigger mode: 0
Integration Time (sec): 1.450000E-1
Scans to average: 20
Nonlinearity correction enabled: false
Boxcar width: 5
Storing dark spectrum: false
XAxis mode: Wavelengths
Number of Pixels in Spectrum: 512
>>>>>Begin Spectral Data<<<<<
187.83	87.53
188.298	107.07
188.766	82.73
189.233	68.76
189.701	57.32
190.169	78.24
190.636	42.28
191.104	-19.49
191.571	-192.87
192.039	-49.22
192.506	-60.96
192.974	208.4
193.441	314.56
193.908	180.33
194.375	89.4
194.842	-6.4
195.31	38.23
195.777	-69.01
196.244	17.47
196.711	25.75
197.177	28.1
197.644	27.39
198.111	26.08
198.578	26.24
199.045	26.27
199.511	26.71
199.978	27.14
200.445	27.12
200.911	26.99
201.378	27.03
201.844	26.73
202.31	26.49
202.777	26.51
203.243	26.66
203.709	26.57
204.176	26.41
204.642	26.05
205.108	26.13
205.574	26.17
206.04	26.01
206.506	25.91
206.972	26.1
207.438	25.8
207.903	25.39
208.369	24.78
208.835	24.33
209.301	23.79
209.766	23.07
210.232	22.18
210.697	21.51
211.163	20.94
211.628	20.34
212.094	19.55
212.559	19.35
213.024	18.93
213.49	18.8
213.955	18.36
214.42	17.91
214.885	17.55
215.35	16.93
215.815	15.99
216.28	14.82
216.745	13.53
217.21	12.35
217.675	11.18
218.14	10.31
218.604	9.41
219.069	8.77
219.534	8.22
219.998	7.75
220.463	7.36
220.927	6.99
221.392	6.72
221.856	6.53
222.32	6.34
222.785	6.15
223.249	5.97
223.713	5.82
224.177	5.7
224.642	5.57
225.106	5.44
225.57	5.31
226.034	5.22
226.497	5.13
226.961	5.03
227.425	4.95
227.889	4.87
228.353	4.79
228.816	4.72
229.28	4.63
229.744	4.57
230.207	4.49
230.671	4.43
231.134	4.37
231.597	4.33
232.061	4.27
232.524	4.2
232.987	4.15
233.45	4.12
233.914	4.08
234.377	4.04
234.84	3.99
235.303	3.96
235.766	3.92
236.229	3.87
236.691	3.82
237.154	3.79
237.617	3.75
238.08	3.72
238.542	3.67
239.005	3.63
239.468	3.6
239.93	3.56
240.393	3.53
240.855	3.5
241.317	3.48
241.78	3.44
242.242	3.42
242.704	3.39
243.166	3.37
243.629	3.36
244.091	3.32
244.553	3.28
245.015	3.25
245.477	3.22
245.939	3.19
246.4	3.16
246.862	3.13
247.324	3.1
247.786	3.08
248.247	3.05
248.709	3.01
249.17	2.98
249.632	2.97
250.093	2.95
250.555	2.92
251.016	2.91
251.477	2.88
251.939	2.86
252.4	2.84
252.861	2.81
253.322	2.8
253.783	2.78
254.244	2.78
254.705	2.76
255.166	2.75
255.627	2.73
256.088	2.72
256.549	2.71
257.009	2.69
257.47	2.68
257.931	2.66
258.391	2.64
258.852	2.62
259.312	2.6
259.773	2.58
260.233	2.57
260.694	2.56
261.154	2.55
261.614	2.53
262.074	2.52
262.534	2.5
262.994	2.49
263.455	2.48
263.915	2.47
264.374	2.45
264.834	2.44
265.294	2.42
265.754	2.41
266.214	2.4
266.673	2.39
267.133	2.39
267.593	2.38
268.052	2.38
268.512	2.37
268.971	2.36
269.431	2.36
269.89	2.35
270.349	2.35
270.809	2.34
271.268	2.34
271.727	2.33
272.186	2.33
272.645	2.33
273.104	2.32
273.563	2.31
274.022	2.3
274.481	2.3
274.94	2.3
275.399	2.29
275.857	2.28
276.316	2.28
276.775	2.27
277.233	2.27
277.692	2.26
278.15	2.26
278.609	2.26
279.067	2.25
279.525	2.25
279.984	2.24
280.442	2.24
280.9	2.24
281.358	2.23
281.816	2.23
282.274	2.23
282.732	2.22
283.19	2.22
283.648	2.21
284.106	2.2
284.564	2.2
285.021	2.21
285.479	2.2
285.937	2.19
286.394	2.19
286.852	2.18
287.309	2.17
287.767	2.16
288.224	2.16
288.682	2.14
289.139	2.14
289.596	2.13
290.053	2.11
290.511	2.1
290.968	2.1
291.425	2.09
291.882	2.08
292.339	2.08
292.796	2.08
293.252	2.07
293.709	2.07
294.166	2.07
294.623	2.06
295.079	2.06
295.536	2.06
295.992	2.05
296.449	2.05
296.905	2.05
297.362	2.03
297.818	2.03
298.274	2.02
298.731	2.01
299.187	2
299.643	2
300.099	2
300.555	1.99
301.011	1.98
301.467	1.98
301.923	1.97
302.379	1.97
302.835	1.97
303.291	1.97
303.746	1.97
304.202	1.97
304.658	1.97
305.113	1.97
305.569	1.97
306.024	1.97
306.479	1.96
306.935	1.97
307.39	1.97
307.845	1.97
308.301	1.97
308.756	1.97
309.211	1.96
309.666	1.97
310.121	1.97
310.576	1.96
311.031	1.96
311.486	1.97
311.94	1.97
312.395	1.97
312.85	1.96
313.305	1.96
313.759	1.96
314.214	1.95
314.668	1.94
315.123	1.94
315.577	1.94
316.032	1.94
316.486	1.94
316.94	1.94
317.394	1.93
317.849	1.93
318.303	1.93
318.757	1.92
319.211	1.91
319.665	1.91
320.119	1.9
320.572	1.89
321.026	1.89
321.48	1.89
321.934	1.87
322.387	1.87
322.841	1.87
323.295	1.87
323.748	1.87
324.202	1.87
324.655	1.87
325.108	1.88
325.562	1.88
326.015	1.88
326.468	1.88
326.921	1.88
327.374	1.88
327.827	1.88
328.28	1.88
328.733	1.88
329.186	1.88
329.639	1.88
330.092	1.87
330.545	1.87
330.997	1.87
331.45	1.88
331.903	1.88
332.355	1.89
332.808	1.88
333.26	1.88
333.713	1.87
334.165	1.87
334.617	1.88
335.069	1.87
335.522	1.88
335.974	1.88
336.426	1.87
336.878	1.86
337.33	1.85
337.782	1.86
338.234	1.86
338.686	1.87
339.137	1.88
339.589	1.86
340.041	1.87
340.493	1.86
340.944	1.85
341.396	1.85
341.847	1.85
342.299	1.85
342.75	1.84
343.201	1.84
343.653	1.83
344.104	1.82
344.555	1.82
345.006	1.81
345.457	1.81
345.908	1.81
346.359	1.81
346.81	1.8
347.261	1.8
347.712	1.79
348.163	1.79
348.613	1.79
349.064	1.79
349.515	1.79
349.965	1.79
350.416	1.79
350.866	1.79
351.317	1.78
351.767	1.78
352.217	1.78
352.668	1.78
353.118	1.78
353.568	1.77
354.018	1.78
354.468	1.78
354.918	1.78
355.368	1.78
355.818	1.78
356.268	1.79
356.718	1.79
357.168	1.79
357.617	1.79
358.067	1.8
358.517	1.81
358.966	1.81
359.416	1.81
359.865	1.81
360.315	1.82
360.764	1.81
361.213	1.81
361.663	1.81
362.112	1.82
362.561	1.83
363.01	1.82
363.459	1.8
363.908	1.8
364.357	1.81
364.806	1.8
365.255	1.81
365.703	1.81
366.152	1.82
366.601	1.82
367.05	1.82
367.498	1.81
367.947	1.82
368.395	1.84
368.844	1.85
369.292	1.85
369.74	1.87
370.189	1.86
370.637	1.86
371.085	1.87
371.533	1.87
371.981	1.87
372.429	1.87
372.877	1.88
373.325	1.88
373.773	1.88
374.221	1.89
374.669	1.89
375.116	1.89
375.564	1.9
376.012	1.9
376.459	1.91
376.907	1.92
377.354	1.93
377.801	1.95
378.249	1.95
378.696	1.96
379.143	1.97
379.591	1.99
380.038	2.01
380.485	2.02
380.932	2.03
381.379	2.05
381.826	2.06
382.273	2.08
382.72	2.09
383.166	2.11
383.613	2.13
384.06	2.14
384.506	2.15
384.953	2.17
385.4	2.2
385.846	2.23
386.292	2.25
386.739	2.27
387.185	2.29
387.631	2.32
388.078	2.35
388.524	2.37
388.97	2.4
389.416	2.44
389.862	2.47
390.308	2.51
390.754	2.53
391.2	2.56
391.645	2.59
392.091	2.63
392.537	2.67
392.983	2.7
393.428	2.73
393.874	2.76
394.319	2.79
394.765	2.83
395.21	2.84
395.655	2.89
396.101	2.93
396.546	2.97
396.991	2.99
397.436	3.02
397.881	3.06
398.326	3.09
398.771	3.13
399.216	3.15
399.661	3.19
400.106	3.22
400.551	3.22
400.995	3.24
401.44	3.27
401.885	3.29
402.329	3.32
402.774	3.33
403.218	3.37
403.663	3.4
404.107	3.41
404.551	3.43
404.995	3.45
405.44	3.47
405.884	3.47
406.328	3.49
406.772	3.49
407.216	3.5
407.66	3.51
408.104	3.5
408.547	3.51
408.991	3.52
409.435	3.52
409.879	3.53
410.322	3.54
410.766	3.56
411.209	3.58
411.653	3.59
412.096	3.61
412.54	3.63
412.983	3.64
413.426	3.66
413.869	3.68
414.312	3.71
414.756	3.72
415.199	3.72
415.642	3.74
416.085	3.73
416.527	3.74
416.97	3.74
417.413	3.74
417.856	3.74
418.298	3.73
418.741	3.73
419.184	3.73
419.626	3.72
420.069	3.74
420.511	3.73
420.953	3.73
421.396	3.73
421.838	3.74
422.28	3.74
422.722	3.76
423.164	3.77
423.606	3.76
424.048	3.76
424.49	3.78
424.932	3.78
425.374	3.77
425.816	3.75
426.258	3.73
426.699	3.72
427.141	3.72
427.582	3.71
428.024	3.71
428.465	3.71
428.907	3.7
429.348	3.68
429.789	3.68
430.231	3.71
430.672	3.72
431.113	3.74
431.554	3.75
431.995	3.76
432.436	3.77
432.877	3.78
433.318	3.8
433.759	3.83
434.2	3.85
434.64	3.86
435.081	3.86
435.522	3.87
435.962	3.89
436.403	3.92
436.843	3.94
437.284	3.94
437.724	3.95
438.164	3.96
438.604	3.97
439.045	3.98
439.485	4.01
439.925	4.03
440.365	4.04
440.805	4.07
441.245	4.09
441.685	4.11
442.125	4.14
442.564	4.18
443.004	4.19
443.444	4.22
443.883	4.25
444.323	4.27
444.762	4.3
445.202	4.33
445.641	4.37
446.081	4.4
446.52	4.43
446.959	4.47
447.398	4.49
447.837	4.52
448.276	4.56
448.716	4.59
449.154	4.63
449.593	4.66
450.032	4.7
450.471	4.72
450.91	4.74
451.349	4.77
451.787	4.78
452.226	4.8
452.664	4.83
453.103	4.84
453.541	4.85
453.98	4.88
454.418	4.88
454.856	4.88
455.295	4.87
455.733	4.86
456.171	4.86
456.609	4.86
457.047	4.86
457.485	4.85
457.923	4.85
458.361	4.84
458.798	4.83
459.236	4.82
459.674	4.83
460.111	4.84
460.549	4.85
460.987	4.86
461.424	4.88
461.862	4.88
462.299	4.88
462.736	4.88
463.173	4.89
463.611	4.9
464.048	4.9
464.485	4.9
464.922	4.9
465.359	4.9
465.796	4.91
466.233	4.91
466.67	4.91
467.106	4.93
467.543	4.93
467.98	4.93
468.416	4.93
468.853	4.94
469.29	4.95
469.726	4.96
470.162	4.97
470.599	4.98
471.035	4.97
471.471	4.98
471.907	4.98
472.344	4.99
472.78	5
473.216	5
473.652	5.01
474.088	5.02
474.523	5.02
474.959	5.02
475.395	5.01
475.831	5.02
476.266	5.03
476.702	5.03
477.138	5.03
477.573	5.04
478.008	5.05
478.444	5.05
478.879	5.06
479.314	5.06
479.75	5.07
480.185	5.08
480.62	5.08
481.055	5.09
481.49	5.1
481.925	5.11
482.36	5.12
482.795	5.13
483.229	5.13
483.664	5.15
484.099	5.16
484.534	5.17
484.968	5.19
485.403	5.21
485.837	5.23
486.271	5.25
486.706	5.27
487.14	5.29
487.574	5.32
488.009	5.35
488.443	5.39
488.877	5.43
489.311	5.48
489.745	5.52
490.179	5.57
490.613	5.62
491.046	5.67
491.48	5.72
491.914	5.77
492.348	5.83
492.781	5.9
493.215	5.96
493.648	6.03
494.082	6.09
494.515	6.16
494.948	6.24
495.382	6.32
495.815	6.41
496.248	6.5
496.681	6.6
497.114	6.69
497.547	6.78
497.98	6.89
498.413	6.98
498.846	7.09
499.279	7.21
499.711	7.31
500.144	7.43
500.577	7.55
501.009	7.65
501.442	7.77
501.874	7.9
502.306	8.03
502.739	8.18
503.171	8.32
503.603	8.47
504.036	8.62
504.468	8.76
504.9	8.9
505.332	9.06
505.764	9.23
506.196	9.39
506.627	9.56
507.059	9.74
507.491	9.9
507.923	10.07
508.354	10.25
508.786	10.43
509.217	10.62
509.649	10.81
510.08	11
510.512	11.19
510.943	11.39
511.374	11.58
511.805	11.78
512.237	11.97
512.668	12.16
513.099	12.37
513.53	12.57
513.961	12.76
514.391	12.97
514.822	13.18
515.253	13.37
515.684	13.56
516.114	13.75
516.545	13.95
516.975	14.16
517.406	14.36
517.836	14.54
518.267	14.74
518.697	14.92
519.127	15.09
519.558	15.28
519.988	15.47
520.418	15.65
520.848	15.83
521.278	16
521.708	16.31
522.138	16.48
522.567	16.63
522.997	16.79
523.427	16.94
523.857	17.08
524.286	17.21
524.716	17.34
525.145	17.47
525.575	17.59
526.004	17.71
526.433	17.66
526.863	17.78
527.292	17.88
527.721	17.97
528.15	18.07
528.579	18.17
529.008	18.26
529.437	18.33
529.866	18.4
530.295	18.48
530.724	18.56
531.152	18.64
531.581	18.7
532.01	18.75
532.438	18.83
532.867	18.88
533.295	18.92
533.723	18.96
534.152	19.01
534.58	19.07
535.008	19.1
535.436	19.14
535.865	19.17
536.293	19.19
536.721	19.23
537.149	19.26
537.576	19.29
538.004	19.33
538.432	19.37
538.86	19.4
539.287	19.42
539.715	19.45
540.143	19.49
540.57	19.52
540.998	19.54
541.425	19.57
541.852	19.6
542.28	19.61
542.707	19.62
543.134	19.63
543.561	19.66
543.988	19.69
544.415	19.7
544.842	19.7
545.269	19.72
545.696	19.74
546.123	19.75
546.549	19.76
546.976	19.78
547.403	19.79
547.829	19.81
548.256	19.8
548.682	19.8
549.108	19.81
549.535	19.83
549.961	19.84
550.387	19.83
550.813	19.84
551.24	19.84
551.666	19.83
552.092	19.83
552.518	19.83
552.943	19.83
553.369	19.81
553.795	19.79
554.221	19.78
554.646	19.75
555.072	19.73
555.498	19.72
555.923	19.68
556.349	19.65
556.774	19.62
557.199	19.58
557.625	19.54
558.05	19.51
558.475	19.46
558.9	19.41
559.325	19.38
559.75	19.34
560.175	19.28
560.6	19.24
561.025	19.19
561.449	19.13
561.874	19.07
562.299	19
562.723	18.95
563.148	18.9
563.572	18.84
563.997	18.77
564.421	18.68
564.846	18.62
565.27	18.54
565.694	18.47
566.118	18.39
566.542	18.32
566.966	18.25
567.39	18.17
567.814	18.09
568.238	18.01
568.662	17.93
569.086	17.87
569.509	17.81
569.933	17.74
570.357	17.69
570.78	17.62
571.204	17.56
571.627	17.5
572.05	17.42
572.474	17.36
572.897	17.29
573.32	17.22
573.743	17.15
574.166	17.08
574.589	17
575.012	16.94
575.435	16.87
575.858	16.8
576.281	16.73
576.704	16.67
577.126	16.61
577.549	16.54
577.972	16.48
578.394	16.42
578.817	16.36
579.239	16.3
579.661	16.22
580.084	16.18
580.506	16.14
580.928	16.08
581.35	16.03
581.772	15.98
582.194	15.94
582.616	15.9
583.038	15.86
583.46	15.81
583.882	15.77
584.303	15.73
584.725	15.68
585.147	15.64
585.568	15.6
585.99	15.54
586.411	15.49
586.833	15.45
587.254	15.4
587.675	15.37
588.096	15.31
588.518	15.28
588.939	15.25
589.36	15.2
589.781	15.17
590.202	15.15
590.623	15.14
591.043	15.11
591.464	15.07
591.885	15.05
592.305	15.01
592.726	15
593.147	14.98
593.567	14.94
593.987	14.92
594.408	14.88
594.828	14.85
595.248	14.82
595.669	14.8
596.089	14.78
596.509	14.75
596.929	14.73
597.349	14.69
597.769	14.67
598.189	14.65
598.608	14.63
599.028	14.62
599.448	14.58
599.867	14.55
600.287	14.53
600.706	14.5
601.126	14.48
601.545	14.46
601.965	14.45
602.384	14.42
602.803	14.39
603.222	14.35
603.641	14.3
604.061	14.27
604.48	14.24
604.898	14.18
605.317	14.14
605.736	14.09
606.155	14.05
606.574	14.01
606.992	13.96
607.411	13.92
607.829	13.85
608.248	13.8
608.666	13.76
609.085	13.72
609.503	13.68
609.921	13.64
610.339	13.6
610.758	13.55
611.176	13.49
611.594	13.44
612.012	13.38
612.43	13.35
612.847	13.3
613.265	13.25
613.683	13.2
614.101	13.15
614.518	13.09
614.936	13.05
615.353	12.99
615.771	12.95
616.188	12.92
616.606	12.89
617.023	12.84
617.44	12.81
617.857	12.77
618.274	12.72
618.691	12.69
619.108	12.66
619.525	12.61
619.942	12.59
620.359	12.56
620.776	12.52
621.192	12.5
621.609	12.48
622.026	12.46
622.442	12.44
622.859	12.42
623.275	12.4
623.691	12.39
624.108	12.39
624.524	12.37
624.94	12.35
625.356	12.35
625.772	12.33
626.188	12.33
626.604	12.32
627.02	12.31
627.436	12.31
627.852	12.32
628.268	12.3
628.683	12.29
629.099	12.28
629.514	12.27
629.93	12.26
630.345	12.24
630.761	12.21
631.176	12.19
631.591	12.16
632.007	12.12
632.422	12.07
632.837	12.02
633.252	11.98
633.667	11.93
634.082	11.87
634.497	11.8
634.911	11.74
635.326	11.67
635.741	11.59
636.155	11.52
636.57	11.43
636.984	11.35
637.399	11.26
637.813	11.17
638.228	11.05
638.642	10.94
639.056	10.83
639.47	10.73
639.884	10.63
640.298	10.51
640.712	10.39
641.126	10.28
641.54	10.15
641.954	10.04
642.368	9.93
642.781	9.84
643.195	9.73
643.609	9.62
644.022	9.5
644.436	9.39
644.849	9.29
645.262	9.2
645.676	9.11
646.089	9.02
646.502	8.94
646.915	8.87
647.328	8.79
647.741	8.72
648.154	8.67
648.567	8.62
648.98	8.58
649.393	8.54
649.805	8.49
650.218	8.45
650.631	8.42
651.043	8.38
651.456	8.34
651.868	8.3
652.28	8.27
652.693	8.24
653.105	8.2
653.517	8.16
653.929	8.12
654.341	8.07
654.753	8.02
655.165	7.97
655.577	7.91
655.989	7.85
656.401	7.79
656.813	7.73
657.224	7.66
657.636	7.57
658.047	7.49
658.459	7.4
658.87	7.32
659.282	7.22
659.693	7.13
660.104	7.02
660.515	6.93
660.926	6.84
661.338	6.74
661.749	6.64
662.159	6.56
662.57	6.47
662.981	6.38
663.392	6.29
663.803	6.21
664.213	6.13
664.624	6.05
665.035	5.97
665.445	5.89
665.855	5.83
666.266	5.77
666.676	5.7
667.086	5.64
667.497	5.59
667.907	5.54
668.317	5.5
668.727	5.46
669.137	5.42
669.547	5.4
669.956	5.38
670.366	5.35
670.776	5.33
671.186	5.31
671.595	5.3
672.005	5.28
672.414	5.27
672.824	5.27
673.233	5.27
673.642	5.27
674.052	5.28
674.461	5.28
674.87	5.29
675.279	5.31
675.688	5.33
676.097	5.35
676.506	5.38
676.915	5.41
677.323	5.46
677.732	5.5
678.141	5.55
678.549	5.59
678.958	5.66
679.366	5.74
679.775	5.82
680.183	5.92
680.592	6.03
681	6.15
681.408	6.27
681.816	6.41
682.224	6.57
682.632	6.74
683.04	6.93
683.448	7.14
683.856	7.33
684.264	7.55
684.671	7.79
685.079	8.04
685.487	8.31
685.894	8.61
686.302	8.92
686.709	9.23
687.116	9.57
687.524	9.92
687.931	10.28
688.338	10.65
688.745	11.05
689.152	11.42
689.559	11.82
689.966	12.22
690.373	12.6
690.78	13.01
691.187	13.41
691.593	13.81
692	14.19
692.407	14.57
692.813	14.95
693.22	15.31
693.626	15.69
694.032	16.04
694.439	16.38
694.845	16.74
695.251	17.07
695.657	17.39
696.063	17.7
696.469	18.03
696.875	18.34
697.281	18.64
697.687	18.95
698.093	19.23
698.498	19.51
698.904	19.78
699.31	20.02
699.715	20.28
700.12	20.53
700.526	20.77
700.931	21
701.337	21.21
701.742	21.42
702.147	21.61
702.552	21.81
702.957	22.01
703.362	22.21
703.767	22.4
704.172	22.56
704.577	22.72
704.981	22.89
705.386	23.05
705.791	23.22
706.195	23.38
706.6	23.55
707.004	23.69
707.408	23.85
707.813	24
708.217	24.12
708.621	24.28
709.025	24.39
709.43	24.5
709.834	24.62
710.237	24.72
710.641	24.82
711.045	24.93
711.449	25.05
711.853	25.15
712.256	25.24
712.66	25.37
713.064	25.45
713.467	25.56
713.87	25.67
714.274	25.75
714.677	25.85
715.08	25.94
715.484	26.02
715.887	26.09
716.29	26.16
716.693	26.24
717.096	26.31
717.499	26.4
717.901	26.48
718.304	26.56
718.707	26.65
719.109	26.73
719.512	26.8
719.915	26.88
720.317	26.93
720.719	26.98
721.122	27.02
721.524	27.07
721.926	27.12
722.328	27.17
722.731	27.19
723.133	27.25
723.535	27.28
723.937	27.34
724.338	27.37
724.74	27.41
725.142	27.5
725.544	27.54
725.945	27.61
726.347	27.65
726.748	27.69
727.15	27.72
727.551	27.75
727.952	27.78
728.354	27.81
728.755	27.82
729.156	27.83
729.557	27.81
729.958	27.83
730.359	27.82
730.76	27.84
731.161	27.86
731.562	27.9
731.962	27.9
732.363	27.92
732.763	27.93
733.164	27.95
733.564	28.01
733.965	28.03
734.365	28.06
734.766	28.09
735.166	28.1
735.566	28.12
735.966	28.13
736.366	28.15
736.766	28.15
737.166	28.17
737.566	28.19
737.966	28.2
738.365	28.2
738.765	28.22
739.165	28.22
739.564	28.23
739.964	28.24
740.363	28.23
740.763	28.23
741.162	28.23
741.561	28.23
741.96	28.24
742.36	28.24
742.759	28.25
743.158	28.24
743.557	28.24
743.955	28.24
744.354	28.26
744.753	28.27
745.152	28.29
745.55	28.31
745.949	28.32
746.348	28.31
746.746	28.31
747.144	28.33
747.543	28.32
747.941	28.33
748.339	28.33
748.737	28.32
749.136	28.33
749.534	28.32
749.932	28.32
750.33	28.31
750.727	28.33
751.125	28.33
751.523	28.31
751.921	28.33
752.318	28.34
752.716	28.33
753.113	28.32
753.511	28.32
753.908	28.33
754.305	28.33
754.703	28.34
755.1	28.33
755.497	28.33
755.894	28.3
756.291	28.28
756.688	28.25
757.085	28.24
757.482	28.21
757.878	28.21
758.275	28.2
758.672	28.19
759.068	28.18
759.465	28.17
759.861	28.17
760.258	28.19
760.654	28.19
761.05	28.22
761.447	28.25
761.843	28.26
762.239	28.25
762.635	28.26
763.031	28.26
763.427	28.26
763.822	28.27
764.218	28.28
764.614	28.27
765.01	28.26
765.405	28.24
765.801	28.23
766.196	28.23
766.592	28.23
766.987	28.22
767.382	28.22
767.778	28.22
768.173	28.22
768.568	28.22
768.963	28.24
769.358	28.25
769.753	28.26
770.148	28.26
770.542	28.28
770.937	28.3
771.332	28.3
771.726	28.3
772.121	28.29
772.515	28.29
772.91	28.27
773.304	28.27
773.699	28.29
774.093	28.29
774.487	28.28
774.881	28.28
775.275	28.27
775.669	28.26
776.063	28.26
776.457	28.27
776.851	28.26
777.245	28.24
777.638	28.22
778.032	28.22
778.425	28.24
778.819	28.22
779.212	28.21
779.606	28.19
779.999	28.19
780.392	28.2
780.786	28.18
781.179	28.19
781.572	28.21
781.965	28.23
782.358	28.22
782.751	28.22
783.143	28.23
783.536	28.23
783.929	28.23
784.322	28.24
784.714	28.22
785.107	28.24
785.499	28.24
785.891	28.23
786.284	28.23
786.676	28.22
787.068	28.19
787.46	28.18
787.852	28.17
788.245	28.17
788.636	28.16
789.028	28.15
789.42	28.12
789.812	28.1
790.204	28.1
790.595	28.08
790.987	28.1
791.378	28.12
791.77	28.13
792.161	28.14
792.553	28.13
792.944	28.14
793.335	28.14
793.726	28.16
794.117	28.15
794.508	28.13
794.899	28.14
795.29	28.12
795.681	28.1
796.072	28.1
796.463	28.08
796.853	28.07
797.244	28.06
797.634	28.06
798.025	28.06
798.415	28.06
798.806	28.06
799.196	28.04
799.586	28.03
799.976	28.03
800.366	28.01
800.756	28.02
801.146	28.02
801.536	28.02
801.926	28
802.316	27.99
802.706	27.99
803.095	27.99
803.485	27.99
803.874	27.98
804.264	27.97
804.653	27.97
805.043	27.95
805.432	27.96
805.821	27.94
806.21	27.93
806.599	27.9
806.988	27.9
807.377	27.89
807.766	27.89
808.155	27.87
808.544	27.87
808.933	27.87
809.321	27.87
809.71	27.87
810.098	27.86
810.487	27.86
810.875	27.85
811.264	27.83
811.652	27.84
812.04	27.82
812.428	27.84
812.816	27.8
813.204	27.78
813.592	27.76
813.98	27.75
814.368	27.75
814.756	27.74
815.144	27.72
815.531	27.72
815.919	27.69
816.306	27.7
816.694	27.68
817.081	27.71
817.469	27.72
817.856	27.71
818.243	27.68
818.63	27.67
819.017	27.64
819.404	27.64
819.791	27.64
820.178	27.65
820.565	27.62
820.952	27.61
821.339	27.56
821.725	27.56
822.112	27.56
822.498	27.58
822.885	27.59
823.271	27.59
823.657	27.57
824.044	27.56
824.43	27.55
824.816	27.54
825.202	27.55
825.588	27.56
825.974	27.52
826.36	27.51
826.746	27.47
827.132	27.47
827.517	27.47
827.903	27.48
828.289	27.48
828.674	27.48
829.06	27.47
829.445	27.47
829.83	27.48
830.216	27.5
830.601	27.5
830.986	27.52
831.371	27.51
831.756	27.53
832.141	27.52
832.526	27.52
832.911	27.51
833.295	27.52
833.68	27.51
834.065	27.5
834.449	27.48
834.834	27.48
835.218	27.48
835.603	27.48
835.987	27.47
836.371	27.48
836.755	27.49
837.139	27.48
837.524	27.46
837.908	27.49
838.291	27.49
838.675	27.52
839.059	27.51
839.443	27.49
839.827	27.48
840.21	27.48
840.594	27.47
840.977	27.47
841.361	27.5
841.744	27.48
842.127	27.45
842.511	27.44
842.894	27.41
843.277	27.42
843.66	27.43
844.043	27.44
844.426	27.45
844.809	27.46
845.191	27.47
845.574	27.47
845.957	27.49
846.339	27.5
846.722	27.49
847.104	27.5
847.487	27.47
847.869	27.47
848.252	27.45
848.634	27.45
849.016	27.44
849.398	27.42
849.78	27.41
850.162	27.4
850.544	27.39
850.926	27.39
851.307	27.38
851.689	27.39
852.071	27.4
852.452	27.4
852.834	27.38
853.215	27.36
853.597	27.36
853.978	27.35
854.359	27.34
854.741	27.36
855.122	27.36
855.503	27.36
855.884	27.34
856.265	27.34
856.646	27.32
857.026	27.33
857.407	27.35
857.788	27.33
858.169	27.34
858.549	27.34
858.93	27.34
859.31	27.35
859.69	27.35
860.071	27.35
860.451	27.34
860.831	27.36
861.211	27.33
861.591	27.32
861.971	27.3
862.351	27.3
862.731	27.27
863.111	27.25
863.491	27.21
863.87	27.21
864.25	27.2
864.629	27.19
865.009	27.18
865.388	27.17
865.768	27.16
866.147	27.17
866.526	27.15
866.905	27.17
867.284	27.17
867.663	27.17
868.042	27.16
868.421	27.16
868.8	27.18
869.179	27.19
869.558	27.2
869.936	27.21
870.315	27.21
870.693	27.21
871.072	27.22
871.45	27.22
871.828	27.23
872.207	27.23
872.585	27.22
872.963	27.21
873.341	27.2
873.719	27.19
874.097	27.19
874.475	27.21
874.853	27.23
875.23	27.21
875.608	27.22
875.986	27.23
876.363	27.23
876.741	27.24
877.118	27.25
877.495	27.25
877.873	27.26
878.25	27.26
878.627	27.25
879.004	27.24
879.381	27.26
879.758	27.23
880.135	27.21
880.512	27.2
880.889	27.2
881.265	27.19
881.642	27.19
882.019	27.19
882.395	27.18
882.772	27.18
883.148	27.17
883.524	27.15
883.901	27.16
884.277	27.17
884.653	27.17
885.029	27.16
885.405	27.17
885.781	27.17
886.157	27.17
886.532	27.17
886.908	27.17
887.284	27.18
887.659	27.17
888.035	27.17
888.411	27.17
888.786	27.16
889.161	27.15
889.537	27.16
889.912	27.16
890.287	27.16
890.662	27.15
891.037	27.16
891.412	27.17
891.787	27.16
892.162	27.17
892.536	27.16
892.911	27.17
893.286	27.18
893.66	27.17
894.035	27.16
894.409	27.16
894.784	27.16
895.158	27.13
895.532	27.11
895.906	27.12
896.281	27.1
896.655	27.1
897.029	27.08
897.402	27.07
897.776	27.07
898.15	27.06
898.524	27.04
898.898	27.02
899.271	27.03
899.645	27.04
900.018	27.04
900.392	27.05
900.765	27.06
901.138	27.06
901.511	27.06
901.884	27.08
902.258	27.09
902.631	27.09
903.003	27.11
903.376	27.11
903.749	27.08
904.122	27.09
904.495	27.1
904.867	27.09
905.24	27.09
905.612	27.09
905.985	27.07
906.357	27.06
906.729	27.05
907.102	27.04
907.474	27.03
907.846	27.05
908.218	27.06
908.59	27.06
908.962	27.07
909.334	27.07
909.705	27.08
910.077	27.09
910.449	27.1
910.82	27.1
911.192	27.11
911.563	27.11
911.935	27.1
912.306	27.09
912.677	27.08
913.048	27.09
913.419	27.08
913.79	27.08
914.161	27.09
914.532	27.07
914.903	27.07
915.274	27.06
915.645	27.08
916.015	27.08
916.386	27.08
916.756	27.08
917.127	27.1
917.497	27.1
917.868	27.11
918.238	27.09
918.608	27.13
918.978	27.15
919.348	27.18
919.718	27.15
920.088	27.15
920.458	27.16
920.828	27.14
921.198	27.13
921.567	27.12
921.937	27.11
922.306	27.1
922.676	27.09
923.045	27.06
923.415	27.05
923.784	27.09
924.153	27.12
924.522	27.12
924.891	27.12
925.26	27.12
925.629	27.13
925.998	27.12
926.367	27.15
926.736	27.15
927.104	27.16
927.473	27.16
927.842	27.11
928.21	27.11
928.578	27.11
928.947	27.13
929.315	27.15
929.683	27.15
930.051	27.15
930.42	27.13
930.788	27.11
931.156	27.1
931.523	27.12
931.891	27.17
932.259	27.16
932.627	27.17
932.994	27.14
933.362	27.13
933.729	27.15
934.097	27.15
934.464	27.17
934.831	27.18
935.199	27.21
935.566	27.19
935.933	27.11
936.3	27.12
936.667	27.11
937.034	27.12
937.401	27.14
937.767	27.08
938.134	27.1
938.501	27.09
938.867	27.12
939.234	27.07
939.6	27.1
939.967	27.13
940.333	27.06
940.699	27.03
941.065	27.04
941.431	27
941.798	27.03
942.163	27.02
942.529	27.05
942.895	27.01
943.261	26.99
943.627	26.95
943.992	27
944.358	27.05
944.723	27.1
945.089	27
945.454	27
945.82	27.01
946.185	26.99
946.55	26.96
946.915	26.91
947.28	26.92
947.645	26.91
948.01	26.9
948.375	26.86
948.74	26.85
949.104	26.9
949.469	26.88
949.834	26.83
950.198	26.84
950.562	26.8
950.927	26.79
951.291	26.76
951.655	26.74
952.02	26.7
952.384	26.65
952.748	26.62
953.112	26.63
953.476	26.61
953.839	26.59
954.203	26.57
954.567	26.59
954.931	26.6
955.294	26.58
955.658	26.65
956.021	26.62
956.385	26.6
956.748	26.58
957.111	26.55
957.474	26.57
957.837	26.57
958.2	26.58
958.563	26.54
958.926	26.56
959.289	26.58
959.652	26.52
960.015	26.55
960.377	26.58
960.74	26.57
961.102	26.57
961.465	26.55
961.827	26.58
962.189	26.56
962.552	26.59
962.914	26.59
963.276	26.61
963.638	26.62
964	26.59
964.362	26.59
964.724	26.6
965.085	26.61
965.447	26.61
965.809	26.61
966.17	26.61
966.532	26.61
966.893	26.61
967.255	26.59
967.616	26.59
967.977	26.65
968.338	26.67
968.699	26.7
969.061	26.67
969.421	26.7
969.782	26.7
970.143	26.68
970.504	26.63
970.865	26.64
971.225	26.64
971.586	26.59
971.946	26.52
972.307	26.54
972.667	26.52
973.027	26.57
973.388	26.58
973.748	26.6
974.108	26.67
974.468	26.67
974.828	26.7
975.188	26.69
975.548	26.7
975.907	26.72
976.267	26.72
976.627	26.73
976.986	26.69
977.346	26.65
977.705	26.63
978.064	26.68
978.424	26.75
978.783	26.69
979.142	26.7
979.501	26.81
979.86	26.89
980.219	26.87
980.578	26.86
980.937	26.87
981.296	26.87
981.654	26.87
982.013	26.81
982.371	26.78
982.73	26.82
983.088	26.84
983.447	26.75
983.805	26.72
984.163	26.69
984.521	26.7
984.879	26.66
985.237	26.7
985.595	26.76
985.953	26.73
986.311	26.72
986.669	26.71
987.026	26.71
987.384	26.75
987.741	26.75
988.099	26.81
988.456	26.75
988.814	26.83
989.171	26.79
989.528	26.73
989.885	26.74
990.242	26.79
990.599	26.86
990.956	26.89
991.313	26.9
991.67	26.91
992.027	26.94
992.383	27.01
992.74	27.02
993.096	27.02
993.453	27
993.809	27.05
994.165	27.03
994.522	27.06
994.878	27.09
995.234	27.06
995.59	27.05
995.946	27.09
996.302	27.13
996.658	27.2
997.013	27.3
997.369	27.4
997.725	27.38
998.08	27.46
998.436	27.43
998.791	27.44
999.147	27.47
999.502	27.46
999.857	27.39
1000.212	27.32
1000.567	27.24
1000.922	27.25
1001.277	27.18
1001.632	27.08
1001.987	26.99
1002.342	26.97
1002.696	26.91
1003.051	27.03
1003.406	27.11
1003.76	27.23
1004.114	27.25
1004.469	27.26
1004.823	27.42
1005.177	27.51
1005.531	27.69
1005.885	27.76
1006.239	27.74
1006.593	27.85
1006.947	27.83
1007.301	27.71
1007.655	27.54
1008.008	27.66
1008.362	27.73
1008.715	27.52
1009.069	27.54
1009.422	27.46
1009.776	27.32
1010.129	27.38
1010.482	27.33
1010.835	27.24
1011.188	27.44
1011.541	27.52
1011.894	27.49
1012.247	27.49
1012.6	27.51
1012.952	27.45
1013.305	27.47
1013.657	27.63
1014.01	27.59
1014.362	27.67
1014.715	27.81
1015.067	27.74
1015.419	27.82
1015.771	27.74
1016.123	27.66
1016.475	27.78
1016.827	27.9
1017.179	28.11
1017.531	28.12
1017.883	28.04
1018.234	28.03
1018.586	28.01
1018.938	28.01
1019.289	27.93
1019.64	28.08
1019.992	28.14
1020.343	28.09
1020.694	27.96
1021.045	27.73
1021.396	27.77
1021.747	28.02
1022.098	28.17
1022.449	28.11
1022.8	28.41
1023.151	28.3
1023.501	28.29
1023.852	28.55
1024.202	28.57
1024.553	28.53
1024.903	28.75
1025.253	28.81
1025.604	28.91
1025.954	28.67
1026.304	28.68
1026.654	28.49
1027.004	28.82
1027.354	28.79
1027.703	28.56
1028.053	28.66
1028.403	28.7
1028.753	28.57
1029.102	28.62
1029.452	28.58
1029.801	28.85
1030.15	28.9
1030.499	28.87
897.758	387.8
901.051	391.73
904.343	388.12
907.636	395.91
910.928	385.82
914.22	386.02
917.511	381.07
920.803	364.92
924.094	363.45
927.384	353.37
930.675	336.58
933.965	335.7
937.255	313.97
940.544	304.24
943.834	289.25
947.123	287.26
950.411	271.65
953.7	266.79
956.988	254.5
960.276	245.21
963.563	239.96
966.851	235.22
970.138	230.65
973.424	225.96
976.711	224.64
979.997	213.78
983.283	211.7
986.568	207.11
989.853	202.58
993.138	197.51
996.423	189.63
999.708	187.52
1002.992	183.95
1006.275	177.43
1009.559	174.34
1012.842	170.67
1016.125	168.25
1019.408	165.22
1022.69	163.11
1025.972	158.23
1029.254	155.51
1032.536	154.36
1035.817	149.35
1039.098	146.76
1042.379	144.47
1045.659	144.75
1048.939	140.04
1052.219	137.45
1055.498	134.83
1058.778	131.87
1062.057	129.3
1065.335	127.13
1068.614	125.87
1071.892	124.11
1075.17	123.34
1078.447	121.06
1081.724	118.67
1085.001	118.64
1088.278	116.34
1091.554	114.44
1094.83	114.71
1098.106	113.81
1101.382	113.59
1104.657	112.5
1107.932	110.84
1111.206	110.04
1114.481	108.13
1117.755	107.85
1121.029	106.34
1124.302	105.63
1127.575	104.29
1130.848	103.49
1134.121	102.66
1137.393	101.65
1140.665	99.66
1143.937	99.86
1147.208	99.4
1150.48	98.51
1153.75	96.96
1157.021	96.51
1160.291	96.06
1163.561	95.82
1166.831	94.38
1170.101	94.07
1173.37	94.45
1176.639	94.84
1179.907	93.51
1183.176	92.67
1186.444	92.65
1189.711	92.54
1192.979	91.94
1196.246	91.34
1199.513	91.31
1202.78	91.33
1206.046	91.17
1209.312	90
1212.578	90.05
1215.843	91.13
1219.108	90.47
1222.373	92.05
1225.638	92.7
1228.902	93.16
1232.166	94.26
1235.43	94.1
1238.693	95.61
1241.956	96.23
1245.219	97.8
1248.482	97.94
1251.744	97.44
1255.006	97.84
1258.268	96.29
1261.529	95.74
1264.79	95.92
1268.051	95.12
1271.312	94.71
1274.572	93.1
1277.832	92.53
1281.092	90
1284.351	89.38
1287.61	89.9
1290.869	88.32
1294.128	87.83
1297.386	87.16
1300.644	86.16
1303.902	85.43
1307.159	85.34
1310.416	85.24
1313.673	84.44
1316.93	85.53
1320.186	85.2
1323.442	84.88
1326.697	86.52
1329.953	86.53
1333.208	87.09
1336.463	87.35
1339.717	88.06
1342.972	89.01
1346.226	89.68
1349.479	90.25
1352.733	91.15
1355.986	91.49
1359.238	91.91
1362.491	91.48
1365.743	91.17
1368.995	91.18
1372.247	91.28
1375.498	91.04
1378.749	90.54
1382	90.09
1385.251	89.86
1388.501	88.91
1391.751	88.42
1395	88.27
1398.25	86.99
1401.499	86.73
1404.748	86.42
1407.996	85.63
1411.244	85.28
1414.492	84.27
1417.74	82.98
1420.987	81.81
1424.234	81.69
1427.481	80.26
1430.728	79.49
1433.974	79.81
1437.22	79
1440.465	78.55
1443.711	77.23
1446.956	76.09
1450.201	76.25
1453.445	75.3
1456.689	74.79
1459.933	73.57
1463.177	73.39
1466.42	72.3
1469.663	70.8
1472.906	70.25
1476.148	68.89
1479.391	68.68
1482.633	68.65
1485.874	67
1489.115	66.73
1492.356	66.67
1495.597	66.27
1498.838	66.07
1502.078	65.68
1505.318	65.69
1508.557	65.48
1511.797	65.35
1515.036	64.65
1518.274	64.63
1521.513	64.58
1524.751	64.08
1527.989	63.9
1531.227	63.9
1534.464	63.26
1537.701	63.34
1540.938	63.1
1544.174	63.29
1547.41	62.94
1550.646	62.93
1553.882	62.73
1557.117	62.48
1560.352	62.48
1563.587	62.09
1566.821	61.62
1570.055	61.31
1573.289	60.99
1576.523	61.08
1579.756	60.3
1582.989	60.43
1586.222	60.54
1589.454	59.53
1592.686	60.05
1595.918	59.92
1599.15	59.78
1602.381	59.9
1605.612	60.06
1608.843	60.15
1612.073	59.87
1615.303	60.3
1618.533	60.5
1621.762	60.5
1624.992	61.66
1628.221	61.24
1631.449	60.96
1634.678	61.07
1637.906	61.34
1641.134	61.36
1644.361	61.51
1647.588	61.87
1650.815	61.66
1654.042	61.88
1657.269	61.53
1660.495	61.55
1663.72	61.48
1666.946	61.79
1670.171	61.95
1673.396	62.03
1676.621	62.41
1679.845	62.38
1683.069	62.7
1686.293	62.68
1689.517	62.67
1692.74	63.08
1695.963	63.08
1699.185	63.14
1702.408	63.59
1705.63	63.71
1708.852	63.7
1712.073	63.5
1715.294	63.62
1718.515	63.77
1721.736	64
1724.956	64.21
1728.176	64.23
1731.396	64.32
1734.616	64.19
1737.835	64.39
1741.054	63.64
1744.272	64.11
1747.491	64.25
1750.709	64.28
1753.927	63.9
1757.144	64.11
1760.361	63.89
1763.578	63.93
1766.795	63.67
1770.011	64.43
1773.227	63.82
1776.443	64.78
1779.658	64.47
1782.874	64.78
1786.089	64.21
1789.303	64.78
1792.518	64.83
1795.732	65.04
1798.945	65.65
1802.159	66.04
1805.372	66.01
1808.585	67.08
1811.797	67
1815.01	67.27
1818.222	67.52
1821.434	68.17
1824.645	68.31
1827.856	69.32
1831.067	69.28
1834.278	69.82
1837.488	69.87
1840.698	70
1843.908	69.76
1847.117	70.08
1850.326	70.57
1853.535	70.46
1856.744	71.55
1859.952	71.24
1863.16	70.41
1866.368	70.02
1869.575	69.47
1872.782	68.93
1875.989	68.18
1879.196	68
1882.402	67.44
1885.608	67.08
1888.814	66.68
1892.019	65.8
1895.224	65.5
1898.429	65.65
1901.634	66.2
1904.838	66.6
1908.042	66.61
1911.246	67.18
1914.449	67.35
1917.652	67.44
1920.855	67.15
1924.058	66.91
1927.26	67.24
1930.462	66.6
1933.664	67.2
1936.865	67.14
1940.066	66.46
1943.267	66.61
1946.467	66.4
1949.668	67.03
1952.868	68.14
1956.067	68.68
1959.267	68.47
1962.466	68.76
1965.665	69.27
1968.863	69.93
1972.061	69.57
1975.259	70.05
1978.457	71.24
1981.654	71.9
1984.852	71.71
1988.048	71.25
1991.245	72.41
1994.441	73.27
1997.637	74.56
2000.833	75.58
2004.028	75.35
2007.223	77
2010.418	77.97
2013.613	79.13
2016.807	80.52
2020.001	81.42
2023.194	82.82
2026.388	84.53
2029.581	87.13
2032.774	87.35
2035.966	89.41
2039.158	90.32
2042.35	91.73
2045.542	91.56
2048.733	93.35
2051.924	94.06
2055.115	95.54
2058.306	95.84
2061.496	96.1
2064.686	96.04
2067.875	96.61
2071.065	96.89
2074.254	96.54
2077.442	98.07
2080.631	98.81
2083.819	98.82
2087.007	99.47
2090.195	100.41
2093.382	102.06
2096.569	101.68
2099.756	103.29
2102.942	103.96
2106.128	105.03
2109.314	107.63
2112.5	106.72
2115.685	109.91
2118.87	109.92
2122.055	112.45
2125.239	112.96
2128.424	112.99
2131.608	113.82
2134.791	114.8
2137.974	115.64
2141.157	116.2
2144.34	116.41
2147.523	116.41
2150.705	115.86
2153.887	118.37
2157.068	117.91
2160.25	117.3
2163.431	118.06
2166.611	119.55
2169.792	122.09
2172.972	122.74
2176.152	124.36
2179.331	125.37
2182.511	128.57
2185.69	128.96
2188.868	130.03
2192.047	131.56
2195.225	136.01
2198.403	137.97
2201.58	140.21
2204.758	142.5
2207.935	145.45
2211.111	146.98
2214.288	148.81
2217.464	149.53
2220.64	151.54
2223.815	152.74
2226.991	157.47
2230.166	157.03
2233.34	159.94
2236.515	164.12
2239.689	163.4
2242.863	164.44
2246.036	168.75
2249.209	168.86
2252.382	170.85
2255.555	176.13
2258.727	178.62
2261.9	180.13
2265.071	182.79
2268.243	185.72
2271.414	186.81
2274.585	190.78
2277.756	193.57
2280.926	197.15
2284.096	200.5
2287.266	205.54
2290.436	207.51
2293.605	210.92
2296.774	215.73
2299.942	220.71
2303.111	225.81
2306.279	229.61
2309.447	232.73
2312.614	239.04
2315.781	241.68
2318.948	253.96
2322.115	251.37
2325.281	264.41
2328.447	260.29
2331.613	269.2
2334.779	268.8
2337.944	276.07
2341.109	278.36
2344.274	290.08
2347.438	297.26
2350.602	298
2353.766	310.14
2356.929	314.54
2360.092	314.27
2363.255	334.22
2366.418	337.34
2369.58	342.08
2372.742	360.72
2375.904	371.2
2379.066	366.75
2382.227	363.79
2385.388	393.45
2388.548	391.52
2391.709	394.7
2394.869	436.36
2398.029	421.39
2401.188	433.61
2404.347	430.06
2407.506	427.41
2410.665	437.78
2413.823	461.63
2416.981	488.86
2420.139	474.7
2423.296	471.95
2426.453	490.73
2429.61	478.25
2432.767	497.35
2435.923	491.44
2439.079	533.71
2442.235	546.32
2445.391	541.6
2448.546	535.28
2451.701	522.01
2454.855	519.18
2458.009	537.77
2461.163	569.98
2464.317	585.22
2467.471	600.44
2470.624	605.77
2473.777	590.19
2476.929	574.41
2480.082	556.27
2483.234	554.12
2486.385	578.3
2489.537	586.92
2492.688	611.84
2495.839	591.66
2498.989	576.46
2502.14	578.13
2505.29	578.05
2508.439	593.7
2511.589	587.43
2514.738	649.68
2517.887	634.66
2521.035	673.4
2524.183	671.42
2527.331	680.06
2530.479	673.76
2533.627	681.19
