Data from N_1_DIV_PA_2n_Splice17_12-34-46-014.txt Node
Date: Sat Mar 07 12:34:46 EST 2020
User: sa697716
Spectrometer: NQ5500242
Trigger mode: 0
Integration Time (sec): 1.450000E-1
Scans to average: 20
Nonlinearity correction enabled: false
Boxcar width: 5
Storing dark spectrum: false
XAxis mode: Wavelengths
Number of Pixels in Spectrum: 512
>>>>>Begin Spectral Data<<<<<
187.83	82.63
188.298	95.35
188.766	63.41
189.233	61.78
189.701	59.89
190.169	67.32
190.636	28.45
191.104	-90.99
191.571	-356.31
192.039	-218.84
192.506	-462.49
192.974	183.08
193.441	321.07
193.908	92.42
194.375	63.7
194.842	8
195.31	69.54
195.777	131.96
196.244	36.42
196.711	31.92
197.177	33.39
197.644	33.37
198.111	32.34
198.578	33.04
199.045	32.99
199.511	32.95
199.978	32.73
200.445	32.47
200.911	32.31
201.378	32.3
201.844	32.5
202.31	32.17
202.777	32.09
203.243	32.47
203.709	32.1
204.176	32.04
204.642	32.18
205.108	32.43
205.574	32.43
206.04	32.07
206.506	31.92
206.972	31.81
207.438	31.83
207.903	31.47
208.369	30.77
208.835	30.23
209.301	29.82
209.766	29.03
210.232	28.63
210.697	28.15
211.163	27.76
211.628	27.19
212.094	26.66
212.559	26.25
213.024	25.82
213.49	25.44
213.955	25.12
214.42	24.77
214.885	24.47
215.35	23.76
215.815	23.03
216.28	22.12
216.745	21.17
217.21	20.22
217.675	19.44
218.14	18.72
218.604	18.15
219.069	17.6
219.534	17.09
219.998	16.64
220.463	16.31
220.927	15.94
221.392	15.68
221.856	15.47
222.32	15.26
222.785	15.04
223.249	14.86
223.713	14.68
224.177	14.51
224.642	14.35
225.106	14.18
225.57	14
226.034	13.84
226.497	13.7
226.961	13.55
227.425	13.4
227.889	13.26
228.353	13.12
228.816	12.97
229.28	12.82
229.744	12.68
230.207	12.55
230.671	12.41
231.134	12.29
231.597	12.19
232.061	12.04
232.524	11.92
232.987	11.8
233.45	11.7
233.914	11.58
234.377	11.47
234.84	11.34
235.303	11.23
235.766	11.15
236.229	11.04
236.691	10.93
237.154	10.84
237.617	10.75
238.08	10.65
238.542	10.53
239.005	10.44
239.468	10.34
239.93	10.27
240.393	10.19
240.855	10.09
241.317	10
241.78	9.91
242.242	9.81
242.704	9.74
243.166	9.66
243.629	9.59
244.091	9.51
244.553	9.44
245.015	9.35
245.477	9.28
245.939	9.2
246.4	9.14
246.862	9.07
247.324	9.01
247.786	8.94
248.247	8.87
248.709	8.79
249.17	8.72
249.632	8.67
250.093	8.62
250.555	8.56
251.016	8.5
251.477	8.44
251.939	8.39
252.4	8.34
252.861	8.29
253.322	8.26
253.783	8.22
254.244	8.18
254.705	8.13
255.166	8.08
255.627	8.04
256.088	8
256.549	7.96
257.009	7.92
257.47	7.87
257.931	7.82
258.391	7.76
258.852	7.72
259.312	7.68
259.773	7.64
260.233	7.61
260.694	7.57
261.154	7.53
261.614	7.5
262.074	7.46
262.534	7.43
262.994	7.41
263.455	7.38
263.915	7.35
264.374	7.33
264.834	7.31
265.294	7.29
265.754	7.27
266.214	7.25
266.673	7.23
267.133	7.21
267.593	7.19
268.052	7.16
268.512	7.15
268.971	7.13
269.431	7.11
269.89	7.08
270.349	7.06
270.809	7.04
271.268	7.02
271.727	6.99
272.186	6.97
272.645	6.96
273.104	6.94
273.563	6.92
274.022	6.9
274.481	6.88
274.94	6.86
275.399	6.84
275.857	6.82
276.316	6.8
276.775	6.77
277.233	6.76
277.692	6.73
278.15	6.71
278.609	6.68
279.067	6.66
279.525	6.64
279.984	6.61
280.442	6.59
280.9	6.57
281.358	6.54
281.816	6.53
282.274	6.5
282.732	6.48
283.19	6.45
283.648	6.43
284.106	6.4
284.564	6.38
285.021	6.36
285.479	6.34
285.937	6.32
286.394	6.31
286.852	6.28
287.309	6.26
287.767	6.24
288.224	6.22
288.682	6.19
289.139	6.17
289.596	6.14
290.053	6.11
290.511	6.08
290.968	6.06
291.425	6.03
291.882	6.01
292.339	6
292.796	5.98
293.252	5.97
293.709	5.96
294.166	5.95
294.623	5.93
295.079	5.92
295.536	5.9
295.992	5.88
296.449	5.87
296.905	5.85
297.362	5.83
297.818	5.81
298.274	5.79
298.731	5.77
299.187	5.75
299.643	5.73
300.099	5.71
300.555	5.69
301.011	5.68
301.467	5.66
301.923	5.64
302.379	5.62
302.835	5.61
303.291	5.59
303.746	5.58
304.202	5.56
304.658	5.55
305.113	5.53
305.569	5.52
306.024	5.5
306.479	5.49
306.935	5.47
307.39	5.45
307.845	5.44
308.301	5.43
308.756	5.41
309.211	5.39
309.666	5.39
310.121	5.36
310.576	5.34
311.031	5.33
311.486	5.32
311.94	5.32
312.395	5.3
312.85	5.3
313.305	5.28
313.759	5.27
314.214	5.27
314.668	5.25
315.123	5.24
315.577	5.22
316.032	5.21
316.486	5.2
316.94	5.18
317.394	5.16
317.849	5.14
318.303	5.13
318.757	5.12
319.211	5.1
319.665	5.08
320.119	5.07
320.572	5.06
321.026	5.05
321.48	5.04
321.934	5.03
322.387	5.01
322.841	5
323.295	4.98
323.748	4.96
324.202	4.95
324.655	4.94
325.108	4.93
325.562	4.92
326.015	4.91
326.468	4.91
326.921	4.9
327.374	4.89
327.827	4.88
328.28	4.87
328.733	4.87
329.186	4.86
329.639	4.86
330.092	4.85
330.545	4.84
330.997	4.82
331.45	4.81
331.903	4.8
332.355	4.81
332.808	4.8
333.26	4.79
333.713	4.78
334.165	4.77
334.617	4.76
335.069	4.75
335.522	4.74
335.974	4.74
336.426	4.73
336.878	4.72
337.33	4.7
337.782	4.69
338.234	4.7
338.686	4.69
339.137	4.69
339.589	4.68
340.041	4.68
340.493	4.66
340.944	4.65
341.396	4.64
341.847	4.62
342.299	4.6
342.75	4.58
343.201	4.56
343.653	4.55
344.104	4.52
344.555	4.5
345.006	4.47
345.457	4.47
345.908	4.46
346.359	4.46
346.81	4.45
347.261	4.44
347.712	4.43
348.163	4.42
348.613	4.41
349.064	4.41
349.515	4.4
349.965	4.4
350.416	4.38
350.866	4.38
351.317	4.35
351.767	4.35
352.217	4.34
352.668	4.34
353.118	4.33
353.568	4.32
354.018	4.32
354.468	4.31
354.918	4.31
355.368	4.31
355.818	4.31
356.268	4.3
356.718	4.3
357.168	4.29
357.617	4.28
358.067	4.29
358.517	4.29
358.966	4.28
359.416	4.28
359.865	4.27
360.315	4.26
360.764	4.26
361.213	4.26
361.663	4.25
362.112	4.26
362.561	4.27
363.01	4.26
363.459	4.25
363.908	4.24
364.357	4.24
364.806	4.23
365.255	4.22
365.703	4.23
366.152	4.23
366.601	4.23
367.05	4.22
367.498	4.21
367.947	4.21
368.395	4.21
368.844	4.21
369.292	4.2
369.74	4.2
370.189	4.2
370.637	4.2
371.085	4.2
371.533	4.21
371.981	4.2
372.429	4.2
372.877	4.2
373.325	4.2
373.773	4.19
374.221	4.21
374.669	4.2
375.116	4.19
375.564	4.19
376.012	4.19
376.459	4.18
376.907	4.19
377.354	4.2
377.801	4.21
378.249	4.22
378.696	4.23
379.143	4.24
379.591	4.25
380.038	4.27
380.485	4.28
380.932	4.29
381.379	4.3
381.826	4.32
382.273	4.32
382.72	4.32
383.166	4.34
383.613	4.34
384.06	4.35
384.506	4.37
384.953	4.38
385.4	4.39
385.846	4.42
386.292	4.44
386.739	4.45
387.185	4.47
387.631	4.5
388.078	4.52
388.524	4.55
388.97	4.57
389.416	4.6
389.862	4.63
390.308	4.67
390.754	4.69
391.2	4.71
391.645	4.74
392.091	4.78
392.537	4.8
392.983	4.82
393.428	4.84
393.874	4.87
394.319	4.89
394.765	4.9
395.21	4.92
395.655	4.94
396.101	4.97
396.546	4.98
396.991	4.99
397.436	5.02
397.881	5.05
398.326	5.07
398.771	5.1
399.216	5.11
399.661	5.14
400.106	5.15
400.551	5.15
400.995	5.14
401.44	5.15
401.885	5.15
402.329	5.17
402.774	5.16
403.218	5.17
403.663	5.17
404.107	5.17
404.551	5.17
404.995	5.17
405.44	5.18
405.884	5.18
406.328	5.19
406.772	5.18
407.216	5.18
407.66	5.18
408.104	5.16
408.547	5.17
408.991	5.17
409.435	5.17
409.879	5.15
410.322	5.15
410.766	5.16
411.209	5.16
411.653	5.17
412.096	5.17
412.54	5.16
412.983	5.16
413.426	5.18
413.869	5.18
414.312	5.19
414.756	5.2
415.199	5.21
415.642	5.21
416.085	5.2
416.527	5.19
416.97	5.17
417.413	5.17
417.856	5.17
418.298	5.15
418.741	5.15
419.184	5.14
419.626	5.13
420.069	5.12
420.511	5.11
420.953	5.11
421.396	5.11
421.838	5.11
422.28	5.11
422.722	5.11
423.164	5.12
423.606	5.12
424.048	5.11
424.49	5.12
424.932	5.11
425.374	5.1
425.816	5.06
426.258	5.05
426.699	5.04
427.141	5.03
427.582	5.02
428.024	5.01
428.465	5
428.907	4.99
429.348	4.97
429.789	4.96
430.231	4.97
430.672	4.99
431.113	4.99
431.554	5.01
431.995	5
432.436	5
432.877	5
433.318	5
433.759	5.01
434.2	5.04
434.64	5.05
435.081	5.05
435.522	5.06
435.962	5.07
436.403	5.08
436.843	5.1
437.284	5.1
437.724	5.11
438.164	5.12
438.604	5.13
439.045	5.13
439.485	5.14
439.925	5.16
440.365	5.17
440.805	5.18
441.245	5.18
441.685	5.21
442.125	5.25
442.564	5.27
443.004	5.26
443.444	5.26
443.883	5.28
444.323	5.28
444.762	5.29
445.202	5.31
445.641	5.34
446.081	5.38
446.52	5.38
446.959	5.4
447.398	5.43
447.837	5.47
448.276	5.51
448.716	5.54
449.154	5.57
449.593	5.59
450.032	5.61
450.471	5.61
450.91	5.61
451.349	5.63
451.787	5.61
452.226	5.61
452.664	5.6
453.103	5.6
453.541	5.61
453.98	5.61
454.418	5.61
454.856	5.6
455.295	5.6
455.733	5.59
456.171	5.59
456.609	5.59
457.047	5.59
457.485	5.57
457.923	5.57
458.361	5.55
458.798	5.56
459.236	5.55
459.674	5.56
460.111	5.56
460.549	5.57
460.987	5.57
461.424	5.58
461.862	5.59
462.299	5.61
462.736	5.6
463.173	5.61
463.611	5.59
464.048	5.59
464.485	5.58
464.922	5.58
465.359	5.58
465.796	5.57
466.233	5.57
466.67	5.57
467.106	5.59
467.543	5.59
467.98	5.59
468.416	5.6
468.853	5.61
469.29	5.62
469.726	5.62
470.162	5.62
470.599	5.61
471.035	5.6
471.471	5.6
471.907	5.59
472.344	5.59
472.78	5.59
473.216	5.58
473.652	5.58
474.088	5.56
474.523	5.57
474.959	5.58
475.395	5.57
475.831	5.57
476.266	5.57
476.702	5.56
477.138	5.55
477.573	5.55
478.008	5.56
478.444	5.56
478.879	5.57
479.314	5.55
479.75	5.54
480.185	5.54
480.62	5.55
481.055	5.54
481.49	5.54
481.925	5.54
482.36	5.53
482.795	5.53
483.229	5.53
483.664	5.53
484.099	5.54
484.534	5.54
484.968	5.57
485.403	5.57
485.837	5.59
486.271	5.6
486.706	5.63
487.14	5.64
487.574	5.66
488.009	5.68
488.443	5.7
488.877	5.74
489.311	5.77
489.745	5.79
490.179	5.84
490.613	5.88
491.046	5.93
491.48	5.97
491.914	6.03
492.348	6.09
492.781	6.15
493.215	6.21
493.648	6.27
494.082	6.34
494.515	6.41
494.948	6.48
495.382	6.55
495.815	6.64
496.248	6.73
496.681	6.82
497.114	6.91
497.547	7.01
497.98	7.11
498.413	7.22
498.846	7.33
499.279	7.45
499.711	7.57
500.144	7.7
500.577	7.84
501.009	7.97
501.442	8.12
501.874	8.28
502.306	8.43
502.739	8.6
503.171	8.77
503.603	8.95
504.036	9.14
504.468	9.33
504.9	9.52
505.332	9.72
505.764	9.93
506.196	10.14
506.627	10.37
507.059	10.6
507.491	10.83
507.923	11.08
508.354	11.34
508.786	11.59
509.217	11.86
509.649	12.14
510.08	12.42
510.512	12.7
510.943	12.97
511.374	13.25
511.805	13.54
512.237	13.83
512.668	14.13
513.099	14.41
513.53	14.71
513.961	15.01
514.391	15.31
514.822	15.62
515.253	15.91
515.684	16.21
516.114	16.53
516.545	16.84
516.975	17.16
517.406	17.46
517.836	17.77
518.267	18.08
518.697	18.38
519.127	18.65
519.558	18.96
519.988	19.27
520.418	19.57
520.848	19.84
521.278	20.13
521.708	20.42
522.138	20.7
522.567	20.98
522.997	21.22
523.427	21.47
523.857	21.73
524.286	21.94
524.716	22.17
525.145	22.39
525.575	22.6
526.004	22.8
526.433	22.97
526.863	23.15
527.292	23.33
527.721	23.51
528.15	23.67
528.579	23.84
529.008	23.99
529.437	24.13
529.866	24.27
530.295	24.4
530.724	24.51
531.152	24.63
531.581	24.74
532.01	24.86
532.438	24.95
532.867	25.05
533.295	25.14
533.723	25.23
534.152	25.32
534.58	25.4
535.008	25.47
535.436	25.56
535.865	25.63
536.293	25.7
536.721	25.74
537.149	25.81
537.576	25.87
538.004	25.91
538.432	25.95
538.86	26
539.287	26.04
539.715	26.09
540.143	26.13
540.57	26.16
540.998	26.17
541.425	26.23
541.852	26.26
542.28	26.28
542.707	26.31
543.134	26.35
543.561	26.39
543.988	26.41
544.415	26.43
544.842	26.45
545.269	26.48
545.696	26.52
546.123	26.53
546.549	26.55
546.976	26.58
547.403	26.6
547.829	26.61
548.256	26.6
548.682	26.61
549.108	26.63
549.535	26.65
549.961	26.65
550.387	26.64
550.813	26.64
551.24	26.63
551.666	26.61
552.092	26.6
552.518	26.58
552.943	26.56
553.369	26.54
553.795	26.51
554.221	26.46
554.646	26.43
555.072	26.4
555.498	26.34
555.923	26.28
556.349	26.23
556.774	26.15
557.199	26.09
557.625	26.02
558.05	25.95
558.475	25.87
558.9	25.8
559.325	25.71
559.75	25.63
560.175	25.56
560.6	25.44
561.025	25.35
561.449	25.25
561.874	25.15
562.299	25.03
562.723	24.91
563.148	24.78
563.572	24.64
563.997	24.51
564.421	24.36
564.846	24.23
565.27	24.09
565.694	23.95
566.118	23.81
566.542	23.65
566.966	23.51
567.39	23.36
567.814	23.21
568.238	23.06
568.662	22.92
569.086	22.76
569.509	22.62
569.933	22.49
570.357	22.33
570.78	22.18
571.204	22.04
571.627	21.9
572.05	21.76
572.474	21.64
572.897	21.51
573.32	21.36
573.743	21.23
574.166	21.1
574.589	20.95
575.012	20.83
575.435	20.71
575.858	20.59
576.281	20.48
576.704	20.35
577.126	20.23
577.549	20.11
577.972	20.02
578.394	19.92
578.817	19.8
579.239	19.72
579.661	19.63
580.084	19.54
580.506	19.46
580.928	19.37
581.35	19.29
581.772	19.19
582.194	19.11
582.616	19.03
583.038	18.94
583.46	18.87
583.882	18.79
584.303	18.72
584.725	18.64
585.147	18.54
585.568	18.46
585.99	18.4
586.411	18.35
586.833	18.29
587.254	18.22
587.675	18.17
588.096	18.12
588.518	18.06
588.939	18.02
589.36	17.96
589.781	17.93
590.202	17.89
590.623	17.84
591.043	17.8
591.464	17.76
591.885	17.72
592.305	17.69
592.726	17.66
593.147	17.64
593.567	17.59
593.987	17.56
594.408	17.52
594.828	17.47
595.248	17.43
595.669	17.39
596.089	17.35
596.509	17.32
596.929	17.27
597.349	17.21
597.769	17.18
598.189	17.14
598.608	17.1
599.028	17.07
599.448	17.04
599.867	17
600.287	16.96
600.706	16.92
601.126	16.87
601.545	16.82
601.965	16.79
602.384	16.72
602.803	16.65
603.222	16.6
603.641	16.53
604.061	16.46
604.48	16.38
604.898	16.3
605.317	16.22
605.736	16.14
606.155	16.06
606.574	15.96
606.992	15.88
607.411	15.8
607.829	15.68
608.248	15.59
608.666	15.51
609.085	15.43
609.503	15.34
609.921	15.26
610.339	15.17
610.758	15.09
611.176	15
611.594	14.91
612.012	14.82
612.43	14.75
612.847	14.67
613.265	14.58
613.683	14.49
614.101	14.42
614.518	14.33
614.936	14.25
615.353	14.16
615.771	14.09
616.188	14.01
616.606	13.93
617.023	13.87
617.44	13.82
617.857	13.75
618.274	13.69
618.691	13.62
619.108	13.57
619.525	13.51
619.942	13.47
620.359	13.42
620.776	13.39
621.192	13.37
621.609	13.33
622.026	13.29
622.442	13.26
622.859	13.23
623.275	13.21
623.691	13.2
624.108	13.19
624.524	13.17
624.94	13.17
625.356	13.16
625.772	13.15
626.188	13.14
626.604	13.13
627.02	13.12
627.436	13.12
627.852	13.12
628.268	13.1
628.683	13.1
629.099	13.1
629.514	13.08
629.93	13.05
630.345	13.03
630.761	13.01
631.176	12.99
631.591	12.96
632.007	12.92
632.422	12.89
632.837	12.84
633.252	12.79
633.667	12.72
634.082	12.65
634.497	12.6
634.911	12.52
635.326	12.45
635.741	12.37
636.155	12.27
636.57	12.17
636.984	12.06
637.399	11.96
637.813	11.84
638.228	11.73
638.642	11.62
639.056	11.49
639.47	11.38
639.884	11.25
640.298	11.1
640.712	10.98
641.126	10.85
641.54	10.72
641.954	10.59
642.368	10.46
642.781	10.33
643.195	10.2
643.609	10.07
644.022	9.94
644.436	9.82
644.849	9.71
645.262	9.6
645.676	9.48
646.089	9.37
646.502	9.27
646.915	9.18
647.328	9.09
647.741	9.01
648.154	8.93
648.567	8.84
648.98	8.77
649.393	8.69
649.805	8.63
650.218	8.56
650.631	8.5
651.043	8.44
651.456	8.38
651.868	8.31
652.28	8.24
652.693	8.17
653.105	8.11
653.517	8.04
653.929	7.98
654.341	7.89
654.753	7.81
655.165	7.73
655.577	7.65
655.989	7.55
656.401	7.45
656.813	7.37
657.224	7.27
657.636	7.17
658.047	7.07
658.459	6.95
658.87	6.84
659.282	6.73
659.693	6.62
660.104	6.52
660.515	6.42
660.926	6.32
661.338	6.22
661.749	6.12
662.159	6.02
662.57	5.95
662.981	5.86
663.392	5.78
663.803	5.71
664.213	5.63
664.624	5.55
665.035	5.48
665.445	5.42
665.855	5.36
666.266	5.3
666.676	5.26
667.086	5.2
667.497	5.16
667.907	5.12
668.317	5.08
668.727	5.05
669.137	5.03
669.547	5.01
669.956	4.98
670.366	4.97
670.776	4.95
671.186	4.94
671.595	4.93
672.005	4.92
672.414	4.92
672.824	4.91
673.233	4.91
673.642	4.91
674.052	4.92
674.461	4.93
674.87	4.94
675.279	4.96
675.688	4.97
676.097	5
676.506	5.03
676.915	5.06
677.323	5.11
677.732	5.14
678.141	5.18
678.549	5.22
678.958	5.27
679.366	5.33
679.775	5.39
680.183	5.47
680.592	5.56
681	5.65
681.408	5.76
681.816	5.88
682.224	6.02
682.632	6.17
683.04	6.35
683.448	6.54
683.856	6.74
684.264	6.97
684.671	7.22
685.079	7.5
685.487	7.81
685.894	8.14
686.302	8.5
686.709	8.88
687.116	9.28
687.524	9.7
687.931	10.16
688.338	10.63
688.745	11.12
689.152	11.64
689.559	12.17
689.966	12.74
690.373	13.31
690.78	13.9
691.187	14.5
691.593	15.1
692	15.73
692.407	16.34
692.813	16.97
693.22	17.61
693.626	18.25
694.032	18.88
694.439	19.48
694.845	20.11
695.251	20.71
695.657	21.31
696.063	21.91
696.469	22.5
696.875	23.11
697.281	23.69
697.687	24.26
698.093	24.82
698.498	25.36
698.904	25.9
699.31	26.4
699.715	26.91
700.12	27.41
700.526	27.91
700.931	28.41
701.337	28.86
701.742	29.3
702.147	29.75
702.552	30.17
702.957	30.56
703.362	30.96
703.767	31.37
704.172	31.76
704.577	32.14
704.981	32.48
705.386	32.82
705.791	33.17
706.195	33.52
706.6	33.85
707.004	34.18
707.408	34.53
707.813	34.86
708.217	35.16
708.621	35.46
709.025	35.75
709.43	36.03
709.834	36.33
710.237	36.62
710.641	36.9
711.045	37.16
711.449	37.44
711.853	37.7
712.256	37.95
712.66	38.22
713.064	38.48
713.467	38.73
713.87	38.98
714.274	39.19
714.677	39.4
715.08	39.62
715.484	39.84
715.887	40.05
716.29	40.23
716.693	40.43
717.096	40.6
717.499	40.78
717.901	40.98
718.304	41.17
718.707	41.37
719.109	41.54
719.512	41.71
719.915	41.88
720.317	42.03
720.719	42.15
721.122	42.3
721.524	42.46
721.926	42.6
722.328	42.73
722.731	42.85
723.133	42.98
723.535	43.11
723.937	43.24
724.338	43.35
724.74	43.46
725.142	43.65
725.544	43.76
725.945	43.87
726.347	43.96
726.748	44.05
727.15	44.15
727.551	44.22
727.952	44.3
728.354	44.4
728.755	44.47
729.156	44.55
729.557	44.56
729.958	44.6
730.359	44.65
730.76	44.74
731.161	44.8
731.562	44.87
731.962	44.92
732.363	44.98
732.763	45.03
733.164	45.07
733.564	45.12
733.965	45.18
734.365	45.27
734.766	45.33
735.166	45.37
735.566	45.43
735.966	45.46
736.366	45.52
736.766	45.54
737.166	45.58
737.566	45.61
737.966	45.65
738.365	45.7
738.765	45.71
739.165	45.74
739.564	45.78
739.964	45.79
740.363	45.79
740.763	45.83
741.162	45.87
741.561	45.88
741.96	45.89
742.36	45.91
742.759	45.93
743.158	45.97
743.557	45.95
743.955	45.96
744.354	45.99
744.753	46.02
745.152	46.05
745.55	46.06
745.949	46.09
746.348	46.11
746.746	46.11
747.144	46.12
747.543	46.12
747.941	46.16
748.339	46.15
748.737	46.16
749.136	46.16
749.534	46.14
749.932	46.14
750.33	46.14
750.727	46.16
751.125	46.17
751.523	46.16
751.921	46.16
752.318	46.18
752.716	46.2
753.113	46.21
753.511	46.22
753.908	46.25
754.305	46.24
754.703	46.2
755.1	46.19
755.497	46.2
755.894	46.2
756.291	46.18
756.688	46.13
757.085	46.12
757.482	46.1
757.878	46.1
758.275	46.08
758.672	46.11
759.068	46.18
759.465	46.18
759.861	46.17
760.258	46.18
760.654	46.19
761.05	46.2
761.447	46.22
761.843	46.23
762.239	46.23
762.635	46.22
763.031	46.2
763.427	46.15
763.822	46.16
764.218	46.18
764.614	46.16
765.01	46.14
765.405	46.12
765.801	46.1
766.196	46.07
766.592	46.06
766.987	46.07
767.382	46.04
767.778	46.02
768.173	46.03
768.568	45.98
768.963	46
769.358	46.03
769.753	46.06
770.148	46.08
770.542	46.1
770.937	46.07
771.332	46.06
771.726	46.07
772.121	46.07
772.515	46.05
772.91	46.05
773.304	46.04
773.699	46.05
774.093	46.03
774.487	46
774.881	46
775.275	46
775.669	45.96
776.063	45.96
776.457	45.97
776.851	45.95
777.245	45.95
777.638	45.9
778.032	45.9
778.425	45.9
778.819	45.89
779.212	45.9
779.606	45.94
779.999	45.97
780.392	46
780.786	45.97
781.179	45.99
781.572	46.02
781.965	46.05
782.358	46.03
782.751	46.02
783.143	46.01
783.536	45.98
783.929	45.96
784.322	45.98
784.714	45.97
785.107	45.99
785.499	45.98
785.891	45.99
786.284	46.02
786.676	46.03
787.068	46.03
787.46	46.05
787.852	46.06
788.245	46.05
788.636	46.03
789.028	46.03
789.42	46.01
789.812	46.04
790.204	46.01
790.595	46
790.987	46
791.378	45.99
791.77	46
792.161	46.02
792.553	46.02
792.944	46
793.335	45.98
793.726	46.01
794.117	45.99
794.508	45.96
794.899	45.92
795.29	45.9
795.681	45.88
796.072	45.84
796.463	45.82
796.853	45.79
797.244	45.79
797.634	45.82
798.025	45.8
798.415	45.78
798.806	45.78
799.196	45.8
799.586	45.79
799.976	45.81
800.366	45.83
800.756	45.84
801.146	45.87
801.536	45.85
801.926	45.84
802.316	45.83
802.706	45.84
803.095	45.85
803.485	45.83
803.874	45.84
804.264	45.86
804.653	45.83
805.043	45.82
805.432	45.81
805.821	45.82
806.21	45.82
806.599	45.84
806.988	45.83
807.377	45.84
807.766	45.84
808.155	45.83
808.544	45.8
808.933	45.81
809.321	45.8
809.71	45.82
810.098	45.81
810.487	45.81
810.875	45.76
811.264	45.78
811.652	45.77
812.04	45.78
812.428	45.8
812.816	45.8
813.204	45.76
813.592	45.77
813.98	45.74
814.368	45.74
814.756	45.71
815.144	45.73
815.531	45.68
815.919	45.67
816.306	45.67
816.694	45.64
817.081	45.63
817.469	45.66
817.856	45.64
818.243	45.65
818.63	45.64
819.017	45.67
819.404	45.65
819.791	45.67
820.178	45.66
820.565	45.65
820.952	45.67
821.339	45.66
821.725	45.67
822.112	45.7
822.498	45.71
822.885	45.74
823.271	45.71
823.657	45.7
824.044	45.7
824.43	45.72
824.816	45.7
825.202	45.68
825.588	45.67
825.974	45.67
826.36	45.65
826.746	45.62
827.132	45.6
827.517	45.62
827.903	45.68
828.289	45.7
828.674	45.69
829.06	45.7
829.445	45.68
829.83	45.68
830.216	45.67
830.601	45.69
830.986	45.69
831.371	45.67
831.756	45.65
832.141	45.61
832.526	45.6
832.911	45.58
833.295	45.58
833.68	45.6
834.065	45.61
834.449	45.63
834.834	45.59
835.218	45.59
835.603	45.57
835.987	45.57
836.371	45.57
836.755	45.57
837.139	45.56
837.524	45.6
837.908	45.62
838.291	45.63
838.675	45.63
839.059	45.66
839.443	45.67
839.827	45.68
840.21	45.68
840.594	45.69
840.977	45.68
841.361	45.69
841.744	45.64
842.127	45.63
842.511	45.61
842.894	45.61
843.277	45.61
843.66	45.58
844.043	45.59
844.426	45.62
844.809	45.62
845.191	45.63
845.574	45.61
845.957	45.64
846.339	45.63
846.722	45.63
847.104	45.65
847.487	45.62
847.869	45.64
848.252	45.65
848.634	45.65
849.016	45.65
849.398	45.63
849.78	45.66
850.162	45.63
850.544	45.62
850.926	45.63
851.307	45.63
851.689	45.64
852.071	45.65
852.452	45.62
852.834	45.62
853.215	45.62
853.597	45.64
853.978	45.63
854.359	45.65
854.741	45.67
855.122	45.66
855.503	45.65
855.884	45.62
856.265	45.64
856.646	45.64
857.026	45.65
857.407	45.64
857.788	45.63
858.169	45.64
858.549	45.63
858.93	45.62
859.31	45.61
859.69	45.59
860.071	45.62
860.451	45.61
860.831	45.62
861.211	45.58
861.591	45.57
861.971	45.56
862.351	45.55
862.731	45.55
863.111	45.53
863.491	45.54
863.87	45.55
864.25	45.53
864.629	45.5
865.009	45.5
865.388	45.5
865.768	45.5
866.147	45.51
866.526	45.5
866.905	45.5
867.284	45.51
867.663	45.5
868.042	45.48
868.421	45.5
868.8	45.51
869.179	45.52
869.558	45.51
869.936	45.52
870.315	45.5
870.693	45.49
871.072	45.5
871.45	45.5
871.828	45.52
872.207	45.54
872.585	45.54
872.963	45.54
873.341	45.52
873.719	45.53
874.097	45.51
874.475	45.53
874.853	45.56
875.23	45.58
875.608	45.58
875.986	45.58
876.363	45.56
876.741	45.54
877.118	45.53
877.495	45.55
877.873	45.56
878.25	45.58
878.627	45.57
879.004	45.56
879.381	45.56
879.758	45.53
880.135	45.55
880.512	45.54
880.889	45.54
881.265	45.53
881.642	45.53
882.019	45.53
882.395	45.51
882.772	45.51
883.148	45.48
883.524	45.47
883.901	45.45
884.277	45.45
884.653	45.43
885.029	45.43
885.405	45.42
885.781	45.43
886.157	45.43
886.532	45.44
886.908	45.44
887.284	45.44
887.659	45.43
888.035	45.45
888.411	45.44
888.786	45.48
889.161	45.5
889.537	45.5
889.912	45.48
890.287	45.49
890.662	45.49
891.037	45.5
891.412	45.47
891.787	45.44
892.162	45.43
892.536	45.41
892.911	45.4
893.286	45.38
893.66	45.39
894.035	45.38
894.409	45.36
894.784	45.36
895.158	45.34
895.532	45.36
895.906	45.38
896.281	45.38
896.655	45.38
897.029	45.37
897.402	45.38
897.776	45.36
898.15	45.35
898.524	45.35
898.898	45.32
899.271	45.33
899.645	45.32
900.018	45.33
900.392	45.36
900.765	45.36
901.138	45.38
901.511	45.37
901.884	45.38
902.258	45.41
902.631	45.41
903.003	45.44
903.376	45.44
903.749	45.43
904.122	45.45
904.495	45.43
904.867	45.45
905.24	45.45
905.612	45.45
905.985	45.43
906.357	45.4
906.729	45.41
907.102	45.43
907.474	45.44
907.846	45.44
908.218	45.41
908.59	45.4
908.962	45.39
909.334	45.4
909.705	45.43
910.077	45.44
910.449	45.46
910.82	45.45
911.192	45.44
911.563	45.41
911.935	45.38
912.306	45.43
912.677	45.44
913.048	45.44
913.419	45.39
913.79	45.39
914.161	45.39
914.532	45.37
914.903	45.36
915.274	45.34
915.645	45.38
916.015	45.42
916.386	45.37
916.756	45.38
917.127	45.41
917.497	45.42
917.868	45.38
918.238	45.36
918.608	45.39
918.978	45.38
919.348	45.4
919.718	45.38
920.088	45.36
920.458	45.38
920.828	45.36
921.198	45.32
921.567	45.31
921.937	45.31
922.306	45.27
922.676	45.22
923.045	45.22
923.415	45.19
923.784	45.18
924.153	45.18
924.522	45.14
924.891	45.09
925.26	45.09
925.629	45.1
925.998	45.1
926.367	45.15
926.736	45.15
927.104	45.15
927.473	45.13
927.842	45.11
928.21	45.11
928.578	45.1
928.947	45.14
929.315	45.13
929.683	45.11
930.051	45.1
930.42	45.1
930.788	45.09
931.156	45.07
931.523	45.08
931.891	45.08
932.259	45.1
932.627	45.1
932.994	45.07
933.362	45.03
933.729	45.07
934.097	45.08
934.464	45.11
934.831	45.12
935.199	45.13
935.566	45.11
935.933	45.14
936.3	45.08
936.667	45.09
937.034	45.1
937.401	45.11
937.767	45.08
938.134	45.08
938.501	45.06
938.867	45.04
939.234	45
939.6	45
939.967	44.99
940.333	45.01
940.699	45.05
941.065	44.99
941.431	45.01
941.798	44.99
942.163	44.95
942.529	44.87
942.895	44.85
943.261	44.87
943.627	44.87
943.992	44.83
944.358	44.83
944.723	44.78
945.089	44.78
945.454	44.83
945.82	44.86
946.185	44.9
946.55	44.92
946.915	44.93
947.28	44.91
947.645	44.91
948.01	44.91
948.375	44.89
948.74	44.93
949.104	44.98
949.469	44.95
949.834	44.89
950.198	44.83
950.562	44.8
950.927	44.8
951.291	44.79
951.655	44.77
952.02	44.75
952.384	44.7
952.748	44.63
953.112	44.62
953.476	44.57
953.839	44.56
954.203	44.52
954.567	44.49
954.931	44.46
955.294	44.43
955.658	44.48
956.021	44.48
956.385	44.48
956.748	44.46
957.111	44.39
957.474	44.36
957.837	44.32
958.2	44.35
958.563	44.37
958.926	44.37
959.289	44.38
959.652	44.31
960.015	44.27
960.377	44.3
960.74	44.34
961.102	44.38
961.465	44.42
961.827	44.48
962.189	44.49
962.552	44.47
962.914	44.42
963.276	44.45
963.638	44.5
964	44.52
964.362	44.57
964.724	44.58
965.085	44.52
965.447	44.46
965.809	44.46
966.17	44.47
966.532	44.45
966.893	44.56
967.255	44.53
967.616	44.51
967.977	44.52
968.338	44.43
968.699	44.44
969.061	44.48
969.421	44.52
969.782	44.48
970.143	44.42
970.504	44.44
970.865	44.39
971.225	44.37
971.586	44.3
971.946	44.32
972.307	44.32
972.667	44.24
973.027	44.25
973.388	44.28
973.748	44.26
974.108	44.31
974.468	44.28
974.828	44.3
975.188	44.31
975.548	44.32
975.907	44.23
976.267	44.27
976.627	44.28
976.986	44.24
977.346	44.15
977.705	44.13
978.064	44.14
978.424	44.12
978.783	44.07
979.142	44.03
979.501	44.1
979.86	44.19
980.219	44.17
980.578	44.18
980.937	44.19
981.296	44.22
981.654	44.29
982.013	44.24
982.371	44.25
982.73	44.25
983.088	44.27
983.447	44.28
983.805	44.24
984.163	44.21
984.521	44.18
984.879	44.16
985.237	44.19
985.595	44.16
985.953	44.16
986.311	44.12
986.669	44.11
987.026	44.16
987.384	44.11
987.741	44.01
988.099	44.03
988.456	44.05
988.814	44.07
989.171	44.03
989.528	43.96
989.885	43.94
990.242	43.99
990.599	44
990.956	43.98
991.313	43.97
991.67	44.07
992.027	44.15
992.383	44.18
992.74	44.17
993.096	44.22
993.453	44.18
993.809	44.23
994.165	44.25
994.522	44.25
994.878	44.21
995.234	44.23
995.59	44.15
995.946	44.1
996.302	44.04
996.658	44.06
997.013	44.01
997.369	44.14
997.725	44.12
998.08	44.18
998.436	44.16
998.791	44.26
999.147	44.18
999.502	44.25
999.857	44.17
1000.212	44.11
1000.567	44.04
1000.922	44
1001.277	44.01
1001.632	43.95
1001.987	43.86
1002.342	43.78
1002.696	43.68
1003.051	43.73
1003.406	43.83
1003.76	43.86
1004.114	43.94
1004.469	43.99
1004.823	44.25
1005.177	44.14
1005.531	44.17
1005.885	44.17
1006.239	44.26
1006.593	44.35
1006.947	44.29
1007.301	44.07
1007.655	43.96
1008.008	43.96
1008.362	43.97
1008.715	43.74
1009.069	43.99
1009.422	44
1009.776	44.1
1010.129	44.16
1010.482	44.08
1010.835	44.15
1011.188	44.15
1011.541	44.26
1011.894	44.2
1012.247	44.2
1012.6	44.16
1012.952	43.96
1013.305	43.99
1013.657	43.92
1014.01	43.8
1014.362	43.91
1014.715	43.91
1015.067	44.05
1015.419	44.01
1015.771	44.07
1016.123	44.11
1016.475	44.13
1016.827	44.17
1017.179	44.25
1017.531	44.32
1017.883	44.42
1018.234	44.32
1018.586	44.35
1018.938	44.52
1019.289	44.43
1019.64	44.32
1019.992	44.34
1020.343	44.44
1020.694	44.45
1021.045	44.3
1021.396	44.21
1021.747	44.13
1022.098	44.12
1022.449	44.01
1022.8	43.92
1023.151	43.9
1023.501	43.99
1023.852	43.81
1024.202	43.53
1024.553	43.46
1024.903	43.51
1025.253	43.65
1025.604	43.51
1025.954	43.49
1026.304	43.72
1026.654	43.68
1027.004	43.75
1027.354	43.65
1027.703	43.46
1028.053	43.62
1028.403	43.34
1028.753	42.99
1029.102	42.9
1029.452	43.15
1029.801	43.32
1030.15	43
1030.499	42.72
897.758	720.72
901.051	729.12
904.343	731.71
907.636	743.44
910.928	722.91
914.22	723.42
917.511	713.09
920.803	683.53
924.094	678.98
927.384	663.03
930.675	637.8
933.965	639.2
937.255	601.09
940.544	576.64
943.834	551.42
947.123	546.66
950.411	516.53
953.7	507.96
956.988	481.05
960.276	464.26
963.563	454.97
966.851	441.15
970.138	437.15
973.424	425.12
976.711	426.09
979.997	405.28
983.283	402.7
986.568	394.47
989.853	384.43
993.138	376.83
996.423	363.68
999.708	354.45
1002.992	349.26
1006.275	333.45
1009.559	329.24
1012.842	318.18
1016.125	312.22
1019.408	307.21
1022.69	303.63
1025.972	296.19
1029.254	290.13
1032.536	285.56
1035.817	280.84
1039.098	277.59
1042.379	272.06
1045.659	270.25
1048.939	264.01
1052.219	258.24
1055.498	255.28
1058.778	249.07
1062.057	244.48
1065.335	242.08
1068.614	239.02
1071.892	236.1
1075.17	230.13
1078.447	227.2
1081.724	224.67
1085.001	223.12
1088.278	218.5
1091.554	214.49
1094.83	214.06
1098.106	213.01
1101.382	211.5
1104.657	210.65
1107.932	206.73
1111.206	207.32
1114.481	202.75
1117.755	201.34
1121.029	199.93
1124.302	199.44
1127.575	196.67
1130.848	195.48
1134.121	193.05
1137.393	191.85
1140.665	188.05
1143.937	187.43
1147.208	186.43
1150.48	185.71
1153.75	183.91
1157.021	181.89
1160.291	181.84
1163.561	179.22
1166.831	178.74
1170.101	177.63
1173.37	178.12
1176.639	178.33
1179.907	176.89
1183.176	174.25
1186.444	174.62
1189.711	173.71
1192.979	173.49
1196.246	172.99
1199.513	174.41
1202.78	173.44
1206.046	173.61
1209.312	171.13
1212.578	171.28
1215.843	172.4
1219.108	172.12
1222.373	174.58
1225.638	175.92
1228.902	177.15
1232.166	177.96
1235.43	178.72
1238.693	181.01
1241.956	180.57
1245.219	183.73
1248.482	183.74
1251.744	184.08
1255.006	184.74
1258.268	180.91
1261.529	180.34
1264.79	179.04
1268.051	177.31
1271.312	175.02
1274.572	173.29
1277.832	172.95
1281.092	169.6
1284.351	168.62
1287.61	168.5
1290.869	166.73
1294.128	165.9
1297.386	165.35
1300.644	164.01
1303.902	164.49
1307.159	163.81
1310.416	163.76
1313.673	163.23
1316.93	164.75
1320.186	164.13
1323.442	164.61
1326.697	166.14
1329.953	166.72
1333.208	167.53
1336.463	169.18
1339.717	169.05
1342.972	171.36
1346.226	172.25
1349.479	172.73
1352.733	173.9
1355.986	175.38
1359.238	174.97
1362.491	175.23
1365.743	176.39
1368.995	174.86
1372.247	175.9
1375.498	175.78
1378.749	175.83
1382	174.12
1385.251	173.85
1388.501	172.69
1391.751	172.13
1395	171.78
1398.25	170.61
1401.499	168.95
1404.748	169.62
1407.996	166.66
1411.244	165.51
1414.492	164.09
1417.74	162.38
1420.987	160.79
1424.234	159.67
1427.481	157.56
1430.728	156.94
1433.974	156.18
1437.22	154.66
1440.465	154.25
1443.711	152.67
1446.956	151.52
1450.201	150.35
1453.445	148.96
1456.689	148.43
1459.933	145.61
1463.177	144.96
1466.42	142.88
1469.663	140.7
1472.906	140.1
1476.148	137.35
1479.391	135.94
1482.633	135.25
1485.874	133.36
1489.115	132.57
1492.356	131.3
1495.597	131.68
1498.838	130.12
1502.078	129.56
1505.318	129.54
1508.557	129.52
1511.797	129.01
1515.036	128.69
1518.274	127.63
1521.513	127.34
1524.751	126.99
1527.989	126.97
1531.227	127.01
1534.464	126.65
1537.701	126.05
1540.938	125.7
1544.174	124.35
1547.41	124.24
1550.646	123.54
1553.882	124.38
1557.117	123.15
1560.352	122.37
1563.587	122.51
1566.821	121.76
1570.055	121.43
1573.289	121.18
1576.523	121.22
1579.756	120.29
1582.989	120.32
1586.222	120.28
1589.454	119.63
1592.686	120.67
1595.918	120.35
1599.15	119.42
1602.381	119.79
1605.612	119.84
1608.843	119.53
1612.073	119.45
1615.303	120.37
1618.533	120.33
1621.762	120.1
1624.992	121.06
1628.221	120.54
1631.449	120.49
1634.678	120.86
1637.906	121.06
1641.134	120.71
1644.361	120.78
1647.588	121.08
1650.815	120.89
1654.042	120.47
1657.269	121.26
1660.495	120.58
1663.72	120.01
1666.946	120.81
1670.171	120.67
1673.396	120.52
1676.621	120.82
1679.845	121.43
1683.069	121.35
1686.293	122.01
1689.517	122.15
1692.74	122.04
1695.963	122.27
1699.185	123.38
1702.408	123.37
1705.63	123.96
1708.852	124.57
1712.073	124.51
1715.294	124.4
1718.515	125.36
1721.736	125.19
1724.956	125.64
1728.176	125.68
1731.396	126.36
1734.616	125.91
1737.835	126.2
1741.054	125.54
1744.272	125.34
1747.491	126.46
1750.709	126.67
1753.927	126.03
1757.144	126.02
1760.361	126.35
1763.578	126.6
1766.795	125.85
1770.011	126.8
1773.227	126.87
1776.443	127.63
1779.658	127.9
1782.874	127.94
1786.089	127.88
1789.303	128.4
1792.518	129.12
1795.732	129.12
1798.945	129.91
1802.159	130.78
1805.372	131.16
1808.585	132.57
1811.797	133.05
1815.01	133.49
1818.222	134.07
1821.434	135.54
1824.645	135.62
1827.856	138.06
1831.067	138.66
1834.278	138.7
1837.488	139.48
1840.698	139.69
1843.908	139.11
1847.117	139.8
1850.326	140.59
1853.535	138.69
1856.744	140.33
1859.952	140.1
1863.16	138.25
1866.368	137.07
1869.575	137.41
1872.782	135.13
1875.989	133.87
1879.196	132.94
1882.402	131.24
1885.608	130.87
1888.814	131.53
1892.019	128.89
1895.224	128.21
1898.429	127.51
1901.634	127.67
1904.838	127.62
1908.042	128.36
1911.246	128.14
1914.449	128.41
1917.652	128.48
1920.855	127.83
1924.058	127.56
1927.26	127.54
1930.462	127.25
1933.664	128.46
1936.865	128.07
1940.066	127.35
1943.267	126.01
1946.467	126.59
1949.668	126.93
1952.868	128.46
1956.067	128.83
1959.267	129.21
1962.466	129.86
1965.665	129.98
1968.863	130.89
1972.061	132.07
1975.259	133.32
1978.457	135.29
1981.654	136.19
1984.852	136.87
1988.048	136.24
1991.245	137.61
1994.441	138.95
1997.637	140.27
2000.833	143.08
2004.028	144.05
2007.223	146.15
2010.418	147.52
2013.613	149.81
2016.807	152.29
2020.001	155.06
2023.194	157.18
2026.388	160.8
2029.581	164.59
2032.774	165.85
2035.966	168.49
2039.158	169.43
2042.35	172.78
2045.542	173.38
2048.733	177.06
2051.924	178.88
2055.115	181.2
2058.306	181.96
2061.496	183.43
2064.686	183.92
2067.875	187
2071.065	188.47
2074.254	187.93
2077.442	188.95
2080.631	190.04
2083.819	191.55
2087.007	191.47
2090.195	193.2
2093.382	195.32
2096.569	195.05
2099.756	197.97
2102.942	198.85
2106.128	200.38
2109.314	204.97
2112.5	205.36
2115.685	209.84
2118.87	209.99
2122.055	215.29
2125.239	215.91
2128.424	219.16
2131.608	219.98
2134.791	223.21
2137.974	223.75
2141.157	224.87
2144.34	225.46
2147.523	227.93
2150.705	226.88
2153.887	229.63
2157.068	229.74
2160.25	228.47
2163.431	228.72
2166.611	230.89
2169.792	235.91
2172.972	237.9
2176.152	238.95
2179.331	241.93
2182.511	245.85
2185.69	247.64
2188.868	252.27
2192.047	253.04
2195.225	260.83
2198.403	266.15
2201.58	272.25
2204.758	274.25
2207.935	280.4
2211.111	285.42
2214.288	287.96
2217.464	288.13
2220.64	294.47
2223.815	296.89
2226.991	307.28
2230.166	306.56
2233.34	311.96
2236.515	316.37
2239.689	318.07
2242.863	319.28
2246.036	327.81
2249.209	326.69
2252.382	332.85
2255.555	342.35
2258.727	344.36
2261.9	347.25
2265.071	351.62
2268.243	356.57
2271.414	361.06
2274.585	369.28
2277.756	372.91
2280.926	376.87
2284.096	384.68
2287.266	390.8
2290.436	392.62
2293.605	400.19
2296.774	411.45
2299.942	425.53
2303.111	428.41
2306.279	435.69
2309.447	439.52
2312.614	451.29
2315.781	461.38
2318.948	482.21
2322.115	478.77
2325.281	506.95
2328.447	493.46
2331.613	512.02
2334.779	505.11
2337.944	527.08
2341.109	531.75
2344.274	548.78
2347.438	566.15
2350.602	567.07
2353.766	582.55
2356.929	591.37
2360.092	584.36
2363.255	629.46
2366.418	631.4
2369.58	639.61
2372.742	676.43
2375.904	697.29
2379.066	692.88
2382.227	681.33
2385.388	737.36
2388.548	739.34
2391.709	745.97
2394.869	830.05
2398.029	797.35
2401.188	818.34
2404.347	813.66
2407.506	803.66
2410.665	822.68
2413.823	870.31
2416.981	922.87
2420.139	891.74
2423.296	887.3
2426.453	926.83
2429.61	886.15
2432.767	926.99
2435.923	913.23
2439.079	1002.28
2442.235	1016.9
2445.391	1009.83
2448.546	1000.43
2451.701	975.68
2454.855	977.12
2458.009	1028.66
2461.163	1072.11
2464.317	1117.11
2467.471	1143.98
2470.624	1148.54
2473.777	1121.21
2476.929	1089.42
2480.082	1053.11
2483.234	1045.81
2486.385	1096.33
2489.537	1100.1
2492.688	1138.57
2495.839	1112.89
2498.989	1088.73
2502.14	1092.64
2505.29	1098.01
2508.439	1110.51
2511.589	1113.15
2514.738	1212.19
2517.887	1184.14
2521.035	1252.01
2524.183	1257.59
2527.331	1271.09
2530.479	1254.82
2533.627	1263.44
