Data from N_1_HIR_WI_4n_Splice17_12-15-27-817.txt Node
Date: Sat Mar 07 12:15:27 EST 2020
User: sa697716
Spectrometer: NQ5500242
Trigger mode: 0
Integration Time (sec): 1.450000E-1
Scans to average: 20
Nonlinearity correction enabled: false
Boxcar width: 5
Storing dark spectrum: false
XAxis mode: Wavelengths
Number of Pixels in Spectrum: 512
>>>>>Begin Spectral Data<<<<<
187.83	127.12
188.298	151.76
188.766	120.63
189.233	87.58
189.701	90.03
190.169	99.15
190.636	57.29
191.104	-48.11
191.571	-189.36
192.039	-348.1
192.506	-1027.05
192.974	113.62
193.441	181.26
193.908	19.16
194.375	18.17
194.842	-61.21
195.31	-41.77
195.777	-415.06
196.244	23.16
196.711	48.46
197.177	51.04
197.644	51.48
198.111	52.28
198.578	52.81
199.045	53.44
199.511	53.47
199.978	54.09
200.445	53.82
200.911	54.02
201.378	54.24
201.844	54.47
202.31	54.02
202.777	54.29
203.243	54.53
203.709	54.48
204.176	54.01
204.642	53.48
205.108	53.34
205.574	53.34
206.04	52.91
206.506	52.2
206.972	51.99
207.438	51.88
207.903	51.46
208.369	50.47
208.835	50.02
209.301	49.24
209.766	48.28
210.232	47.04
210.697	45.95
211.163	45.2
211.628	44.43
212.094	43.58
212.559	42.89
213.024	41.87
213.49	41.07
213.955	40.06
214.42	39.38
214.885	38.7
215.35	37.74
215.815	36.57
216.28	34.76
216.745	32.86
217.21	30.86
217.675	29.04
218.14	27.64
218.604	26.37
219.069	25.25
219.534	24.24
219.998	23.43
220.463	22.76
220.927	22.08
221.392	21.57
221.856	21.13
222.32	20.71
222.785	20.39
223.249	20.04
223.713	19.69
224.177	19.42
224.642	19.15
225.106	18.88
225.57	18.61
226.034	18.37
226.497	18.14
226.961	17.87
227.425	17.67
227.889	17.45
228.353	17.23
228.816	17.04
229.28	16.83
229.744	16.65
230.207	16.43
230.671	16.23
231.134	16.05
231.597	15.89
232.061	15.72
232.524	15.55
232.987	15.37
233.45	15.21
233.914	15.04
234.377	14.86
234.84	14.69
235.303	14.56
235.766	14.42
236.229	14.27
236.691	14.13
237.154	13.99
237.617	13.87
238.08	13.73
238.542	13.6
239.005	13.48
239.468	13.36
239.93	13.25
240.393	13.14
240.855	13
241.317	12.88
241.78	12.75
242.242	12.63
242.704	12.51
243.166	12.4
243.629	12.3
244.091	12.19
244.553	12.09
245.015	11.98
245.477	11.87
245.939	11.78
246.4	11.68
246.862	11.59
247.324	11.51
247.786	11.41
248.247	11.33
248.709	11.23
249.17	11.13
249.632	11.05
250.093	10.97
250.555	10.89
251.016	10.82
251.477	10.74
251.939	10.66
252.4	10.59
252.861	10.52
253.322	10.47
253.783	10.42
254.244	10.36
254.705	10.31
255.166	10.25
255.627	10.2
256.088	10.15
256.549	10.1
257.009	10.05
257.47	10
257.931	9.95
258.391	9.88
258.852	9.83
259.312	9.78
259.773	9.73
260.233	9.68
260.694	9.64
261.154	9.59
261.614	9.54
262.074	9.5
262.534	9.46
262.994	9.43
263.455	9.4
263.915	9.36
264.374	9.33
264.834	9.31
265.294	9.28
265.754	9.26
266.214	9.24
266.673	9.22
267.133	9.2
267.593	9.18
268.052	9.17
268.512	9.16
268.971	9.14
269.431	9.12
269.89	9.11
270.349	9.09
270.809	9.07
271.268	9.06
271.727	9.04
272.186	9.02
272.645	9.01
273.104	8.99
273.563	8.97
274.022	8.95
274.481	8.94
274.94	8.92
275.399	8.89
275.857	8.88
276.316	8.85
276.775	8.84
277.233	8.82
277.692	8.8
278.15	8.78
278.609	8.76
279.067	8.75
279.525	8.73
279.984	8.71
280.442	8.69
280.9	8.68
281.358	8.67
281.816	8.65
282.274	8.63
282.732	8.61
283.19	8.59
283.648	8.57
284.106	8.54
284.564	8.53
285.021	8.52
285.479	8.51
285.937	8.49
286.394	8.47
286.852	8.46
287.309	8.44
287.767	8.42
288.224	8.4
288.682	8.38
289.139	8.36
289.596	8.33
290.053	8.3
290.511	8.27
290.968	8.25
291.425	8.22
291.882	8.19
292.339	8.17
292.796	8.15
293.252	8.13
293.709	8.12
294.166	8.11
294.623	8.1
295.079	8.08
295.536	8.07
295.992	8.06
296.449	8.05
296.905	8.04
297.362	8.03
297.818	8.01
298.274	8
298.731	7.99
299.187	7.98
299.643	7.96
300.099	7.96
300.555	7.94
301.011	7.92
301.467	7.92
301.923	7.9
302.379	7.89
302.835	7.88
303.291	7.86
303.746	7.85
304.202	7.84
304.658	7.84
305.113	7.82
305.569	7.82
306.024	7.81
306.479	7.79
306.935	7.78
307.39	7.78
307.845	7.77
308.301	7.76
308.756	7.76
309.211	7.75
309.666	7.75
310.121	7.76
310.576	7.75
311.031	7.74
311.486	7.74
311.94	7.74
312.395	7.74
312.85	7.73
313.305	7.73
313.759	7.72
314.214	7.71
314.668	7.69
315.123	7.68
315.577	7.66
316.032	7.65
316.486	7.63
316.94	7.62
317.394	7.6
317.849	7.57
318.303	7.56
318.757	7.55
319.211	7.53
319.665	7.5
320.119	7.48
320.572	7.46
321.026	7.44
321.48	7.44
321.934	7.42
322.387	7.4
322.841	7.39
323.295	7.39
323.748	7.38
324.202	7.37
324.655	7.36
325.108	7.37
325.562	7.37
326.015	7.37
326.468	7.36
326.921	7.36
327.374	7.35
327.827	7.34
328.28	7.33
328.733	7.32
329.186	7.32
329.639	7.31
330.092	7.3
330.545	7.29
330.997	7.27
331.45	7.27
331.903	7.27
332.355	7.28
332.808	7.27
333.26	7.26
333.713	7.26
334.165	7.26
334.617	7.26
335.069	7.26
335.522	7.26
335.974	7.26
336.426	7.26
336.878	7.25
337.33	7.23
337.782	7.23
338.234	7.22
338.686	7.22
339.137	7.21
339.589	7.2
340.041	7.19
340.493	7.16
340.944	7.14
341.396	7.12
341.847	7.1
342.299	7.09
342.75	7.07
343.201	7.04
343.653	7.02
344.104	7
344.555	6.97
345.006	6.96
345.457	6.94
345.908	6.92
346.359	6.91
346.81	6.9
347.261	6.89
347.712	6.88
348.163	6.86
348.613	6.87
349.064	6.85
349.515	6.85
349.965	6.84
350.416	6.83
350.866	6.82
351.317	6.81
351.767	6.8
352.217	6.79
352.668	6.79
353.118	6.79
353.568	6.77
354.018	6.78
354.468	6.78
354.918	6.77
355.368	6.78
355.818	6.79
356.268	6.79
356.718	6.78
357.168	6.78
357.617	6.78
358.067	6.77
358.517	6.78
358.966	6.77
359.416	6.76
359.865	6.76
360.315	6.75
360.764	6.74
361.213	6.73
361.663	6.73
362.112	6.73
362.561	6.72
363.01	6.72
363.459	6.7
363.908	6.69
364.357	6.68
364.806	6.68
365.255	6.68
365.703	6.68
366.152	6.68
366.601	6.67
367.05	6.67
367.498	6.67
367.947	6.68
368.395	6.68
368.844	6.68
369.292	6.69
369.74	6.69
370.189	6.68
370.637	6.68
371.085	6.67
371.533	6.67
371.981	6.68
372.429	6.67
372.877	6.67
373.325	6.68
373.773	6.67
374.221	6.67
374.669	6.67
375.116	6.66
375.564	6.66
376.012	6.67
376.459	6.67
376.907	6.68
377.354	6.69
377.801	6.7
378.249	6.7
378.696	6.72
379.143	6.73
379.591	6.75
380.038	6.76
380.485	6.78
380.932	6.79
381.379	6.8
381.826	6.82
382.273	6.84
382.72	6.84
383.166	6.86
383.613	6.86
384.06	6.88
384.506	6.89
384.953	6.91
385.4	6.93
385.846	6.95
386.292	6.97
386.739	6.98
387.185	6.99
387.631	7.02
388.078	7.03
388.524	7.05
388.97	7.08
389.416	7.1
389.862	7.13
390.308	7.15
390.754	7.17
391.2	7.19
391.645	7.21
392.091	7.23
392.537	7.26
392.983	7.29
393.428	7.3
393.874	7.33
394.319	7.35
394.765	7.35
395.21	7.36
395.655	7.38
396.101	7.42
396.546	7.43
396.991	7.47
397.436	7.48
397.881	7.52
398.326	7.56
398.771	7.57
399.216	7.6
399.661	7.62
400.106	7.64
400.551	7.66
400.995	7.66
401.44	7.67
401.885	7.68
402.329	7.7
402.774	7.7
403.218	7.73
403.663	7.75
404.107	7.75
404.551	7.78
404.995	7.78
405.44	7.79
405.884	7.81
406.328	7.83
406.772	7.83
407.216	7.85
407.66	7.86
408.104	7.83
408.547	7.84
408.991	7.86
409.435	7.86
409.879	7.89
410.322	7.9
410.766	7.92
411.209	7.94
411.653	7.96
412.096	7.96
412.54	7.97
412.983	7.99
413.426	8.02
413.869	8.04
414.312	8.07
414.756	8.07
415.199	8.08
415.642	8.08
416.085	8.08
416.527	8.07
416.97	8.04
417.413	8.04
417.856	8.03
418.298	8.02
418.741	8.02
419.184	8
419.626	8.01
420.069	8
420.511	8.01
420.953	8.02
421.396	8.03
421.838	8.05
422.28	8.07
422.722	8.09
423.164	8.09
423.606	8.08
424.048	8.1
424.49	8.09
424.932	8.08
425.374	8.06
425.816	8.04
426.258	8.03
426.699	8.03
427.141	8.04
427.582	8.04
428.024	8.06
428.465	8.07
428.907	8.06
429.348	8.06
429.789	8.08
430.231	8.11
430.672	8.14
431.113	8.18
431.554	8.19
431.995	8.2
432.436	8.21
432.877	8.22
433.318	8.25
433.759	8.29
434.2	8.32
434.64	8.35
435.081	8.37
435.522	8.39
435.962	8.41
436.403	8.44
436.843	8.46
437.284	8.45
437.724	8.46
438.164	8.46
438.604	8.46
439.045	8.45
439.485	8.46
439.925	8.45
440.365	8.43
440.805	8.43
441.245	8.45
441.685	8.46
442.125	8.48
442.564	8.49
443.004	8.5
443.444	8.52
443.883	8.53
444.323	8.54
444.762	8.54
445.202	8.56
445.641	8.57
446.081	8.56
446.52	8.55
446.959	8.57
447.398	8.58
447.837	8.59
448.276	8.58
448.716	8.59
449.154	8.58
449.593	8.59
450.032	8.59
450.471	8.58
450.91	8.57
451.349	8.57
451.787	8.54
452.226	8.52
452.664	8.51
453.103	8.5
453.541	8.5
453.98	8.49
454.418	8.47
454.856	8.45
455.295	8.42
455.733	8.39
456.171	8.39
456.609	8.38
457.047	8.37
457.485	8.36
457.923	8.36
458.361	8.33
458.798	8.33
459.236	8.33
459.674	8.33
460.111	8.34
460.549	8.36
460.987	8.35
461.424	8.36
461.862	8.36
462.299	8.38
462.736	8.37
463.173	8.38
463.611	8.38
464.048	8.38
464.485	8.38
464.922	8.39
465.359	8.38
465.796	8.39
466.233	8.39
466.67	8.4
467.106	8.4
467.543	8.4
467.98	8.38
468.416	8.36
468.853	8.37
469.29	8.36
469.726	8.35
470.162	8.33
470.599	8.32
471.035	8.3
471.471	8.27
471.907	8.25
472.344	8.23
472.78	8.24
473.216	8.23
473.652	8.21
474.088	8.19
474.523	8.18
474.959	8.17
475.395	8.13
475.831	8.12
476.266	8.13
476.702	8.11
477.138	8.09
477.573	8.08
478.008	8.06
478.444	8.04
478.879	8.04
479.314	8.01
479.75	7.99
480.185	7.98
480.62	7.97
481.055	7.95
481.49	7.93
481.925	7.92
482.36	7.9
482.795	7.88
483.229	7.87
483.664	7.87
484.099	7.86
484.534	7.85
484.968	7.85
485.403	7.85
485.837	7.86
486.271	7.86
486.706	7.85
487.14	7.85
487.574	7.85
488.009	7.84
488.443	7.84
488.877	7.84
489.311	7.85
489.745	7.85
490.179	7.86
490.613	7.85
491.046	7.85
491.48	7.84
491.914	7.85
492.348	7.86
492.781	7.88
493.215	7.89
493.648	7.91
494.082	7.91
494.515	7.92
494.948	7.94
495.382	7.95
495.815	7.97
496.248	8
496.681	8.02
497.114	8.04
497.547	8.06
497.98	8.09
498.413	8.11
498.846	8.15
499.279	8.18
499.711	8.21
500.144	8.25
500.577	8.29
501.009	8.32
501.442	8.36
501.874	8.42
502.306	8.46
502.739	8.52
503.171	8.58
503.603	8.63
504.036	8.69
504.468	8.75
504.9	8.82
505.332	8.89
505.764	8.97
506.196	9.06
506.627	9.15
507.059	9.24
507.491	9.32
507.923	9.43
508.354	9.54
508.786	9.65
509.217	9.78
509.649	9.9
510.08	10.04
510.512	10.17
510.943	10.31
511.374	10.45
511.805	10.61
512.237	10.77
512.668	10.93
513.099	11.1
513.53	11.27
513.961	11.46
514.391	11.66
514.822	11.87
515.253	12.07
515.684	12.28
516.114	12.51
516.545	12.72
516.975	12.95
517.406	13.2
517.836	13.44
518.267	13.69
518.697	13.93
519.127	14.16
519.558	14.41
519.988	14.67
520.418	14.92
520.848	15.15
521.278	15.4
521.708	15.81
522.138	16.05
522.567	16.3
522.997	16.54
523.427	16.79
523.857	17.04
524.286	17.26
524.716	17.49
525.145	17.71
525.575	17.95
526.004	18.17
526.433	18.23
526.863	18.42
527.292	18.63
527.721	18.83
528.15	19
528.579	19.18
529.008	19.36
529.437	19.51
529.866	19.67
530.295	19.81
530.724	19.96
531.152	20.1
531.581	20.23
532.01	20.35
532.438	20.47
532.867	20.59
533.295	20.71
533.723	20.81
534.152	20.92
534.58	21.02
535.008	21.1
535.436	21.19
535.865	21.25
536.293	21.33
536.721	21.38
537.149	21.44
537.576	21.48
538.004	21.54
538.432	21.59
538.86	21.64
539.287	21.68
539.715	21.74
540.143	21.78
540.57	21.82
540.998	21.86
541.425	21.93
541.852	21.97
542.28	22.01
542.707	22.06
543.134	22.1
543.561	22.15
543.988	22.18
544.415	22.2
544.842	22.23
545.269	22.27
545.696	22.3
546.123	22.32
546.549	22.35
546.976	22.39
547.403	22.4
547.829	22.42
548.256	22.45
548.682	22.49
549.108	22.52
549.535	22.53
549.961	22.54
550.387	22.55
550.813	22.56
551.24	22.55
551.666	22.52
552.092	22.51
552.518	22.48
552.943	22.43
553.369	22.39
553.795	22.34
554.221	22.32
554.646	22.26
555.072	22.21
555.498	22.15
555.923	22.08
556.349	22.02
556.774	21.94
557.199	21.85
557.625	21.78
558.05	21.69
558.475	21.59
558.9	21.49
559.325	21.4
559.75	21.29
560.175	21.16
560.6	21.04
561.025	20.93
561.449	20.81
561.874	20.68
562.299	20.54
562.723	20.39
563.148	20.25
563.572	20.09
563.997	19.92
564.421	19.76
564.846	19.61
565.27	19.45
565.694	19.28
566.118	19.11
566.542	18.93
566.966	18.76
567.39	18.59
567.814	18.42
568.238	18.27
568.662	18.1
569.086	17.94
569.509	17.8
569.933	17.65
570.357	17.5
570.78	17.35
571.204	17.2
571.627	17.06
572.05	16.91
572.474	16.79
572.897	16.66
573.32	16.55
573.743	16.43
574.166	16.3
574.589	16.17
575.012	16.07
575.435	15.96
575.858	15.85
576.281	15.75
576.704	15.65
577.126	15.55
577.549	15.43
577.972	15.33
578.394	15.24
578.817	15.15
579.239	15.06
579.661	14.96
580.084	14.87
580.506	14.79
580.928	14.7
581.35	14.62
581.772	14.54
582.194	14.47
582.616	14.39
583.038	14.32
583.46	14.24
583.882	14.17
584.303	14.1
584.725	14.04
585.147	13.99
585.568	13.95
585.99	13.87
586.411	13.81
586.833	13.75
587.254	13.7
587.675	13.64
588.096	13.58
588.518	13.53
588.939	13.49
589.36	13.44
589.781	13.39
590.202	13.34
590.623	13.31
591.043	13.25
591.464	13.21
591.885	13.17
592.305	13.14
592.726	13.12
593.147	13.08
593.567	13.04
593.987	13
594.408	12.97
594.828	12.94
595.248	12.92
595.669	12.89
596.089	12.88
596.509	12.85
596.929	12.81
597.349	12.78
597.769	12.74
598.189	12.7
598.608	12.68
599.028	12.65
599.448	12.61
599.867	12.57
600.287	12.54
600.706	12.49
601.126	12.46
601.545	12.42
601.965	12.39
602.384	12.36
602.803	12.32
603.222	12.28
603.641	12.24
604.061	12.2
604.48	12.15
604.898	12.1
605.317	12.05
605.736	12
606.155	11.96
606.574	11.9
606.992	11.84
607.411	11.79
607.829	11.71
608.248	11.64
608.666	11.57
609.085	11.52
609.503	11.46
609.921	11.41
610.339	11.36
610.758	11.29
611.176	11.23
611.594	11.18
612.012	11.12
612.43	11.09
612.847	11.04
613.265	10.98
613.683	10.94
614.101	10.89
614.518	10.84
614.936	10.78
615.353	10.73
615.771	10.69
616.188	10.63
616.606	10.59
617.023	10.54
617.44	10.51
617.857	10.47
618.274	10.42
618.691	10.38
619.108	10.35
619.525	10.31
619.942	10.29
620.359	10.26
620.776	10.23
621.192	10.21
621.609	10.2
622.026	10.17
622.442	10.15
622.859	10.14
623.275	10.13
623.691	10.12
624.108	10.11
624.524	10.09
624.94	10.08
625.356	10.08
625.772	10.07
626.188	10.05
626.604	10.05
627.02	10.03
627.436	10.02
627.852	10.02
628.268	10.01
628.683	10
629.099	10
629.514	10
629.93	9.99
630.345	9.97
630.761	9.95
631.176	9.92
631.591	9.9
632.007	9.88
632.422	9.85
632.837	9.82
633.252	9.79
633.667	9.74
634.082	9.69
634.497	9.64
634.911	9.59
635.326	9.54
635.741	9.5
636.155	9.45
636.57	9.39
636.984	9.33
637.399	9.27
637.813	9.2
638.228	9.14
638.642	9.07
639.056	9.01
639.47	8.96
639.884	8.9
640.298	8.85
640.712	8.79
641.126	8.73
641.54	8.66
641.954	8.6
642.368	8.54
642.781	8.49
643.195	8.44
643.609	8.38
644.022	8.33
644.436	8.28
644.849	8.22
645.262	8.17
645.676	8.13
646.089	8.11
646.502	8.07
646.915	8.04
647.328	8.01
647.741	7.98
648.154	7.97
648.567	7.94
648.98	7.92
649.393	7.91
649.805	7.91
650.218	7.88
650.631	7.87
651.043	7.86
651.456	7.85
651.868	7.84
652.28	7.82
652.693	7.81
653.105	7.8
653.517	7.78
653.929	7.78
654.341	7.75
654.753	7.73
655.165	7.71
655.577	7.69
655.989	7.67
656.401	7.65
656.813	7.63
657.224	7.61
657.636	7.58
658.047	7.55
658.459	7.52
658.87	7.5
659.282	7.47
659.693	7.45
660.104	7.41
660.515	7.4
660.926	7.38
661.338	7.35
661.749	7.33
662.159	7.32
662.57	7.31
662.981	7.3
663.392	7.29
663.803	7.29
664.213	7.27
664.624	7.28
665.035	7.26
665.445	7.26
665.855	7.25
666.266	7.25
666.676	7.25
667.086	7.24
667.497	7.24
667.907	7.24
668.317	7.24
668.727	7.25
669.137	7.25
669.547	7.26
669.956	7.26
670.366	7.27
670.776	7.29
671.186	7.3
671.595	7.32
672.005	7.33
672.414	7.34
672.824	7.36
673.233	7.37
673.642	7.38
674.052	7.4
674.461	7.41
674.87	7.42
675.279	7.44
675.688	7.46
676.097	7.48
676.506	7.51
676.915	7.52
677.323	7.54
677.732	7.56
678.141	7.59
678.549	7.61
678.958	7.64
679.366	7.68
679.775	7.71
680.183	7.74
680.592	7.78
681	7.81
681.408	7.84
681.816	7.88
682.224	7.92
682.632	7.95
683.04	7.99
683.448	8.05
683.856	8.08
684.264	8.13
684.671	8.18
685.079	8.24
685.487	8.32
685.894	8.41
686.302	8.5
686.709	8.61
687.116	8.74
687.524	8.87
687.931	9.03
688.338	9.21
688.745	9.41
689.152	9.63
689.559	9.88
689.966	10.14
690.373	10.43
690.78	10.75
691.187	11.1
691.593	11.45
692	11.84
692.407	12.24
692.813	12.68
693.22	13.14
693.626	13.61
694.032	14.08
694.439	14.6
694.845	15.12
695.251	15.66
695.657	16.21
696.063	16.8
696.469	17.4
696.875	18.03
697.281	18.65
697.687	19.28
698.093	19.93
698.498	20.58
698.904	21.24
699.31	21.88
699.715	22.54
700.12	23.21
700.526	23.88
700.931	24.55
701.337	25.21
701.742	25.87
702.147	26.52
702.552	27.19
702.957	27.84
703.362	28.48
703.767	29.14
704.172	29.79
704.577	30.44
704.981	31.08
705.386	31.72
705.791	32.37
706.195	33.01
706.6	33.66
707.004	34.28
707.408	34.91
707.813	35.57
708.217	36.21
708.621	36.85
709.025	37.47
709.43	38.09
709.834	38.73
710.237	39.32
710.641	39.92
711.045	40.51
711.449	41.14
711.853	41.76
712.256	42.33
712.66	42.92
713.064	43.49
713.467	44.09
713.87	44.67
714.274	45.23
714.677	45.82
715.08	46.38
715.484	46.96
715.887	47.51
716.29	48.04
716.693	48.59
717.096	49.11
717.499	49.64
717.901	50.13
718.304	50.63
718.707	51.14
719.109	51.63
719.512	52.1
719.915	52.57
720.317	53.01
720.719	53.45
721.122	53.91
721.524	54.34
721.926	54.76
722.328	55.19
722.731	55.57
723.133	55.98
723.535	56.37
723.937	56.79
724.338	57.15
724.74	57.54
725.142	57.97
725.544	58.29
725.945	58.67
726.347	58.97
726.748	59.28
727.15	59.58
727.551	59.89
727.952	60.15
728.354	60.43
728.755	60.72
729.156	60.98
729.557	61.16
729.958	61.37
730.359	61.6
730.76	61.89
731.161	62.15
731.562	62.4
731.962	62.57
732.363	62.81
732.763	63.02
733.164	63.22
733.564	63.41
733.965	63.6
734.365	63.83
734.766	64
735.166	64.15
735.566	64.3
735.966	64.48
736.366	64.66
736.766	64.78
737.166	64.93
737.566	65.07
737.966	65.19
738.365	65.34
738.765	65.47
739.165	65.61
739.564	65.73
739.964	65.84
740.363	65.92
740.763	66.03
741.162	66.17
741.561	66.26
741.96	66.33
742.36	66.44
742.759	66.51
743.158	66.6
743.557	66.65
743.955	66.75
744.354	66.83
744.753	66.94
745.152	67.03
745.55	67.07
745.949	67.15
746.348	67.22
746.746	67.28
747.144	67.35
747.543	67.39
747.941	67.45
748.339	67.47
748.737	67.51
749.136	67.5
749.534	67.49
749.932	67.54
750.33	67.56
750.727	67.61
751.125	67.63
751.523	67.64
751.921	67.7
752.318	67.75
752.716	67.79
753.113	67.82
753.511	67.87
753.908	67.95
754.305	67.97
754.703	67.97
755.1	67.97
755.497	67.99
755.894	68.01
756.291	67.99
756.688	67.97
757.085	67.97
757.482	68
757.878	68.01
758.275	68
758.672	68.01
759.068	68.08
759.465	68.08
759.861	68.08
760.258	68.14
760.654	68.17
761.05	68.22
761.447	68.25
761.843	68.26
762.239	68.26
762.635	68.29
763.031	68.32
763.427	68.3
763.822	68.33
764.218	68.37
764.614	68.36
765.01	68.32
765.405	68.3
765.801	68.25
766.196	68.26
766.592	68.29
766.987	68.3
767.382	68.28
767.778	68.29
768.173	68.29
768.568	68.27
768.963	68.28
769.358	68.36
769.753	68.37
770.148	68.43
770.542	68.42
770.937	68.41
771.332	68.42
771.726	68.44
772.121	68.43
772.515	68.42
772.91	68.41
773.304	68.46
773.699	68.45
774.093	68.47
774.487	68.44
774.881	68.47
775.275	68.45
775.669	68.45
776.063	68.43
776.457	68.46
776.851	68.48
777.245	68.49
777.638	68.43
778.032	68.4
778.425	68.45
778.819	68.46
779.212	68.48
779.606	68.5
779.999	68.47
780.392	68.5
780.786	68.48
781.179	68.5
781.572	68.56
781.965	68.61
782.358	68.65
782.751	68.6
783.143	68.62
783.536	68.58
783.929	68.59
784.322	68.62
784.714	68.64
785.107	68.68
785.499	68.63
785.891	68.6
786.284	68.63
786.676	68.6
787.068	68.61
787.46	68.62
787.852	68.66
788.245	68.69
788.636	68.71
789.028	68.69
789.42	68.71
789.812	68.74
790.204	68.76
790.595	68.74
790.987	68.77
791.378	68.76
791.77	68.74
792.161	68.73
792.553	68.71
792.944	68.66
793.335	68.68
793.726	68.67
794.117	68.64
794.508	68.59
794.899	68.61
795.29	68.59
795.681	68.57
796.072	68.58
796.463	68.58
796.853	68.57
797.244	68.6
797.634	68.59
798.025	68.62
798.415	68.63
798.806	68.64
799.196	68.65
799.586	68.63
799.976	68.67
800.366	68.71
800.756	68.74
801.146	68.8
801.536	68.84
801.926	68.83
802.316	68.86
802.706	68.87
803.095	68.88
803.485	68.87
803.874	68.9
804.264	68.89
804.653	68.86
805.043	68.87
805.432	68.82
805.821	68.78
806.21	68.8
806.599	68.75
806.988	68.74
807.377	68.77
807.766	68.73
808.155	68.7
808.544	68.69
808.933	68.69
809.321	68.65
809.71	68.63
810.098	68.6
810.487	68.54
810.875	68.55
811.264	68.53
811.652	68.49
812.04	68.51
812.428	68.54
812.816	68.54
813.204	68.49
813.592	68.47
813.98	68.49
814.368	68.5
814.756	68.54
815.144	68.51
815.531	68.52
815.919	68.51
816.306	68.48
816.694	68.45
817.081	68.44
817.469	68.49
817.856	68.5
818.243	68.48
818.63	68.47
819.017	68.43
819.404	68.43
819.791	68.41
820.178	68.42
820.565	68.39
820.952	68.38
821.339	68.36
821.725	68.34
822.112	68.34
822.498	68.36
822.885	68.38
823.271	68.36
823.657	68.32
824.044	68.33
824.43	68.33
824.816	68.34
825.202	68.31
825.588	68.3
825.974	68.29
826.36	68.3
826.746	68.25
827.132	68.23
827.517	68.24
827.903	68.3
828.289	68.32
828.674	68.3
829.06	68.31
829.445	68.34
829.83	68.36
830.216	68.37
830.601	68.34
830.986	68.36
831.371	68.35
831.756	68.39
832.141	68.36
832.526	68.36
832.911	68.34
833.295	68.34
833.68	68.36
834.065	68.35
834.449	68.32
834.834	68.34
835.218	68.36
835.603	68.34
835.987	68.31
836.371	68.29
836.755	68.27
837.139	68.28
837.524	68.31
837.908	68.3
838.291	68.32
838.675	68.33
839.059	68.36
839.443	68.33
839.827	68.33
840.21	68.34
840.594	68.37
840.977	68.36
841.361	68.4
841.744	68.35
842.127	68.33
842.511	68.32
842.894	68.34
843.277	68.32
843.66	68.31
844.043	68.33
844.426	68.33
844.809	68.36
845.191	68.38
845.574	68.36
845.957	68.4
846.339	68.4
846.722	68.4
847.104	68.42
847.487	68.41
847.869	68.42
848.252	68.44
848.634	68.43
849.016	68.41
849.398	68.39
849.78	68.4
850.162	68.39
850.544	68.39
850.926	68.4
851.307	68.38
851.689	68.4
852.071	68.42
852.452	68.39
852.834	68.39
853.215	68.39
853.597	68.41
853.978	68.42
854.359	68.42
854.741	68.44
855.122	68.43
855.503	68.43
855.884	68.38
856.265	68.37
856.646	68.37
857.026	68.41
857.407	68.39
857.788	68.37
858.169	68.37
858.549	68.36
858.93	68.34
859.31	68.33
859.69	68.34
860.071	68.38
860.451	68.38
860.831	68.38
861.211	68.35
861.591	68.34
861.971	68.33
862.351	68.34
862.731	68.35
863.111	68.35
863.491	68.34
863.87	68.34
864.25	68.33
864.629	68.36
865.009	68.36
865.388	68.37
865.768	68.36
866.147	68.4
866.526	68.38
866.905	68.37
867.284	68.41
867.663	68.43
868.042	68.42
868.421	68.44
868.8	68.43
869.179	68.42
869.558	68.43
869.936	68.45
870.315	68.43
870.693	68.43
871.072	68.45
871.45	68.43
871.828	68.42
872.207	68.45
872.585	68.43
872.963	68.43
873.341	68.44
873.719	68.43
874.097	68.42
874.475	68.46
874.853	68.47
875.23	68.48
875.608	68.47
875.986	68.52
876.363	68.51
876.741	68.52
877.118	68.55
877.495	68.56
877.873	68.59
878.25	68.63
878.627	68.65
879.004	68.68
879.381	68.7
879.758	68.69
880.135	68.72
880.512	68.73
880.889	68.72
881.265	68.71
881.642	68.74
882.019	68.77
882.395	68.74
882.772	68.72
883.148	68.7
883.524	68.67
883.901	68.7
884.277	68.64
884.653	68.62
885.029	68.63
885.405	68.62
885.781	68.61
886.157	68.6
886.532	68.62
886.908	68.62
887.284	68.64
887.659	68.63
888.035	68.6
888.411	68.64
888.786	68.66
889.161	68.68
889.537	68.69
889.912	68.69
890.287	68.69
890.662	68.69
891.037	68.7
891.412	68.71
891.787	68.72
892.162	68.75
892.536	68.74
892.911	68.74
893.286	68.72
893.66	68.73
894.035	68.74
894.409	68.73
894.784	68.73
895.158	68.75
895.532	68.74
895.906	68.73
896.281	68.71
896.655	68.73
897.029	68.73
897.402	68.75
897.776	68.74
898.15	68.75
898.524	68.77
898.898	68.75
899.271	68.74
899.645	68.73
900.018	68.75
900.392	68.8
900.765	68.81
901.138	68.8
901.511	68.79
901.884	68.83
902.258	68.84
902.631	68.83
903.003	68.88
903.376	68.89
903.749	68.88
904.122	68.91
904.495	68.91
904.867	68.9
905.24	68.97
905.612	69
905.985	68.97
906.357	68.99
906.729	69.02
907.102	69.02
907.474	69.04
907.846	69.07
908.218	69.04
908.59	69.01
908.962	69.05
909.334	69.03
909.705	69.03
910.077	69.02
910.449	69.02
910.82	69.02
911.192	69.02
911.563	69.04
911.935	69.04
912.306	69.09
912.677	69.14
913.048	69.15
913.419	69.12
913.79	69.12
914.161	69.17
914.532	69.16
914.903	69.19
915.274	69.19
915.645	69.2
916.015	69.25
916.386	69.22
916.756	69.22
917.127	69.24
917.497	69.25
917.868	69.24
918.238	69.23
918.608	69.3
918.978	69.27
919.348	69.3
919.718	69.27
920.088	69.25
920.458	69.29
920.828	69.27
921.198	69.2
921.567	69.22
921.937	69.25
922.306	69.24
922.676	69.18
923.045	69.18
923.415	69.15
923.784	69.17
924.153	69.21
924.522	69.19
924.891	69.21
925.26	69.26
925.629	69.28
925.998	69.25
926.367	69.25
926.736	69.24
927.104	69.24
927.473	69.24
927.842	69.19
928.21	69.17
928.578	69.18
928.947	69.17
929.315	69.13
929.683	69.13
930.051	69.14
930.42	69.15
930.788	69.14
931.156	69.12
931.523	69.11
931.891	69.17
932.259	69.18
932.627	69.18
932.994	69.2
933.362	69.23
933.729	69.21
934.097	69.21
934.464	69.24
934.831	69.27
935.199	69.28
935.566	69.3
935.933	69.19
936.3	69.13
936.667	69.09
937.034	69.07
937.401	69.07
937.767	69.05
938.134	68.99
938.501	69
938.867	69.02
939.234	69.02
939.6	69
939.967	69.06
940.333	69.05
940.699	69.05
941.065	68.97
941.431	68.9
941.798	68.85
942.163	68.88
942.529	68.8
942.895	68.76
943.261	68.73
943.627	68.68
943.992	68.66
944.358	68.63
944.723	68.59
945.089	68.56
945.454	68.55
945.82	68.55
946.185	68.59
946.55	68.57
946.915	68.51
947.28	68.52
947.645	68.52
948.01	68.51
948.375	68.55
948.74	68.57
949.104	68.64
949.469	68.64
949.834	68.62
950.198	68.58
950.562	68.58
950.927	68.58
951.291	68.49
951.655	68.49
952.02	68.52
952.384	68.44
952.748	68.42
953.112	68.38
953.476	68.31
953.839	68.28
954.203	68.22
954.567	68.18
954.931	68.16
955.294	68.11
955.658	68.15
956.021	68.11
956.385	68.1
956.748	68.05
957.111	68.03
957.474	68.07
957.837	68.08
958.2	68.08
958.563	68.14
958.926	68.11
959.289	68.16
959.652	68.15
960.015	68.11
960.377	68.12
960.74	68.18
961.102	68.22
961.465	68.27
961.827	68.36
962.189	68.4
962.552	68.36
962.914	68.37
963.276	68.42
963.638	68.38
964	68.42
964.362	68.47
964.724	68.39
965.085	68.33
965.447	68.29
965.809	68.22
966.17	68.18
966.532	68.22
966.893	68.27
967.255	68.22
967.616	68.28
967.977	68.3
968.338	68.28
968.699	68.34
969.061	68.35
969.421	68.41
969.782	68.43
970.143	68.41
970.504	68.4
970.865	68.41
971.225	68.41
971.586	68.37
971.946	68.32
972.307	68.31
972.667	68.28
973.027	68.29
973.388	68.3
973.748	68.32
974.108	68.44
974.468	68.4
974.828	68.38
975.188	68.41
975.548	68.38
975.907	68.49
976.267	68.5
976.627	68.49
976.986	68.51
977.346	68.45
977.705	68.44
978.064	68.44
978.424	68.49
978.783	68.51
979.142	68.57
979.501	68.58
979.86	68.61
980.219	68.66
980.578	68.77
980.937	68.75
981.296	68.71
981.654	68.71
982.013	68.71
982.371	68.67
982.73	68.66
983.088	68.62
983.447	68.57
983.805	68.57
984.163	68.49
984.521	68.33
984.879	68.31
985.237	68.42
985.595	68.44
985.953	68.39
986.311	68.38
986.669	68.4
987.026	68.4
987.384	68.42
987.741	68.26
988.099	68.31
988.456	68.4
988.814	68.41
989.171	68.31
989.528	68.34
989.885	68.3
990.242	68.33
990.599	68.36
990.956	68.41
991.313	68.42
991.67	68.48
992.027	68.59
992.383	68.61
992.74	68.61
993.096	68.64
993.453	68.61
993.809	68.65
994.165	68.68
994.522	68.61
994.878	68.59
995.234	68.64
995.59	68.61
995.946	68.53
996.302	68.58
996.658	68.66
997.013	68.64
997.369	68.63
997.725	68.75
998.08	68.8
998.436	68.9
998.791	68.9
999.147	68.93
999.502	68.97
999.857	69.01
1000.212	68.84
1000.567	68.88
1000.922	68.95
1001.277	68.98
1001.632	68.81
1001.987	68.76
1002.342	68.66
1002.696	68.66
1003.051	68.74
1003.406	68.88
1003.76	68.8
1004.114	68.87
1004.469	68.88
1004.823	69.02
1005.177	68.96
1005.531	69.1
1005.885	69.14
1006.239	69.22
1006.593	69.18
1006.947	69.02
1007.301	68.77
1007.655	68.81
1008.008	68.85
1008.362	69.01
1008.715	68.73
1009.069	68.88
1009.422	68.8
1009.776	68.75
1010.129	68.66
1010.482	68.69
1010.835	68.76
1011.188	68.99
1011.541	69
1011.894	69.07
1012.247	69.05
1012.6	69.17
1012.952	69.03
1013.305	69.25
1013.657	69.29
1014.01	69.35
1014.362	69.32
1014.715	69.4
1015.067	69.41
1015.419	69.43
1015.771	69.3
1016.123	69.06
1016.475	69.2
1016.827	69.15
1017.179	68.94
1017.531	68.88
1017.883	68.86
1018.234	68.97
1018.586	68.94
1018.938	69.05
1019.289	69.03
1019.64	69.12
1019.992	69.19
1020.343	68.99
1020.694	69.1
1021.045	69.17
1021.396	69.38
1021.747	69.63
1022.098	69.64
1022.449	69.61
1022.8	69.74
1023.151	69.61
1023.501	69.58
1023.852	69.67
1024.202	69.49
1024.553	69.44
1024.903	69.33
1025.253	69.29
1025.604	69.07
1025.954	68.85
1026.304	68.87
1026.654	68.47
1027.004	68.6
1027.354	68.67
1027.703	68.51
1028.053	68.5
1028.403	68.81
1028.753	68.66
1029.102	68.62
1029.452	68.72
1029.801	69.01
1030.15	68.95
1030.499	69.08
897.758	334.83
901.051	338.17
904.343	340.35
907.636	347.35
910.928	337.79
914.22	337.99
917.511	335.29
920.803	321.93
924.094	321.51
927.384	315.2
930.675	303.64
933.965	305.11
937.255	289.84
940.544	279.87
943.834	267.02
947.123	265.85
950.411	254.2
953.7	250.4
956.988	240.97
960.276	235.5
963.563	231.97
966.851	226.98
970.138	225.26
973.424	220.75
976.711	223.1
979.997	215.37
983.283	214.55
986.568	211.57
989.853	208.2
993.138	204.72
996.423	197.18
999.708	194.42
1002.992	192.17
1006.275	185.73
1009.559	183.88
1012.842	178.71
1016.125	175.84
1019.408	174.35
1022.69	172.45
1025.972	168.99
1029.254	166.8
1032.536	165.86
1035.817	162.98
1039.098	161.99
1042.379	159.22
1045.659	158.65
1048.939	154.78
1052.219	153.46
1055.498	151.79
1058.778	149.78
1062.057	147.45
1065.335	146.76
1068.614	144.28
1071.892	144.02
1075.17	142.4
1078.447	140.94
1081.724	140.17
1085.001	140.33
1088.278	137.74
1091.554	135.55
1094.83	135.56
1098.106	135.41
1101.382	134.62
1104.657	134.51
1107.932	132.4
1111.206	131.66
1114.481	129.53
1117.755	129.46
1121.029	128.27
1124.302	128.23
1127.575	127.26
1130.848	126.07
1134.121	125.18
1137.393	124.16
1140.665	122.36
1143.937	121.79
1147.208	121.89
1150.48	121.54
1153.75	120.04
1157.021	119.29
1160.291	119.29
1163.561	117.53
1166.831	118.36
1170.101	117.21
1173.37	118.33
1176.639	118.79
1179.907	117.83
1183.176	116.67
1186.444	117.28
1189.711	116.89
1192.979	116.09
1196.246	115.6
1199.513	116.91
1202.78	115.01
1206.046	115.29
1209.312	113.03
1212.578	112.85
1215.843	113.5
1219.108	113.41
1222.373	114.44
1225.638	114.91
1228.902	115.85
1232.166	116.91
1235.43	116.53
1238.693	118.25
1241.956	118.75
1245.219	120.35
1248.482	121.34
1251.744	120.91
1255.006	121.87
1258.268	120.27
1261.529	119.64
1264.79	119.49
1268.051	118.17
1271.312	117.61
1274.572	116.8
1277.832	116.29
1281.092	114.48
1284.351	113.86
1287.61	114.39
1290.869	112.35
1294.128	111.64
1297.386	111.5
1300.644	110.56
1303.902	110.98
1307.159	109.7
1310.416	109.63
1313.673	108.85
1316.93	110.05
1320.186	109.38
1323.442	109.22
1326.697	109.44
1329.953	110.16
1333.208	109.55
1336.463	110.23
1339.717	109.89
1342.972	111.22
1346.226	110.74
1349.479	111.04
1352.733	110.96
1355.986	111.77
1359.238	111.36
1362.491	111.15
1365.743	110.47
1368.995	110.36
1372.247	110.43
1375.498	109.46
1378.749	108.62
1382	106.71
1385.251	106.13
1388.501	103.67
1391.751	101.5
1395	100.02
1398.25	99.05
1401.499	96.51
1404.748	95.83
1407.996	91.33
1411.244	90.66
1414.492	89.5
1417.74	86.62
1420.987	85.33
1424.234	84.4
1427.481	83.42
1430.728	83.12
1433.974	82.37
1437.22	81.67
1440.465	80.86
1443.711	80.75
1446.956	79.58
1450.201	79.22
1453.445	80.2
1456.689	79.38
1459.933	78.37
1463.177	78.19
1466.42	77.32
1469.663	76.38
1472.906	75.95
1476.148	75.05
1479.391	75.55
1482.633	75.94
1485.874	75.44
1489.115	74.73
1492.356	75.28
1495.597	75.43
1498.838	75.23
1502.078	75.18
1505.318	75.89
1508.557	75.95
1511.797	76.3
1515.036	75.74
1518.274	76.43
1521.513	76.8
1524.751	76.53
1527.989	76.58
1531.227	77.15
1534.464	77.22
1537.701	77.19
1540.938	77
1544.174	77.48
1547.41	77.98
1550.646	77.88
1553.882	77.89
1557.117	77.67
1560.352	78.27
1563.587	78.53
1566.821	78.51
1570.055	78.59
1573.289	79.07
1576.523	79.33
1579.756	78.86
1582.989	78.98
1586.222	79.54
1589.454	79.08
1592.686	80.03
1595.918	79.77
1599.15	79.78
1602.381	79.64
1605.612	79.89
1608.843	80.03
1612.073	80.06
1615.303	80.53
1618.533	80.72
1621.762	80.11
1624.992	81.26
1628.221	80.94
1631.449	81.05
1634.678	81.26
1637.906	81.89
1641.134	81.71
1644.361	81.73
1647.588	81.79
1650.815	81.75
1654.042	81.89
1657.269	82.41
1660.495	82.02
1663.72	82.02
1666.946	82.19
1670.171	82.14
1673.396	82.24
1676.621	82.54
1679.845	82.3
1683.069	82.69
1686.293	82.73
1689.517	82.8
1692.74	83.1
1695.963	82.87
1699.185	82.82
1702.408	83.14
1705.63	83.15
1708.852	82.83
1712.073	82.81
1715.294	82.81
1718.515	83.18
1721.736	83.24
1724.956	82.98
1728.176	82.85
1731.396	83.15
1734.616	83.04
1737.835	83.1
1741.054	82.3
1744.272	82.28
1747.491	82.35
1750.709	82.48
1753.927	81.7
1757.144	81.49
1760.361	81.52
1763.578	81.15
1766.795	80.72
1770.011	81.02
1773.227	80.71
1776.443	81.3
1779.658	81
1782.874	81.09
1786.089	80.47
1789.303	80.79
1792.518	81.16
1795.732	81.13
1798.945	81.52
1802.159	81.46
1805.372	81.4
1808.585	81.87
1811.797	82.1
1815.01	82.87
1818.222	82.8
1821.434	83.69
1824.645	83.67
1827.856	84.53
1831.067	84.47
1834.278	85.08
1837.488	85.49
1840.698	85.43
1843.908	85.03
1847.117	85.22
1850.326	84.81
1853.535	83.47
1856.744	83.44
1859.952	82.43
1863.16	80.82
1866.368	79.44
1869.575	77.26
1872.782	74.71
1875.989	72.87
1879.196	71.43
1882.402	68.47
1885.608	67.6
1888.814	66.63
1892.019	64.03
1895.224	62.56
1898.429	61.94
1901.634	61.04
1904.838	61.03
1908.042	61.11
1911.246	60.19
1914.449	60.12
1917.652	59.81
1920.855	60.02
1924.058	59.72
1927.26	60.18
1930.462	59.36
1933.664	59.97
1936.865	60.31
1940.066	59.34
1943.267	58.48
1946.467	59.47
1949.668	59.24
1952.868	60.56
1956.067	60.39
1959.267	60.21
1962.466	60.4
1965.665	61.06
1968.863	61.64
1972.061	61.42
1975.259	61.85
1978.457	63.32
1981.654	64.12
1984.852	64.62
1988.048	64.92
1991.245	65.09
1994.441	66.43
1997.637	67.42
2000.833	68.91
2004.028	69.23
2007.223	70.48
2010.418	72.22
2013.613	73.35
2016.807	73.99
2020.001	75.12
2023.194	76.21
2026.388	78.08
2029.581	78.98
2032.774	80.03
2035.966	81.39
2039.158	81.79
2042.35	82.61
2045.542	82.07
2048.733	83.51
2051.924	84.43
2055.115	85.64
2058.306	85.74
2061.496	87.08
2064.686	87.49
2067.875	88.66
2071.065	89.21
2074.254	88.85
2077.442	90.68
2080.631	91.89
2083.819	92.56
2087.007	93.29
2090.195	94.78
2093.382	95.92
2096.569	95.81
2099.756	97.73
2102.942	97.8
2106.128	98.89
2109.314	101.87
2112.5	101.63
2115.685	103.61
2118.87	103.91
2122.055	105.75
2125.239	106.21
2128.424	106.76
2131.608	107.3
2134.791	108.09
2137.974	108.89
2141.157	109.03
2144.34	108.21
2147.523	109.1
2150.705	109.01
2153.887	111.02
2157.068	111.52
2160.25	110.89
2163.431	112.14
2166.611	112.87
2169.792	116.1
2172.972	116.67
2176.152	118.06
2179.331	119.22
2182.511	122.43
2185.69	122.92
2188.868	123.6
2192.047	123.62
2195.225	127.31
2198.403	130.24
2201.58	132.32
2204.758	133.68
2207.935	136.57
2211.111	138.3
2214.288	139.99
2217.464	139.78
2220.64	142.02
2223.815	142.76
2226.991	147.85
2230.166	147.28
2233.34	146.97
2236.515	150.13
2239.689	150.51
2242.863	150.73
2246.036	153.48
2249.209	153.08
2252.382	153.89
2255.555	157.19
2258.727	159.81
2261.9	161.52
2265.071	163.26
2268.243	167.06
2271.414	168.72
2274.585	171.67
2277.756	174.1
2280.926	176.21
2284.096	178.65
2287.266	184.3
2290.436	184.65
2293.605	187.44
2296.774	191.52
2299.942	194.62
2303.111	197.08
2306.279	199.38
2309.447	200.19
2312.614	204.16
2315.781	207.9
2318.948	218.69
2322.115	215.13
2325.281	228.03
2328.447	223.7
2331.613	229.67
2334.779	230.35
2337.944	235.75
2341.109	238.58
2344.274	246.46
2347.438	255.94
2350.602	255.94
2353.766	267.3
2356.929	271.36
2360.092	269.13
2363.255	285.98
2366.418	288.25
2369.58	291.75
2372.742	307.9
2375.904	317.01
2379.066	316.75
2382.227	309.4
2385.388	335.08
2388.548	327.43
2391.709	329.79
2394.869	364.58
2398.029	352.16
2401.188	360.17
2404.347	359.79
2407.506	356.32
2410.665	362.67
2413.823	383.07
2416.981	405.47
2420.139	391.26
2423.296	389.28
2426.453	405.1
2429.61	399.38
2432.767	414.56
2435.923	412.99
2439.079	452.52
2442.235	460.68
2445.391	462.31
2448.546	458.94
2451.701	441.43
2454.855	444.01
2458.009	468.32
2461.163	492.78
2464.317	496.97
2467.471	512.78
2470.624	517.95
2473.777	501.08
2476.929	487.24
2480.082	471.11
2483.234	469.01
2486.385	494.4
2489.537	499.55
2492.688	516.61
2495.839	501.36
2498.989	493.23
2502.14	495.65
2505.29	493.82
2508.439	500.8
2511.589	502.49
2514.738	541.19
2517.887	525.63
2521.035	554.46
2524.183	560.9
2527.331	565.48
2530.479	560.4
2533.627	564.71
