Data from N_1_DIV_OH_2n_Splice17_12-23-13-852.txt Node
Date: Sat Mar 07 12:23:13 EST 2020
User: sa697716
Spectrometer: NQ5500242
Trigger mode: 0
Integration Time (sec): 1.450000E-1
Scans to average: 20
Nonlinearity correction enabled: false
Boxcar width: 5
Storing dark spectrum: false
XAxis mode: Wavelengths
Number of Pixels in Spectrum: 512
>>>>>Begin Spectral Data<<<<<
187.83	121.11
188.298	139.31
188.766	109.76
189.233	94.8
189.701	91.05
190.169	95.53
190.636	79.49
191.104	7.62
191.571	-258.98
192.039	-117.49
192.506	-346.84
192.974	147.58
193.441	221.9
193.908	49.68
194.375	47.81
194.842	7.71
195.31	-2.84
195.777	-110.66
196.244	21.19
196.711	27.89
197.177	30.94
197.644	31
198.111	31.13
198.578	31.48
199.045	31.78
199.511	31.98
199.978	32.18
200.445	32.16
200.911	32.24
201.378	32.08
201.844	32.17
202.31	32.09
202.777	32.37
203.243	32.16
203.709	32.13
204.176	31.67
204.642	31.7
205.108	31.8
205.574	31.87
206.04	31.38
206.506	31.27
206.972	31.3
207.438	31.07
207.903	30.73
208.369	30.43
208.835	29.94
209.301	29.49
209.766	28.55
210.232	27.62
210.697	26.98
211.163	26.65
211.628	26.07
212.094	25.51
212.559	25.09
213.024	24.55
213.49	24.15
213.955	23.67
214.42	23.43
214.885	23.02
215.35	22.47
215.815	21.53
216.28	20.44
216.745	19.35
217.21	18.09
217.675	17.04
218.14	16.12
218.604	15.32
219.069	14.71
219.534	14.18
219.998	13.77
220.463	13.42
220.927	13.07
221.392	12.84
221.856	12.62
222.32	12.45
222.785	12.33
223.249	12.21
223.713	12.08
224.177	11.99
224.642	11.88
225.106	11.76
225.57	11.63
226.034	11.57
226.497	11.49
226.961	11.41
227.425	11.34
227.889	11.24
228.353	11.17
228.816	11.1
229.28	11.01
229.744	10.94
230.207	10.85
230.671	10.78
231.134	10.68
231.597	10.6
232.061	10.51
232.524	10.44
232.987	10.36
233.45	10.27
233.914	10.18
234.377	10.1
234.84	10.02
235.303	9.96
235.766	9.9
236.229	9.83
236.691	9.75
237.154	9.7
237.617	9.63
238.08	9.54
238.542	9.46
239.005	9.4
239.468	9.33
239.93	9.25
240.393	9.18
240.855	9.1
241.317	9.03
241.78	8.96
242.242	8.89
242.704	8.83
243.166	8.78
243.629	8.74
244.091	8.68
244.553	8.61
245.015	8.54
245.477	8.49
245.939	8.43
246.4	8.39
246.862	8.34
247.324	8.3
247.786	8.24
248.247	8.18
248.709	8.11
249.17	8.06
249.632	8.03
250.093	8
250.555	7.96
251.016	7.92
251.477	7.87
251.939	7.83
252.4	7.79
252.861	7.76
253.322	7.72
253.783	7.69
254.244	7.66
254.705	7.62
255.166	7.58
255.627	7.54
256.088	7.51
256.549	7.48
257.009	7.45
257.47	7.41
257.931	7.36
258.391	7.32
258.852	7.29
259.312	7.26
259.773	7.22
260.233	7.2
260.694	7.18
261.154	7.14
261.614	7.12
262.074	7.08
262.534	7.06
262.994	7.04
263.455	7.04
263.915	7.02
264.374	7
264.834	6.99
265.294	6.97
265.754	6.96
266.214	6.95
266.673	6.94
267.133	6.93
267.593	6.92
268.052	6.91
268.512	6.89
268.971	6.89
269.431	6.88
269.89	6.86
270.349	6.85
270.809	6.84
271.268	6.84
271.727	6.83
272.186	6.82
272.645	6.81
273.104	6.8
273.563	6.79
274.022	6.78
274.481	6.77
274.94	6.77
275.399	6.75
275.857	6.74
276.316	6.72
276.775	6.71
277.233	6.7
277.692	6.69
278.15	6.68
278.609	6.66
279.067	6.65
279.525	6.63
279.984	6.62
280.442	6.61
280.9	6.61
281.358	6.6
281.816	6.59
282.274	6.58
282.732	6.56
283.19	6.55
283.648	6.54
284.106	6.52
284.564	6.5
285.021	6.49
285.479	6.48
285.937	6.46
286.394	6.46
286.852	6.45
287.309	6.44
287.767	6.42
288.224	6.41
288.682	6.41
289.139	6.39
289.596	6.38
290.053	6.36
290.511	6.35
290.968	6.34
291.425	6.32
291.882	6.32
292.339	6.31
292.796	6.31
293.252	6.31
293.709	6.3
294.166	6.31
294.623	6.3
295.079	6.3
295.536	6.3
295.992	6.3
296.449	6.29
296.905	6.29
297.362	6.29
297.818	6.28
298.274	6.28
298.731	6.27
299.187	6.26
299.643	6.25
300.099	6.24
300.555	6.23
301.011	6.23
301.467	6.22
301.923	6.2
302.379	6.19
302.835	6.19
303.291	6.18
303.746	6.17
304.202	6.17
304.658	6.16
305.113	6.16
305.569	6.15
306.024	6.14
306.479	6.13
306.935	6.12
307.39	6.12
307.845	6.12
308.301	6.11
308.756	6.11
309.211	6.1
309.666	6.1
310.121	6.1
310.576	6.09
311.031	6.09
311.486	6.1
311.94	6.1
312.395	6.1
312.85	6.1
313.305	6.09
313.759	6.08
314.214	6.08
314.668	6.06
315.123	6.07
315.577	6.06
316.032	6.05
316.486	6.04
316.94	6.03
317.394	6.01
317.849	5.99
318.303	5.98
318.757	5.97
319.211	5.97
319.665	5.97
320.119	5.96
320.572	5.95
321.026	5.95
321.48	5.94
321.934	5.94
322.387	5.93
322.841	5.93
323.295	5.94
323.748	5.93
324.202	5.92
324.655	5.9
325.108	5.9
325.562	5.9
326.015	5.89
326.468	5.89
326.921	5.88
327.374	5.88
327.827	5.89
328.28	5.87
328.733	5.88
329.186	5.88
329.639	5.88
330.092	5.87
330.545	5.87
330.997	5.85
331.45	5.85
331.903	5.86
332.355	5.86
332.808	5.85
333.26	5.85
333.713	5.84
334.165	5.83
334.617	5.82
335.069	5.81
335.522	5.81
335.974	5.82
336.426	5.81
336.878	5.8
337.33	5.79
337.782	5.79
338.234	5.78
338.686	5.78
339.137	5.78
339.589	5.78
340.041	5.77
340.493	5.77
340.944	5.74
341.396	5.73
341.847	5.72
342.299	5.69
342.75	5.68
343.201	5.67
343.653	5.66
344.104	5.64
344.555	5.64
345.006	5.63
345.457	5.62
345.908	5.62
346.359	5.62
346.81	5.62
347.261	5.63
347.712	5.63
348.163	5.62
348.613	5.61
349.064	5.62
349.515	5.61
349.965	5.6
350.416	5.6
350.866	5.59
351.317	5.58
351.767	5.57
352.217	5.57
352.668	5.56
353.118	5.56
353.568	5.56
354.018	5.55
354.468	5.55
354.918	5.55
355.368	5.55
355.818	5.55
356.268	5.54
356.718	5.55
357.168	5.54
357.617	5.54
358.067	5.53
358.517	5.54
358.966	5.54
359.416	5.53
359.865	5.53
360.315	5.53
360.764	5.53
361.213	5.52
361.663	5.51
362.112	5.51
362.561	5.51
363.01	5.51
363.459	5.49
363.908	5.48
364.357	5.48
364.806	5.47
365.255	5.47
365.703	5.47
366.152	5.48
366.601	5.48
367.05	5.48
367.498	5.47
367.947	5.47
368.395	5.47
368.844	5.48
369.292	5.48
369.74	5.5
370.189	5.49
370.637	5.48
371.085	5.46
371.533	5.46
371.981	5.44
372.429	5.45
372.877	5.45
373.325	5.45
373.773	5.44
374.221	5.42
374.669	5.41
375.116	5.41
375.564	5.41
376.012	5.41
376.459	5.41
376.907	5.42
377.354	5.41
377.801	5.42
378.249	5.42
378.696	5.43
379.143	5.43
379.591	5.44
380.038	5.44
380.485	5.43
380.932	5.44
381.379	5.44
381.826	5.44
382.273	5.45
382.72	5.45
383.166	5.45
383.613	5.46
384.06	5.46
384.506	5.46
384.953	5.47
385.4	5.47
385.846	5.48
386.292	5.48
386.739	5.49
387.185	5.49
387.631	5.5
388.078	5.5
388.524	5.51
388.97	5.52
389.416	5.53
389.862	5.55
390.308	5.57
390.754	5.61
391.2	5.63
391.645	5.65
392.091	5.67
392.537	5.68
392.983	5.7
393.428	5.71
393.874	5.73
394.319	5.75
394.765	5.75
395.21	5.76
395.655	5.75
396.101	5.77
396.546	5.78
396.991	5.8
397.436	5.81
397.881	5.84
398.326	5.85
398.771	5.86
399.216	5.88
399.661	5.9
400.106	5.91
400.551	5.92
400.995	5.92
401.44	5.93
401.885	5.94
402.329	5.95
402.774	5.96
403.218	5.98
403.663	5.99
404.107	6
404.551	6
404.995	6
405.44	5.99
405.884	6.01
406.328	6.01
406.772	6.01
407.216	6.01
407.66	6.01
408.104	6
408.547	6
408.991	6.01
409.435	6.01
409.879	6.02
410.322	6.03
410.766	6.04
411.209	6.05
411.653	6.06
412.096	6.07
412.54	6.08
412.983	6.08
413.426	6.11
413.869	6.11
414.312	6.14
414.756	6.15
415.199	6.15
415.642	6.17
416.085	6.16
416.527	6.17
416.97	6.15
417.413	6.16
417.856	6.18
418.298	6.17
418.741	6.18
419.184	6.17
419.626	6.17
420.069	6.19
420.511	6.19
420.953	6.2
421.396	6.2
421.838	6.22
422.28	6.23
422.722	6.24
423.164	6.25
423.606	6.24
424.048	6.26
424.49	6.26
424.932	6.27
425.374	6.25
425.816	6.23
426.258	6.23
426.699	6.22
427.141	6.21
427.582	6.21
428.024	6.22
428.465	6.23
428.907	6.22
429.348	6.22
429.789	6.22
430.231	6.25
430.672	6.28
431.113	6.31
431.554	6.32
431.995	6.34
432.436	6.34
432.877	6.36
433.318	6.38
433.759	6.41
434.2	6.43
434.64	6.45
435.081	6.45
435.522	6.45
435.962	6.46
436.403	6.49
436.843	6.49
437.284	6.48
437.724	6.48
438.164	6.48
438.604	6.47
439.045	6.49
439.485	6.49
439.925	6.49
440.365	6.49
440.805	6.49
441.245	6.5
441.685	6.53
442.125	6.57
442.564	6.58
443.004	6.58
443.444	6.59
443.883	6.59
444.323	6.59
444.762	6.6
445.202	6.61
445.641	6.62
446.081	6.62
446.52	6.61
446.959	6.62
447.398	6.63
447.837	6.65
448.276	6.65
448.716	6.66
449.154	6.69
449.593	6.7
450.032	6.7
450.471	6.69
450.91	6.7
451.349	6.71
451.787	6.71
452.226	6.69
452.664	6.68
453.103	6.69
453.541	6.68
453.98	6.67
454.418	6.66
454.856	6.66
455.295	6.65
455.733	6.63
456.171	6.63
456.609	6.62
457.047	6.61
457.485	6.61
457.923	6.61
458.361	6.6
458.798	6.6
459.236	6.6
459.674	6.6
460.111	6.6
460.549	6.6
460.987	6.61
461.424	6.61
461.862	6.62
462.299	6.62
462.736	6.61
463.173	6.62
463.611	6.62
464.048	6.62
464.485	6.63
464.922	6.64
465.359	6.64
465.796	6.64
466.233	6.64
466.67	6.64
467.106	6.65
467.543	6.64
467.98	6.64
468.416	6.64
468.853	6.63
469.29	6.63
469.726	6.62
470.162	6.61
470.599	6.6
471.035	6.59
471.471	6.57
471.907	6.56
472.344	6.56
472.78	6.56
473.216	6.54
473.652	6.54
474.088	6.52
474.523	6.52
474.959	6.51
475.395	6.51
475.831	6.5
476.266	6.5
476.702	6.49
477.138	6.49
477.573	6.48
478.008	6.48
478.444	6.47
478.879	6.47
479.314	6.46
479.75	6.44
480.185	6.42
480.62	6.4
481.055	6.4
481.49	6.39
481.925	6.38
482.36	6.38
482.795	6.36
483.229	6.36
483.664	6.36
484.099	6.35
484.534	6.35
484.968	6.36
485.403	6.37
485.837	6.38
486.271	6.39
486.706	6.39
487.14	6.38
487.574	6.4
488.009	6.41
488.443	6.41
488.877	6.43
489.311	6.45
489.745	6.46
490.179	6.48
490.613	6.49
491.046	6.51
491.48	6.53
491.914	6.56
492.348	6.59
492.781	6.61
493.215	6.65
493.648	6.68
494.082	6.71
494.515	6.73
494.948	6.77
495.382	6.81
495.815	6.85
496.248	6.89
496.681	6.92
497.114	6.96
497.547	7.01
497.98	7.05
498.413	7.1
498.846	7.15
499.279	7.21
499.711	7.26
500.144	7.32
500.577	7.38
501.009	7.44
501.442	7.52
501.874	7.6
502.306	7.68
502.739	7.76
503.171	7.85
503.603	7.94
504.036	8.04
504.468	8.15
504.9	8.25
505.332	8.36
505.764	8.48
506.196	8.6
506.627	8.72
507.059	8.85
507.491	8.98
507.923	9.12
508.354	9.27
508.786	9.41
509.217	9.57
509.649	9.72
510.08	9.87
510.512	10.04
510.943	10.21
511.374	10.38
511.805	10.56
512.237	10.73
512.668	10.91
513.099	11.09
513.53	11.27
513.961	11.46
514.391	11.68
514.822	11.88
515.253	12.09
515.684	12.3
516.114	12.52
516.545	12.73
516.975	12.95
517.406	13.17
517.836	13.38
518.267	13.61
518.697	13.82
519.127	14
519.558	14.21
519.988	14.41
520.418	14.6
520.848	14.8
521.278	15
521.708	15.25
522.138	15.45
522.567	15.64
522.997	15.82
523.427	16
523.857	16.2
524.286	16.37
524.716	16.55
525.145	16.73
525.575	16.9
526.004	17.07
526.433	17.17
526.863	17.31
527.292	17.45
527.721	17.58
528.15	17.72
528.579	17.85
529.008	17.97
529.437	18.08
529.866	18.17
530.295	18.26
530.724	18.35
531.152	18.45
531.581	18.54
532.01	18.62
532.438	18.68
532.867	18.77
533.295	18.85
533.723	18.9
534.152	18.96
534.58	19.04
535.008	19.09
535.436	19.14
535.865	19.18
536.293	19.23
536.721	19.29
537.149	19.34
537.576	19.38
538.004	19.43
538.432	19.47
538.86	19.49
539.287	19.51
539.715	19.56
540.143	19.6
540.57	19.63
540.998	19.66
541.425	19.68
541.852	19.71
542.28	19.73
542.707	19.73
543.134	19.76
543.561	19.8
543.988	19.83
544.415	19.85
544.842	19.86
545.269	19.88
545.696	19.9
546.123	19.92
546.549	19.93
546.976	19.94
547.403	19.97
547.829	19.98
548.256	19.99
548.682	19.98
549.108	20
549.535	20.02
549.961	20.03
550.387	20.04
550.813	20.05
551.24	20.04
551.666	20.04
552.092	20.03
552.518	20.03
552.943	20.01
553.369	20.02
553.795	19.98
554.221	19.95
554.646	19.91
555.072	19.88
555.498	19.83
555.923	19.8
556.349	19.73
556.774	19.67
557.199	19.62
557.625	19.57
558.05	19.5
558.475	19.44
558.9	19.38
559.325	19.32
559.75	19.24
560.175	19.16
560.6	19.08
561.025	19.01
561.449	18.94
561.874	18.86
562.299	18.76
562.723	18.66
563.148	18.54
563.572	18.43
563.997	18.33
564.421	18.23
564.846	18.13
565.27	18.03
565.694	17.93
566.118	17.81
566.542	17.7
566.966	17.58
567.39	17.47
567.814	17.38
568.238	17.28
568.662	17.17
569.086	17.06
569.509	16.96
569.933	16.86
570.357	16.75
570.78	16.64
571.204	16.54
571.627	16.43
572.05	16.33
572.474	16.24
572.897	16.14
573.32	16.03
573.743	15.94
574.166	15.83
574.589	15.73
575.012	15.64
575.435	15.55
575.858	15.46
576.281	15.37
576.704	15.3
577.126	15.22
577.549	15.13
577.972	15.06
578.394	14.98
578.817	14.91
579.239	14.85
579.661	14.78
580.084	14.72
580.506	14.66
580.928	14.61
581.35	14.55
581.772	14.48
582.194	14.43
582.616	14.38
583.038	14.32
583.46	14.25
583.882	14.19
584.303	14.14
584.725	14.08
585.147	14.03
585.568	13.97
585.99	13.91
586.411	13.86
586.833	13.81
587.254	13.77
587.675	13.72
588.096	13.68
588.518	13.64
588.939	13.6
589.36	13.57
589.781	13.52
590.202	13.49
590.623	13.47
591.043	13.43
591.464	13.41
591.885	13.38
592.305	13.36
592.726	13.34
593.147	13.3
593.567	13.27
593.987	13.24
594.408	13.22
594.828	13.2
595.248	13.17
595.669	13.14
596.089	13.11
596.509	13.1
596.929	13.07
597.349	13.03
597.769	13.02
598.189	12.98
598.608	12.97
599.028	12.95
599.448	12.92
599.867	12.89
600.287	12.86
600.706	12.83
601.126	12.79
601.545	12.76
601.965	12.73
602.384	12.69
602.803	12.65
603.222	12.6
603.641	12.55
604.061	12.51
604.48	12.46
604.898	12.41
605.317	12.36
605.736	12.32
606.155	12.26
606.574	12.21
606.992	12.16
607.411	12.12
607.829	12.04
608.248	11.98
608.666	11.92
609.085	11.87
609.503	11.82
609.921	11.77
610.339	11.7
610.758	11.66
611.176	11.6
611.594	11.54
612.012	11.47
612.43	11.45
612.847	11.4
613.265	11.35
613.683	11.29
614.101	11.24
614.518	11.19
614.936	11.14
615.353	11.08
615.771	11.04
616.188	10.99
616.606	10.95
617.023	10.9
617.44	10.87
617.857	10.84
618.274	10.8
618.691	10.76
619.108	10.72
619.525	10.7
619.942	10.68
620.359	10.65
620.776	10.62
621.192	10.6
621.609	10.59
622.026	10.55
622.442	10.53
622.859	10.51
623.275	10.5
623.691	10.47
624.108	10.46
624.524	10.45
624.94	10.44
625.356	10.44
625.772	10.43
626.188	10.41
626.604	10.41
627.02	10.41
627.436	10.41
627.852	10.4
628.268	10.4
628.683	10.39
629.099	10.39
629.514	10.38
629.93	10.36
630.345	10.34
630.761	10.31
631.176	10.3
631.591	10.27
632.007	10.23
632.422	10.2
632.837	10.17
633.252	10.13
633.667	10.08
634.082	10.03
634.497	9.98
634.911	9.93
635.326	9.88
635.741	9.82
636.155	9.75
636.57	9.7
636.984	9.63
637.399	9.55
637.813	9.48
638.228	9.4
638.642	9.32
639.056	9.23
639.47	9.16
639.884	9.08
640.298	8.99
640.712	8.91
641.126	8.83
641.54	8.74
641.954	8.65
642.368	8.56
642.781	8.48
643.195	8.4
643.609	8.32
644.022	8.24
644.436	8.17
644.849	8.1
645.262	8.03
645.676	7.97
646.089	7.91
646.502	7.86
646.915	7.82
647.328	7.77
647.741	7.73
648.154	7.69
648.567	7.66
648.98	7.62
649.393	7.59
649.805	7.56
650.218	7.53
650.631	7.5
651.043	7.48
651.456	7.46
651.868	7.44
652.28	7.41
652.693	7.39
653.105	7.37
653.517	7.34
653.929	7.32
654.341	7.28
654.753	7.25
655.165	7.22
655.577	7.19
655.989	7.15
656.401	7.11
656.813	7.07
657.224	7.03
657.636	6.97
658.047	6.94
658.459	6.88
658.87	6.85
659.282	6.8
659.693	6.75
660.104	6.69
660.515	6.65
660.926	6.61
661.338	6.56
661.749	6.53
662.159	6.48
662.57	6.45
662.981	6.41
663.392	6.36
663.803	6.33
664.213	6.3
664.624	6.26
665.035	6.24
665.445	6.21
665.855	6.19
666.266	6.18
666.676	6.18
667.086	6.15
667.497	6.13
667.907	6.12
668.317	6.11
668.727	6.11
669.137	6.11
669.547	6.1
669.956	6.09
670.366	6.09
670.776	6.09
671.186	6.09
671.595	6.1
672.005	6.1
672.414	6.12
672.824	6.13
673.233	6.13
673.642	6.14
674.052	6.13
674.461	6.14
674.87	6.16
675.279	6.17
675.688	6.19
676.097	6.2
676.506	6.23
676.915	6.25
677.323	6.27
677.732	6.29
678.141	6.33
678.549	6.36
678.958	6.38
679.366	6.42
679.775	6.44
680.183	6.47
680.592	6.52
681	6.56
681.408	6.6
681.816	6.66
682.224	6.72
682.632	6.79
683.04	6.86
683.448	6.95
683.856	7.04
684.264	7.14
684.671	7.24
685.079	7.36
685.487	7.51
685.894	7.67
686.302	7.83
686.709	8.02
687.116	8.23
687.524	8.47
687.931	8.72
688.338	8.99
688.745	9.26
689.152	9.58
689.559	9.9
689.966	10.24
690.373	10.6
690.78	10.99
691.187	11.38
691.593	11.78
692	12.19
692.407	12.6
692.813	13.04
693.22	13.49
693.626	13.95
694.032	14.41
694.439	14.87
694.845	15.35
695.251	15.81
695.657	16.28
696.063	16.77
696.469	17.25
696.875	17.75
697.281	18.21
697.687	18.69
698.093	19.16
698.498	19.62
698.904	20.09
699.31	20.54
699.715	21
700.12	21.44
700.526	21.88
700.931	22.33
701.337	22.75
701.742	23.18
702.147	23.58
702.552	24
702.957	24.39
703.362	24.79
703.767	25.17
704.172	25.55
704.577	25.92
704.981	26.28
705.386	26.64
705.791	27.01
706.195	27.38
706.6	27.76
707.004	28.1
707.408	28.46
707.813	28.81
708.217	29.14
708.621	29.48
709.025	29.82
709.43	30.15
709.834	30.46
710.237	30.75
710.641	31.03
711.045	31.31
711.449	31.6
711.853	31.88
712.256	32.15
712.66	32.45
713.064	32.69
713.467	32.94
713.87	33.19
714.274	33.45
714.677	33.71
715.08	33.95
715.484	34.2
715.887	34.45
716.29	34.68
716.693	34.9
717.096	35.11
717.499	35.34
717.901	35.56
718.304	35.77
718.707	35.97
719.109	36.19
719.512	36.4
719.915	36.58
720.317	36.74
720.719	36.89
721.122	37.07
721.524	37.24
721.926	37.41
722.328	37.58
722.731	37.75
723.133	37.92
723.535	38.07
723.937	38.24
724.338	38.38
724.74	38.55
725.142	38.77
725.544	38.91
725.945	39.06
726.347	39.2
726.748	39.31
727.15	39.4
727.551	39.54
727.952	39.63
728.354	39.72
728.755	39.84
729.156	39.92
729.557	39.96
729.958	40.04
730.359	40.13
730.76	40.23
731.161	40.3
731.562	40.41
731.962	40.46
732.363	40.55
732.763	40.64
733.164	40.7
733.564	40.79
733.965	40.86
734.365	40.93
734.766	40.98
735.166	41.05
735.566	41.12
735.966	41.18
736.366	41.23
736.766	41.28
737.166	41.31
737.566	41.35
737.966	41.39
738.365	41.44
738.765	41.48
739.165	41.52
739.564	41.55
739.964	41.59
740.363	41.6
740.763	41.62
741.162	41.67
741.561	41.71
741.96	41.71
742.36	41.75
742.759	41.75
743.158	41.79
743.557	41.82
743.955	41.84
744.354	41.87
744.753	41.96
745.152	42.01
745.55	42.04
745.949	42.08
746.348	42.11
746.746	42.14
747.144	42.18
747.543	42.18
747.941	42.2
748.339	42.2
748.737	42.2
749.136	42.17
749.534	42.16
749.932	42.15
750.33	42.16
750.727	42.19
751.125	42.19
751.523	42.21
751.921	42.21
752.318	42.22
752.716	42.23
753.113	42.26
753.511	42.28
753.908	42.32
754.305	42.34
754.703	42.32
755.1	42.3
755.497	42.31
755.894	42.32
756.291	42.35
756.688	42.35
757.085	42.37
757.482	42.37
757.878	42.35
758.275	42.33
758.672	42.31
759.068	42.33
759.465	42.33
759.861	42.33
760.258	42.33
760.654	42.33
761.05	42.33
761.447	42.33
761.843	42.32
762.239	42.32
762.635	42.33
763.031	42.34
763.427	42.33
763.822	42.34
764.218	42.35
764.614	42.35
765.01	42.33
765.405	42.32
765.801	42.3
766.196	42.31
766.592	42.33
766.987	42.32
767.382	42.31
767.778	42.33
768.173	42.33
768.568	42.34
768.963	42.33
769.358	42.35
769.753	42.34
770.148	42.36
770.542	42.35
770.937	42.35
771.332	42.33
771.726	42.34
772.121	42.3
772.515	42.31
772.91	42.3
773.304	42.3
773.699	42.3
774.093	42.3
774.487	42.28
774.881	42.29
775.275	42.28
775.669	42.27
776.063	42.27
776.457	42.31
776.851	42.3
777.245	42.28
777.638	42.28
778.032	42.29
778.425	42.32
778.819	42.35
779.212	42.36
779.606	42.39
779.999	42.39
780.392	42.41
780.786	42.39
781.179	42.41
781.572	42.45
781.965	42.47
782.358	42.44
782.751	42.4
783.143	42.39
783.536	42.35
783.929	42.33
784.322	42.34
784.714	42.33
785.107	42.34
785.499	42.31
785.891	42.3
786.284	42.3
786.676	42.32
787.068	42.35
787.46	42.35
787.852	42.36
788.245	42.36
788.636	42.36
789.028	42.37
789.42	42.36
789.812	42.37
790.204	42.38
790.595	42.36
790.987	42.36
791.378	42.36
791.77	42.38
792.161	42.4
792.553	42.39
792.944	42.41
793.335	42.41
793.726	42.4
794.117	42.38
794.508	42.36
794.899	42.37
795.29	42.36
795.681	42.34
796.072	42.31
796.463	42.33
796.853	42.33
797.244	42.33
797.634	42.33
798.025	42.33
798.415	42.33
798.806	42.33
799.196	42.32
799.586	42.32
799.976	42.33
800.366	42.35
800.756	42.34
801.146	42.34
801.536	42.34
801.926	42.33
802.316	42.33
802.706	42.37
803.095	42.38
803.485	42.38
803.874	42.37
804.264	42.37
804.653	42.35
805.043	42.33
805.432	42.31
805.821	42.3
806.21	42.3
806.599	42.28
806.988	42.23
807.377	42.24
807.766	42.25
808.155	42.23
808.544	42.22
808.933	42.24
809.321	42.22
809.71	42.22
810.098	42.22
810.487	42.19
810.875	42.21
811.264	42.22
811.652	42.22
812.04	42.21
812.428	42.25
812.816	42.23
813.204	42.23
813.592	42.23
813.98	42.24
814.368	42.24
814.756	42.25
815.144	42.22
815.531	42.22
815.919	42.22
816.306	42.22
816.694	42.18
817.081	42.2
817.469	42.21
817.856	42.2
818.243	42.2
818.63	42.18
819.017	42.18
819.404	42.19
819.791	42.18
820.178	42.17
820.565	42.14
820.952	42.14
821.339	42.1
821.725	42.09
822.112	42.13
822.498	42.15
822.885	42.2
823.271	42.19
823.657	42.17
824.044	42.18
824.43	42.19
824.816	42.2
825.202	42.19
825.588	42.21
825.974	42.22
826.36	42.16
826.746	42.12
827.132	42.09
827.517	42.1
827.903	42.12
828.289	42.14
828.674	42.13
829.06	42.14
829.445	42.16
829.83	42.14
830.216	42.12
830.601	42.15
830.986	42.17
831.371	42.17
831.756	42.15
832.141	42.16
832.526	42.14
832.911	42.14
833.295	42.14
833.68	42.14
834.065	42.15
834.449	42.14
834.834	42.14
835.218	42.12
835.603	42.13
835.987	42.14
836.371	42.12
836.755	42.12
837.139	42.1
837.524	42.09
837.908	42.12
838.291	42.12
838.675	42.12
839.059	42.12
839.443	42.12
839.827	42.11
840.21	42.09
840.594	42.11
840.977	42.13
841.361	42.17
841.744	42.13
842.127	42.11
842.511	42.1
842.894	42.1
843.277	42.11
843.66	42.09
844.043	42.1
844.426	42.12
844.809	42.11
845.191	42.1
845.574	42.1
845.957	42.14
846.339	42.13
846.722	42.15
847.104	42.17
847.487	42.17
847.869	42.19
848.252	42.2
848.634	42.21
849.016	42.21
849.398	42.22
849.78	42.23
850.162	42.21
850.544	42.22
850.926	42.2
851.307	42.22
851.689	42.22
852.071	42.24
852.452	42.23
852.834	42.23
853.215	42.22
853.597	42.22
853.978	42.19
854.359	42.21
854.741	42.2
855.122	42.22
855.503	42.17
855.884	42.15
856.265	42.13
856.646	42.14
857.026	42.15
857.407	42.19
857.788	42.19
858.169	42.22
858.549	42.24
858.93	42.26
859.31	42.28
859.69	42.3
860.071	42.32
860.451	42.34
860.831	42.34
861.211	42.31
861.591	42.28
861.971	42.26
862.351	42.27
862.731	42.26
863.111	42.26
863.491	42.24
863.87	42.24
864.25	42.23
864.629	42.22
865.009	42.22
865.388	42.23
865.768	42.23
866.147	42.24
866.526	42.22
866.905	42.2
867.284	42.2
867.663	42.2
868.042	42.19
868.421	42.2
868.8	42.22
869.179	42.2
869.558	42.2
869.936	42.19
870.315	42.18
870.693	42.17
871.072	42.19
871.45	42.19
871.828	42.17
872.207	42.19
872.585	42.19
872.963	42.2
873.341	42.2
873.719	42.22
874.097	42.22
874.475	42.24
874.853	42.27
875.23	42.29
875.608	42.29
875.986	42.33
876.363	42.32
876.741	42.32
877.118	42.29
877.495	42.28
877.873	42.29
878.25	42.33
878.627	42.34
879.004	42.33
879.381	42.3
879.758	42.3
880.135	42.28
880.512	42.25
880.889	42.24
881.265	42.24
881.642	42.24
882.019	42.22
882.395	42.19
882.772	42.17
883.148	42.15
883.524	42.13
883.901	42.13
884.277	42.13
884.653	42.14
885.029	42.14
885.405	42.14
885.781	42.15
886.157	42.15
886.532	42.17
886.908	42.19
887.284	42.21
887.659	42.22
888.035	42.2
888.411	42.2
888.786	42.22
889.161	42.24
889.537	42.25
889.912	42.24
890.287	42.24
890.662	42.22
891.037	42.23
891.412	42.22
891.787	42.21
892.162	42.23
892.536	42.22
892.911	42.2
893.286	42.21
893.66	42.21
894.035	42.22
894.409	42.22
894.784	42.23
895.158	42.22
895.532	42.22
895.906	42.21
896.281	42.21
896.655	42.21
897.029	42.23
897.402	42.2
897.776	42.19
898.15	42.18
898.524	42.19
898.898	42.17
899.271	42.16
899.645	42.16
900.018	42.19
900.392	42.19
900.765	42.22
901.138	42.2
901.511	42.22
901.884	42.23
902.258	42.22
902.631	42.21
903.003	42.22
903.376	42.23
903.749	42.24
904.122	42.23
904.495	42.25
904.867	42.23
905.24	42.24
905.612	42.25
905.985	42.24
906.357	42.23
906.729	42.24
907.102	42.24
907.474	42.28
907.846	42.25
908.218	42.26
908.59	42.26
908.962	42.28
909.334	42.28
909.705	42.27
910.077	42.28
910.449	42.3
910.82	42.31
911.192	42.3
911.563	42.29
911.935	42.28
912.306	42.29
912.677	42.27
913.048	42.27
913.419	42.25
913.79	42.24
914.161	42.22
914.532	42.22
914.903	42.22
915.274	42.23
915.645	42.22
916.015	42.21
916.386	42.22
916.756	42.23
917.127	42.2
917.497	42.22
917.868	42.23
918.238	42.23
918.608	42.24
918.978	42.21
919.348	42.24
919.718	42.25
920.088	42.24
920.458	42.23
920.828	42.19
921.198	42.18
921.567	42.16
921.937	42.18
922.306	42.18
922.676	42.15
923.045	42.12
923.415	42.06
923.784	42.06
924.153	42.07
924.522	42.07
924.891	42.11
925.26	42.12
925.629	42.12
925.998	42.1
926.367	42.11
926.736	42.1
927.104	42.13
927.473	42.15
927.842	42.13
928.21	42.14
928.578	42.1
928.947	42.09
929.315	42.05
929.683	42.09
930.051	42.06
930.42	42.04
930.788	42.02
931.156	41.98
931.523	41.96
931.891	41.98
932.259	41.96
932.627	41.98
932.994	41.98
933.362	42
933.729	41.97
934.097	41.98
934.464	42.01
934.831	42.03
935.199	42.08
935.566	42.09
935.933	42.1
936.3	42.11
936.667	42.09
937.034	42.07
937.401	42.04
937.767	42.03
938.134	42.04
938.501	42.02
938.867	42.05
939.234	42.03
939.6	42
939.967	41.97
940.333	41.95
940.699	42.01
941.065	41.98
941.431	42.01
941.798	41.98
942.163	41.92
942.529	41.93
942.895	41.93
943.261	41.84
943.627	41.86
943.992	41.81
944.358	41.77
944.723	41.7
945.089	41.66
945.454	41.7
945.82	41.67
946.185	41.66
946.55	41.58
946.915	41.53
947.28	41.54
947.645	41.53
948.01	41.53
948.375	41.59
948.74	41.63
949.104	41.69
949.469	41.61
949.834	41.65
950.198	41.63
950.562	41.65
950.927	41.64
951.291	41.63
951.655	41.59
952.02	41.61
952.384	41.55
952.748	41.54
953.112	41.51
953.476	41.48
953.839	41.45
954.203	41.42
954.567	41.37
954.931	41.35
955.294	41.33
955.658	41.4
956.021	41.36
956.385	41.31
956.748	41.25
957.111	41.19
957.474	41.22
957.837	41.17
958.2	41.18
958.563	41.21
958.926	41.24
959.289	41.25
959.652	41.22
960.015	41.22
960.377	41.25
960.74	41.32
961.102	41.32
961.465	41.32
961.827	41.34
962.189	41.37
962.552	41.3
962.914	41.25
963.276	41.25
963.638	41.23
964	41.22
964.362	41.21
964.724	41.14
965.085	41.16
965.447	41.15
965.809	41.17
966.17	41.15
966.532	41.19
966.893	41.24
967.255	41.22
967.616	41.21
967.977	41.25
968.338	41.24
968.699	41.25
969.061	41.23
969.421	41.22
969.782	41.22
970.143	41.2
970.504	41.21
970.865	41.19
971.225	41.16
971.586	41.18
971.946	41.09
972.307	41.1
972.667	41.11
973.027	41.11
973.388	41.09
973.748	41.06
974.108	41.11
974.468	41.1
974.828	41.07
975.188	41.12
975.548	41.09
975.907	41.13
976.267	41.14
976.627	41.18
976.986	41.16
977.346	41.18
977.705	41.15
978.064	41.12
978.424	41.13
978.783	41.13
979.142	41.07
979.501	41.07
979.86	41.13
980.219	41.13
980.578	41.12
980.937	41.11
981.296	41.1
981.654	41.1
982.013	41.12
982.371	41.13
982.73	41.18
983.088	41.15
983.447	41.08
983.805	41.02
984.163	40.91
984.521	40.88
984.879	40.81
985.237	40.83
985.595	40.92
985.953	40.84
986.311	40.81
986.669	40.77
987.026	40.81
987.384	40.91
987.741	40.83
988.099	40.99
988.456	40.91
988.814	40.98
989.171	40.92
989.528	40.89
989.885	40.88
990.242	40.91
990.599	40.91
990.956	40.95
991.313	40.92
991.67	40.98
992.027	40.99
992.383	41.08
992.74	41.14
993.096	41.22
993.453	41.14
993.809	41.19
994.165	41.21
994.522	41.27
994.878	41.28
995.234	41.3
995.59	41.3
995.946	41.24
996.302	41.26
996.658	41.25
997.013	41.21
997.369	41.36
997.725	41.37
998.08	41.42
998.436	41.41
998.791	41.48
999.147	41.5
999.502	41.54
999.857	41.48
1000.212	41.37
1000.567	41.4
1000.922	41.41
1001.277	41.29
1001.632	41.22
1001.987	41.05
1002.342	40.89
1002.696	40.68
1003.051	40.73
1003.406	40.72
1003.76	40.79
1004.114	40.88
1004.469	40.91
1004.823	41.02
1005.177	40.98
1005.531	41.09
1005.885	41.27
1006.239	41.37
1006.593	41.54
1006.947	41.47
1007.301	41.45
1007.655	41.34
1008.008	41.25
1008.362	41.17
1008.715	41.05
1009.069	41.25
1009.422	41.25
1009.776	41.12
1010.129	41.21
1010.482	41.24
1010.835	41.27
1011.188	41.36
1011.541	41.46
1011.894	41.58
1012.247	41.6
1012.6	41.7
1012.952	41.59
1013.305	41.55
1013.657	41.72
1014.01	41.73
1014.362	41.58
1014.715	41.62
1015.067	41.52
1015.419	41.6
1015.771	41.44
1016.123	41.5
1016.475	41.36
1016.827	41.41
1017.179	41.48
1017.531	41.39
1017.883	41.29
1018.234	41.4
1018.586	41.32
1018.938	41.44
1019.289	41.19
1019.64	41.29
1019.992	41.11
1020.343	41.17
1020.694	41
1021.045	41.07
1021.396	41.1
1021.747	41.21
1022.098	41.15
1022.449	41.08
1022.8	40.99
1023.151	41.17
1023.501	41.33
1023.852	41.47
1024.202	41.3
1024.553	41.37
1024.903	41.18
1025.253	41.32
1025.604	41.17
1025.954	40.79
1026.304	40.86
1026.654	41.11
1027.004	41.02
1027.354	40.96
1027.703	40.59
1028.053	40.8
1028.403	40.9
1028.753	40.88
1029.102	40.87
1029.452	41.13
1029.801	41.83
1030.15	41.89
1030.499	41.6
897.758	495.83
901.051	501.18
904.343	499.04
907.636	507.76
910.928	495.73
914.22	496.45
917.511	488.47
920.803	472.14
924.094	471.74
927.384	460.31
930.675	441.83
933.965	441.59
937.255	417.36
940.544	402.71
943.834	385.28
947.123	381.39
950.411	361.59
953.7	355.03
956.988	338.22
960.276	326.97
963.563	320.75
966.851	311.22
970.138	307.99
973.424	299.81
976.711	301.34
979.997	286.82
983.283	285.72
986.568	280.22
989.853	273.08
993.138	266.72
996.423	255.92
999.708	251.61
1002.992	247.59
1006.275	239.46
1009.559	235.69
1012.842	227.01
1016.125	223.92
1019.408	220.17
1022.69	217.82
1025.972	213.45
1029.254	209.26
1032.536	206.31
1035.817	202.14
1039.098	199.89
1042.379	195.87
1045.659	194.63
1048.939	191.19
1052.219	185.73
1055.498	184.28
1058.778	179.61
1062.057	176.32
1065.335	175.1
1068.614	172.48
1071.892	170.25
1075.17	167.65
1078.447	164.21
1081.724	163.2
1085.001	162.21
1088.278	159.86
1091.554	155.98
1094.83	156.9
1098.106	155.26
1101.382	154.14
1104.657	154.07
1107.932	151.74
1111.206	150.51
1114.481	148.4
1117.755	147.82
1121.029	146.66
1124.302	146.2
1127.575	144.24
1130.848	142.52
1134.121	141.83
1137.393	140.74
1140.665	138.09
1143.937	137.81
1147.208	137.29
1150.48	136.01
1153.75	133.73
1157.021	132.12
1160.291	131.89
1163.561	130.99
1166.831	131.25
1170.101	130.39
1173.37	131.08
1176.639	131.56
1179.907	129.86
1183.176	129.45
1186.444	129.57
1189.711	129.59
1192.979	129.58
1196.246	128.94
1199.513	129.54
1202.78	128.56
1206.046	128.37
1209.312	126.68
1212.578	126.56
1215.843	127.4
1219.108	127.18
1222.373	129.11
1225.638	129.59
1228.902	130.18
1232.166	131.8
1235.43	131.3
1238.693	132.77
1241.956	133.43
1245.219	134.56
1248.482	135.56
1251.744	135.56
1255.006	135.69
1258.268	133.52
1261.529	132.81
1264.79	132.57
1268.051	131.22
1271.312	130.66
1274.572	128.65
1277.832	128.53
1281.092	126.81
1284.351	125.58
1287.61	125.82
1290.869	123.72
1294.128	123.01
1297.386	122.41
1300.644	121.67
1303.902	120.95
1307.159	120.33
1310.416	120.59
1313.673	119.11
1316.93	119.52
1320.186	119.16
1323.442	119.56
1326.697	120.75
1329.953	120.78
1333.208	121.32
1336.463	122.43
1339.717	122.85
1342.972	123.99
1346.226	124.71
1349.479	125.4
1352.733	126.84
1355.986	128.4
1359.238	127.61
1362.491	127.58
1365.743	127.87
1368.995	128.04
1372.247	127.65
1375.498	127.21
1378.749	126.61
1382	125.73
1385.251	124.86
1388.501	123.27
1391.751	121.02
1395	120.7
1398.25	119.52
1401.499	117.79
1404.748	116.82
1407.996	114.6
1411.244	114.01
1414.492	113.48
1417.74	111.51
1420.987	110.7
1424.234	109.58
1427.481	108.75
1430.728	108.04
1433.974	108.02
1437.22	107.23
1440.465	106.84
1443.711	105.55
1446.956	104.31
1450.201	103.69
1453.445	103.03
1456.689	101.88
1459.933	100.66
1463.177	100.03
1466.42	98.97
1469.663	96.65
1472.906	96.08
1476.148	93.89
1479.391	93.59
1482.633	93.54
1485.874	91.81
1489.115	90.79
1492.356	90.83
1495.597	90.48
1498.838	89.55
1502.078	89.07
1505.318	89.73
1508.557	89.57
1511.797	89.93
1515.036	88.82
1518.274	89.16
1521.513	89.31
1524.751	88.72
1527.989	89.13
1531.227	89.3
1534.464	89.2
1537.701	89.09
1540.938	88.68
1544.174	88.73
1547.41	88.4
1550.646	88.68
1553.882	88.37
1557.117	87.75
1560.352	87.82
1563.587	87.72
1566.821	87.43
1570.055	87.11
1573.289	86.97
1576.523	87.07
1579.756	86.37
1582.989	86.16
1586.222	86.11
1589.454	85.87
1592.686	86.85
1595.918	86.57
1599.15	86.03
1602.381	86.01
1605.612	86.06
1608.843	85.92
1612.073	85.69
1615.303	86.15
1618.533	86.4
1621.762	86.81
1624.992	86.97
1628.221	86.26
1631.449	86.34
1634.678	86.15
1637.906	87.1
1641.134	86.96
1644.361	87
1647.588	87.17
1650.815	86.9
1654.042	87.38
1657.269	86.88
1660.495	87.02
1663.72	87.39
1666.946	87.41
1670.171	87.92
1673.396	87.1
1676.621	87.78
1679.845	87.79
1683.069	88.48
1686.293	88.52
1689.517	88.29
1692.74	88.76
1695.963	88.72
1699.185	88.57
1702.408	88.87
1705.63	89.46
1708.852	89.76
1712.073	89.36
1715.294	89.68
1718.515	89.27
1721.736	89.8
1724.956	89.95
1728.176	89.9
1731.396	89.99
1734.616	90.19
1737.835	90.53
1741.054	89.39
1744.272	89.89
1747.491	90.38
1750.709	90.08
1753.927	90.06
1757.144	89.75
1760.361	89.82
1763.578	89.76
1766.795	89.85
1770.011	90.43
1773.227	90
1776.443	91.13
1779.658	90.67
1782.874	90.61
1786.089	90.42
1789.303	90.84
1792.518	91.65
1795.732	91.57
1798.945	92.99
1802.159	92.66
1805.372	92.47
1808.585	94.06
1811.797	93.79
1815.01	94.74
1818.222	95.31
1821.434	96.9
1824.645	96.86
1827.856	98.28
1831.067	98.5
1834.278	98.4
1837.488	99.52
1840.698	99.67
1843.908	98.97
1847.117	99.05
1850.326	99.11
1853.535	98.49
1856.744	99.04
1859.952	98.57
1863.16	97.04
1866.368	96.42
1869.575	95.55
1872.782	93.57
1875.989	92.6
1879.196	92.25
1882.402	90.9
1885.608	90.22
1888.814	89.74
1892.019	88.19
1895.224	87.67
1898.429	87.5
1901.634	87.15
1904.838	87.59
1908.042	88.34
1911.246	87.94
1914.449	88.13
1917.652	87.87
1920.855	88.16
1924.058	88
1927.26	88.18
1930.462	87.92
1933.664	88.46
1936.865	88.71
1940.066	87.21
1943.267	86.66
1946.467	87.83
1949.668	87.6
1952.868	89.28
1956.067	89.17
1959.267	89.38
1962.466	89.57
1965.665	89.3
1968.863	89.88
1972.061	90.16
1975.259	91.45
1978.457	92.54
1981.654	93.02
1984.852	93.45
1988.048	93.09
1991.245	94.34
1994.441	94.57
1997.637	96.42
2000.833	98.79
2004.028	99.42
2007.223	100.87
2010.418	102.04
2013.613	104.2
2016.807	105.52
2020.001	106.78
2023.194	108.16
2026.388	110.3
2029.581	113.35
2032.774	113.5
2035.966	115.9
2039.158	117.04
2042.35	119.45
2045.542	118.98
2048.733	120.92
2051.924	120.47
2055.115	123.8
2058.306	124.51
2061.496	125.18
2064.686	125.93
2067.875	127.41
2071.065	127.33
2074.254	126.58
2077.442	128.04
2080.631	129.67
2083.819	130.16
2087.007	132.8
2090.195	132.9
2093.382	134.41
2096.569	134.32
2099.756	135.99
2102.942	136.65
2106.128	137.52
2109.314	141.87
2112.5	140.76
2115.685	143.74
2118.87	144.2
2122.055	147.01
2125.239	147.66
2128.424	148.94
2131.608	149.68
2134.791	151.92
2137.974	152.08
2141.157	153.42
2144.34	152.4
2147.523	153.83
2150.705	153.47
2153.887	155.75
2157.068	155.62
2160.25	154.01
2163.431	155.64
2166.611	156.25
2169.792	159.83
2172.972	161.65
2176.152	162.42
2179.331	164.58
2182.511	167.94
2185.69	169.02
2188.868	169.76
2192.047	171.76
2195.225	177.37
2198.403	180.06
2201.58	185.05
2204.758	186.58
2207.935	190.45
2211.111	193.33
2214.288	194.59
2217.464	195.02
2220.64	199.43
2223.815	202.65
2226.991	207.41
2230.166	207.8
2233.34	211.38
2236.515	213.06
2239.689	213.85
2242.863	215.67
2246.036	222.17
2249.209	221.34
2252.382	225.54
2255.555	231.61
2258.727	232.75
2261.9	237.65
2265.071	240.06
2268.243	242.41
2271.414	246.99
2274.585	251.64
2277.756	254.05
2280.926	257.22
2284.096	262.75
2287.266	267
2290.436	267.38
2293.605	272.94
2296.774	276.82
2299.942	284.09
2303.111	288.33
2306.279	291.55
2309.447	294.42
2312.614	304.35
2315.781	307.93
2318.948	323.29
2322.115	321.19
2325.281	341.31
2328.447	335.13
2331.613	347.9
2334.779	345.95
2337.944	358.04
2341.109	364.87
2344.274	376.82
2347.438	386.63
2350.602	388.39
2353.766	402.24
2356.929	409.21
2360.092	402.79
2363.255	430.47
2366.418	432.74
2369.58	439.28
2372.742	467.62
2375.904	479.04
2379.066	476.3
2382.227	469.41
2385.388	508.9
2388.548	505.34
2391.709	506.91
2394.869	564.81
2398.029	542.82
2401.188	560.57
2404.347	554.37
2407.506	547.05
2410.665	557.78
2413.823	589.5
2416.981	622.24
2420.139	603.61
2423.296	596.68
2426.453	626.3
2429.61	601.41
2432.767	626.19
2435.923	613.49
2439.079	679.08
2442.235	687.63
2445.391	686.08
2448.546	678.55
2451.701	660.32
2454.855	659.6
2458.009	700.3
2461.163	729.66
2464.317	757.02
2467.471	776.03
2470.624	779.83
2473.777	757.24
2476.929	733.2
2480.082	709.51
2483.234	705.66
2486.385	743.23
2489.537	746.37
2492.688	769.93
2495.839	751.6
2498.989	735.55
2502.14	738.37
2505.29	743.1
2508.439	752.55
2511.589	755.37
2514.738	827.08
2517.887	809.93
2521.035	847.49
2524.183	850.53
2527.331	860.26
2530.479	848.33
2533.627	856.36
