Data from N_1_HIR_WI_4n_Splice17_12-15-48-600.txt Node
Date: Sat Mar 07 12:15:48 EST 2020
User: sa697716
Spectrometer: NQ5500242
Trigger mode: 0
Integration Time (sec): 1.450000E-1
Scans to average: 20
Nonlinearity correction enabled: false
Boxcar width: 5
Storing dark spectrum: false
XAxis mode: Wavelengths
Number of Pixels in Spectrum: 512
>>>>>Begin Spectral Data<<<<<
187.83	111.05
188.298	140.02
188.766	128.2
189.233	107.42
189.701	78.27
190.169	84.37
190.636	94.75
191.104	38.8
191.571	-298.13
192.039	-322.3
192.506	-283.67
192.974	89.62
193.441	322.35
193.908	245.56
194.375	145.26
194.842	-9.98
195.31	-65.35
195.777	-83.25
196.244	37.94
196.711	45.75
197.177	49.56
197.644	51.29
198.111	51.57
198.578	51.64
199.045	51.62
199.511	51.64
199.978	52.12
200.445	52.19
200.911	52.26
201.378	52.23
201.844	52.18
202.31	52.07
202.777	51.98
203.243	52
203.709	51.57
204.176	51.33
204.642	51.42
205.108	51.4
205.574	51.28
206.04	50.55
206.506	50.24
206.972	50.32
207.438	49.99
207.903	49.29
208.369	48.38
208.835	47.91
209.301	47.06
209.766	46
210.232	44.94
210.697	43.98
211.163	43.42
211.628	42.92
212.094	42.05
212.559	41.6
213.024	40.97
213.49	40.71
213.955	40.07
214.42	39.46
214.885	38.9
215.35	38.1
215.815	36.96
216.28	35.43
216.745	33.43
217.21	31.55
217.675	29.76
218.14	28.4
218.604	27.06
219.069	25.99
219.534	25.1
219.998	24.27
220.463	23.64
220.927	23.03
221.392	22.54
221.856	22.21
222.32	21.87
222.785	21.57
223.249	21.25
223.713	20.95
224.177	20.69
224.642	20.42
225.106	20.17
225.57	19.88
226.034	19.66
226.497	19.43
226.961	19.19
227.425	18.99
227.889	18.77
228.353	18.57
228.816	18.4
229.28	18.19
229.744	18.02
230.207	17.84
230.671	17.65
231.134	17.47
231.597	17.31
232.061	17.12
232.524	16.94
232.987	16.79
233.45	16.61
233.914	16.43
234.377	16.26
234.84	16.1
235.303	15.96
235.766	15.81
236.229	15.67
236.691	15.52
237.154	15.4
237.617	15.29
238.08	15.15
238.542	15.02
239.005	14.91
239.468	14.79
239.93	14.67
240.393	14.55
240.855	14.43
241.317	14.31
241.78	14.2
242.242	14.08
242.704	13.96
243.166	13.86
243.629	13.76
244.091	13.66
244.553	13.55
245.015	13.44
245.477	13.35
245.939	13.25
246.4	13.16
246.862	13.06
247.324	12.98
247.786	12.89
248.247	12.79
248.709	12.68
249.17	12.59
249.632	12.51
250.093	12.42
250.555	12.34
251.016	12.27
251.477	12.19
251.939	12.12
252.4	12.05
252.861	11.98
253.322	11.93
253.783	11.88
254.244	11.83
254.705	11.76
255.166	11.71
255.627	11.66
256.088	11.62
256.549	11.57
257.009	11.53
257.47	11.47
257.931	11.42
258.391	11.35
258.852	11.29
259.312	11.24
259.773	11.2
260.233	11.17
260.694	11.11
261.154	11.07
261.614	11.02
262.074	10.98
262.534	10.94
262.994	10.9
263.455	10.88
263.915	10.85
264.374	10.82
264.834	10.8
265.294	10.76
265.754	10.74
266.214	10.72
266.673	10.7
267.133	10.68
267.593	10.67
268.052	10.65
268.512	10.64
268.971	10.62
269.431	10.61
269.89	10.59
270.349	10.58
270.809	10.56
271.268	10.55
271.727	10.54
272.186	10.53
272.645	10.52
273.104	10.5
273.563	10.49
274.022	10.48
274.481	10.46
274.94	10.46
275.399	10.43
275.857	10.42
276.316	10.4
276.775	10.39
277.233	10.37
277.692	10.36
278.15	10.35
278.609	10.34
279.067	10.32
279.525	10.31
279.984	10.29
280.442	10.29
280.9	10.28
281.358	10.28
281.816	10.27
282.274	10.27
282.732	10.26
283.19	10.25
283.648	10.25
284.106	10.24
284.564	10.24
285.021	10.23
285.479	10.24
285.937	10.24
286.394	10.23
286.852	10.22
287.309	10.21
287.767	10.2
288.224	10.2
288.682	10.19
289.139	10.18
289.596	10.17
290.053	10.16
290.511	10.15
290.968	10.14
291.425	10.12
291.882	10.11
292.339	10.11
292.796	10.11
293.252	10.1
293.709	10.1
294.166	10.1
294.623	10.11
295.079	10.12
295.536	10.11
295.992	10.12
296.449	10.12
296.905	10.13
297.362	10.12
297.818	10.13
298.274	10.14
298.731	10.15
299.187	10.15
299.643	10.15
300.099	10.15
300.555	10.15
301.011	10.16
301.467	10.16
301.923	10.17
302.379	10.18
302.835	10.18
303.291	10.18
303.746	10.18
304.202	10.19
304.658	10.2
305.113	10.2
305.569	10.21
306.024	10.21
306.479	10.22
306.935	10.22
307.39	10.23
307.845	10.24
308.301	10.25
308.756	10.26
309.211	10.27
309.666	10.29
310.121	10.3
310.576	10.31
311.031	10.32
311.486	10.34
311.94	10.35
312.395	10.35
312.85	10.36
313.305	10.37
313.759	10.38
314.214	10.39
314.668	10.39
315.123	10.4
315.577	10.4
316.032	10.4
316.486	10.4
316.94	10.39
317.394	10.38
317.849	10.38
318.303	10.37
318.757	10.35
319.211	10.33
319.665	10.31
320.119	10.29
320.572	10.27
321.026	10.26
321.48	10.25
321.934	10.25
322.387	10.23
322.841	10.23
323.295	10.23
323.748	10.23
324.202	10.24
324.655	10.23
325.108	10.24
325.562	10.24
326.015	10.25
326.468	10.26
326.921	10.26
327.374	10.26
327.827	10.26
328.28	10.25
328.733	10.25
329.186	10.24
329.639	10.25
330.092	10.25
330.545	10.25
330.997	10.23
331.45	10.23
331.903	10.23
332.355	10.23
332.808	10.24
333.26	10.24
333.713	10.24
334.165	10.26
334.617	10.26
335.069	10.26
335.522	10.27
335.974	10.27
336.426	10.27
336.878	10.28
337.33	10.28
337.782	10.27
338.234	10.27
338.686	10.25
339.137	10.23
339.589	10.21
340.041	10.19
340.493	10.17
340.944	10.15
341.396	10.13
341.847	10.13
342.299	10.09
342.75	10.08
343.201	10.06
343.653	10.05
344.104	10.03
344.555	10.02
345.006	10.02
345.457	10
345.908	9.98
346.359	9.98
346.81	9.95
347.261	9.95
347.712	9.93
348.163	9.92
348.613	9.91
349.064	9.91
349.515	9.91
349.965	9.9
350.416	9.88
350.866	9.88
351.317	9.87
351.767	9.87
352.217	9.87
352.668	9.87
353.118	9.88
353.568	9.87
354.018	9.87
354.468	9.86
354.918	9.86
355.368	9.85
355.818	9.85
356.268	9.84
356.718	9.83
357.168	9.83
357.617	9.81
358.067	9.8
358.517	9.81
358.966	9.81
359.416	9.81
359.865	9.81
360.315	9.81
360.764	9.8
361.213	9.79
361.663	9.79
362.112	9.79
362.561	9.79
363.01	9.78
363.459	9.76
363.908	9.75
364.357	9.74
364.806	9.72
365.255	9.72
365.703	9.72
366.152	9.73
366.601	9.73
367.05	9.72
367.498	9.72
367.947	9.72
368.395	9.72
368.844	9.72
369.292	9.72
369.74	9.72
370.189	9.72
370.637	9.71
371.085	9.71
371.533	9.71
371.981	9.72
372.429	9.73
372.877	9.73
373.325	9.74
373.773	9.74
374.221	9.74
374.669	9.74
375.116	9.75
375.564	9.75
376.012	9.76
376.459	9.77
376.907	9.79
377.354	9.8
377.801	9.82
378.249	9.83
378.696	9.84
379.143	9.87
379.591	9.89
380.038	9.89
380.485	9.9
380.932	9.92
381.379	9.93
381.826	9.93
382.273	9.93
382.72	9.92
383.166	9.93
383.613	9.93
384.06	9.93
384.506	9.93
384.953	9.95
385.4	9.96
385.846	9.98
386.292	9.98
386.739	10
387.185	10.02
387.631	10.04
388.078	10.05
388.524	10.08
388.97	10.09
389.416	10.11
389.862	10.14
390.308	10.16
390.754	10.18
391.2	10.21
391.645	10.22
392.091	10.25
392.537	10.27
392.983	10.29
393.428	10.3
393.874	10.32
394.319	10.34
394.765	10.35
395.21	10.36
395.655	10.37
396.101	10.39
396.546	10.41
396.991	10.43
397.436	10.45
397.881	10.48
398.326	10.51
398.771	10.53
399.216	10.54
399.661	10.57
400.106	10.58
400.551	10.58
400.995	10.58
401.44	10.59
401.885	10.6
402.329	10.6
402.774	10.63
403.218	10.64
403.663	10.65
404.107	10.66
404.551	10.67
404.995	10.67
405.44	10.69
405.884	10.69
406.328	10.72
406.772	10.72
407.216	10.72
407.66	10.71
408.104	10.71
408.547	10.71
408.991	10.72
409.435	10.72
409.879	10.73
410.322	10.73
410.766	10.76
411.209	10.77
411.653	10.79
412.096	10.8
412.54	10.82
412.983	10.83
413.426	10.87
413.869	10.88
414.312	10.92
414.756	10.94
415.199	10.95
415.642	10.94
416.085	10.94
416.527	10.92
416.97	10.91
417.413	10.89
417.856	10.89
418.298	10.86
418.741	10.86
419.184	10.86
419.626	10.86
420.069	10.87
420.511	10.87
420.953	10.88
421.396	10.89
421.838	10.91
422.28	10.93
422.722	10.94
423.164	10.94
423.606	10.95
424.048	10.95
424.49	10.93
424.932	10.91
425.374	10.88
425.816	10.86
426.258	10.84
426.699	10.83
427.141	10.83
427.582	10.84
428.024	10.87
428.465	10.89
428.907	10.89
429.348	10.9
429.789	10.92
430.231	10.98
430.672	11.01
431.113	11.05
431.554	11.08
431.995	11.12
432.436	11.12
432.877	11.13
433.318	11.15
433.759	11.2
434.2	11.24
434.64	11.27
435.081	11.29
435.522	11.31
435.962	11.34
436.403	11.38
436.843	11.38
437.284	11.38
437.724	11.39
438.164	11.37
438.604	11.37
439.045	11.37
439.485	11.39
439.925	11.38
440.365	11.39
440.805	11.39
441.245	11.4
441.685	11.43
442.125	11.46
442.564	11.47
443.004	11.48
443.444	11.49
443.883	11.5
444.323	11.5
444.762	11.53
445.202	11.53
445.641	11.54
446.081	11.54
446.52	11.52
446.959	11.54
447.398	11.56
447.837	11.57
448.276	11.58
448.716	11.58
449.154	11.59
449.593	11.61
450.032	11.61
450.471	11.6
450.91	11.59
451.349	11.61
451.787	11.6
452.226	11.59
452.664	11.58
453.103	11.59
453.541	11.59
453.98	11.59
454.418	11.55
454.856	11.53
455.295	11.52
455.733	11.5
456.171	11.5
456.609	11.49
457.047	11.47
457.485	11.46
457.923	11.45
458.361	11.43
458.798	11.43
459.236	11.44
459.674	11.43
460.111	11.43
460.549	11.44
460.987	11.42
461.424	11.43
461.862	11.45
462.299	11.44
462.736	11.42
463.173	11.41
463.611	11.41
464.048	11.41
464.485	11.41
464.922	11.41
465.359	11.41
465.796	11.4
466.233	11.4
466.67	11.38
467.106	11.38
467.543	11.38
467.98	11.37
468.416	11.36
468.853	11.35
469.29	11.34
469.726	11.33
470.162	11.32
470.599	11.32
471.035	11.28
471.471	11.27
471.907	11.26
472.344	11.27
472.78	11.26
473.216	11.24
473.652	11.23
474.088	11.22
474.523	11.18
474.959	11.17
475.395	11.14
475.831	11.14
476.266	11.13
476.702	11.12
477.138	11.09
477.573	11.09
478.008	11.08
478.444	11.06
478.879	11.05
479.314	11.05
479.75	11.03
480.185	11.03
480.62	11.01
481.055	11
481.49	10.96
481.925	10.95
482.36	10.93
482.795	10.92
483.229	10.91
483.664	10.9
484.099	10.89
484.534	10.89
484.968	10.88
485.403	10.88
485.837	10.88
486.271	10.89
486.706	10.88
487.14	10.88
487.574	10.88
488.009	10.89
488.443	10.88
488.877	10.89
489.311	10.9
489.745	10.9
490.179	10.9
490.613	10.9
491.046	10.91
491.48	10.92
491.914	10.93
492.348	10.94
492.781	10.95
493.215	10.97
493.648	10.99
494.082	10.99
494.515	11
494.948	11.02
495.382	11.03
495.815	11.05
496.248	11.07
496.681	11.08
497.114	11.1
497.547	11.12
497.98	11.13
498.413	11.15
498.846	11.18
499.279	11.2
499.711	11.23
500.144	11.27
500.577	11.3
501.009	11.33
501.442	11.36
501.874	11.4
502.306	11.45
502.739	11.5
503.171	11.56
503.603	11.61
504.036	11.67
504.468	11.72
504.9	11.77
505.332	11.84
505.764	11.91
506.196	11.99
506.627	12.07
507.059	12.15
507.491	12.22
507.923	12.31
508.354	12.4
508.786	12.49
509.217	12.6
509.649	12.72
510.08	12.83
510.512	12.95
510.943	13.07
511.374	13.2
511.805	13.35
512.237	13.48
512.668	13.63
513.099	13.78
513.53	13.94
513.961	14.1
514.391	14.27
514.822	14.45
515.253	14.63
515.684	14.81
516.114	15
516.545	15.18
516.975	15.38
517.406	15.59
517.836	15.79
518.267	16.02
518.697	16.24
519.127	16.44
519.558	16.65
519.988	16.87
520.418	17.11
520.848	17.32
521.278	17.53
521.708	17.9
522.138	18.12
522.567	18.35
522.997	18.56
523.427	18.78
523.857	19
524.286	19.2
524.716	19.42
525.145	19.61
525.575	19.82
526.004	20.01
526.433	20.06
526.863	20.23
527.292	20.4
527.721	20.56
528.15	20.72
528.579	20.86
529.008	21.03
529.437	21.15
529.866	21.28
530.295	21.42
530.724	21.54
531.152	21.66
531.581	21.77
532.01	21.88
532.438	22
532.867	22.09
533.295	22.18
533.723	22.27
534.152	22.35
534.58	22.44
535.008	22.5
535.436	22.58
535.865	22.63
536.293	22.7
536.721	22.76
537.149	22.81
537.576	22.86
538.004	22.92
538.432	22.96
538.86	23
539.287	23.04
539.715	23.07
540.143	23.1
540.57	23.14
540.998	23.16
541.425	23.2
541.852	23.24
542.28	23.28
542.707	23.31
543.134	23.32
543.561	23.37
543.988	23.41
544.415	23.45
544.842	23.47
545.269	23.5
545.696	23.52
546.123	23.54
546.549	23.57
546.976	23.57
547.403	23.61
547.829	23.63
548.256	23.64
548.682	23.65
549.108	23.67
549.535	23.7
549.961	23.69
550.387	23.69
550.813	23.68
551.24	23.67
551.666	23.66
552.092	23.64
552.518	23.63
552.943	23.59
553.369	23.55
553.795	23.51
554.221	23.47
554.646	23.43
555.072	23.37
555.498	23.31
555.923	23.26
556.349	23.19
556.774	23.13
557.199	23.05
557.625	22.97
558.05	22.89
558.475	22.8
558.9	22.73
559.325	22.64
559.75	22.55
560.175	22.46
560.6	22.33
561.025	22.22
561.449	22.1
561.874	21.98
562.299	21.86
562.723	21.73
563.148	21.58
563.572	21.43
563.997	21.28
564.421	21.12
564.846	20.97
565.27	20.84
565.694	20.69
566.118	20.54
566.542	20.4
566.966	20.26
567.39	20.12
567.814	19.99
568.238	19.84
568.662	19.71
569.086	19.57
569.509	19.43
569.933	19.29
570.357	19.15
570.78	19.01
571.204	18.87
571.627	18.74
572.05	18.6
572.474	18.49
572.897	18.39
573.32	18.27
573.743	18.16
574.166	18.05
574.589	17.94
575.012	17.83
575.435	17.74
575.858	17.65
576.281	17.57
576.704	17.47
577.126	17.38
577.549	17.27
577.972	17.19
578.394	17.1
578.817	17.02
579.239	16.93
579.661	16.87
580.084	16.79
580.506	16.71
580.928	16.62
581.35	16.56
581.772	16.47
582.194	16.42
582.616	16.35
583.038	16.28
583.46	16.21
583.882	16.16
584.303	16.1
584.725	16.04
585.147	15.99
585.568	15.94
585.99	15.88
586.411	15.84
586.833	15.8
587.254	15.75
587.675	15.72
588.096	15.67
588.518	15.62
588.939	15.59
589.36	15.55
589.781	15.51
590.202	15.48
590.623	15.44
591.043	15.4
591.464	15.36
591.885	15.31
592.305	15.27
592.726	15.26
593.147	15.23
593.567	15.19
593.987	15.16
594.408	15.13
594.828	15.11
595.248	15.09
595.669	15.05
596.089	15.02
596.509	14.99
596.929	14.96
597.349	14.93
597.769	14.9
598.189	14.85
598.608	14.82
599.028	14.81
599.448	14.77
599.867	14.74
600.287	14.71
600.706	14.69
601.126	14.66
601.545	14.63
601.965	14.6
602.384	14.57
602.803	14.53
603.222	14.5
603.641	14.45
604.061	14.42
604.48	14.37
604.898	14.31
605.317	14.26
605.736	14.22
606.155	14.17
606.574	14.11
606.992	14.06
607.411	14.02
607.829	13.95
608.248	13.89
608.666	13.83
609.085	13.79
609.503	13.75
609.921	13.71
610.339	13.66
610.758	13.61
611.176	13.56
611.594	13.51
612.012	13.47
612.43	13.43
612.847	13.39
613.265	13.34
613.683	13.29
614.101	13.25
614.518	13.2
614.936	13.14
615.353	13.1
615.771	13.07
616.188	13.02
616.606	12.98
617.023	12.95
617.44	12.92
617.857	12.88
618.274	12.85
618.691	12.8
619.108	12.76
619.525	12.73
619.942	12.7
620.359	12.67
620.776	12.65
621.192	12.63
621.609	12.6
622.026	12.56
622.442	12.55
622.859	12.54
623.275	12.52
623.691	12.52
624.108	12.5
624.524	12.49
624.94	12.48
625.356	12.47
625.772	12.47
626.188	12.46
626.604	12.46
627.02	12.45
627.436	12.45
627.852	12.44
628.268	12.44
628.683	12.43
629.099	12.44
629.514	12.44
629.93	12.42
630.345	12.4
630.761	12.38
631.176	12.36
631.591	12.34
632.007	12.31
632.422	12.29
632.837	12.26
633.252	12.23
633.667	12.18
634.082	12.14
634.497	12.1
634.911	12.06
635.326	12.02
635.741	11.98
636.155	11.93
636.57	11.88
636.984	11.83
637.399	11.77
637.813	11.72
638.228	11.66
638.642	11.61
639.056	11.55
639.47	11.52
639.884	11.47
640.298	11.42
640.712	11.37
641.126	11.32
641.54	11.26
641.954	11.22
642.368	11.16
642.781	11.11
643.195	11.07
643.609	11.03
644.022	10.97
644.436	10.93
644.849	10.88
645.262	10.84
645.676	10.8
646.089	10.77
646.502	10.74
646.915	10.72
647.328	10.69
647.741	10.67
648.154	10.64
648.567	10.63
648.98	10.6
649.393	10.6
649.805	10.59
650.218	10.58
650.631	10.57
651.043	10.56
651.456	10.54
651.868	10.52
652.28	10.51
652.693	10.5
653.105	10.49
653.517	10.49
653.929	10.47
654.341	10.45
654.753	10.43
655.165	10.41
655.577	10.39
655.989	10.38
656.401	10.37
656.813	10.35
657.224	10.33
657.636	10.3
658.047	10.28
658.459	10.24
658.87	10.22
659.282	10.2
659.693	10.18
660.104	10.15
660.515	10.13
660.926	10.11
661.338	10.09
661.749	10.06
662.159	10.04
662.57	10.03
662.981	10.02
663.392	10
663.803	10
664.213	9.99
664.624	9.97
665.035	9.96
665.445	9.95
665.855	9.94
666.266	9.94
666.676	9.95
667.086	9.94
667.497	9.94
667.907	9.93
668.317	9.93
668.727	9.93
669.137	9.95
669.547	9.96
669.956	9.96
670.366	9.97
670.776	9.97
671.186	9.96
671.595	9.97
672.005	9.98
672.414	10
672.824	10
673.233	10.02
673.642	10.03
674.052	10.05
674.461	10.06
674.87	10.08
675.279	10.11
675.688	10.14
676.097	10.17
676.506	10.19
676.915	10.21
677.323	10.24
677.732	10.26
678.141	10.28
678.549	10.29
678.958	10.31
679.366	10.34
679.775	10.35
680.183	10.38
680.592	10.4
681	10.44
681.408	10.47
681.816	10.49
682.224	10.53
682.632	10.56
683.04	10.6
683.448	10.64
683.856	10.67
684.264	10.71
684.671	10.75
685.079	10.8
685.487	10.86
685.894	10.94
686.302	11.03
686.709	11.1
687.116	11.21
687.524	11.32
687.931	11.47
688.338	11.63
688.745	11.81
689.152	11.98
689.559	12.19
689.966	12.4
690.373	12.65
690.78	12.91
691.187	13.2
691.593	13.52
692	13.85
692.407	14.17
692.813	14.54
693.22	14.93
693.626	15.35
694.032	15.78
694.439	16.23
694.845	16.69
695.251	17.18
695.657	17.67
696.063	18.17
696.469	18.69
696.875	19.24
697.281	19.78
697.687	20.34
698.093	20.89
698.498	21.46
698.904	22.04
699.31	22.61
699.715	23.18
700.12	23.79
700.526	24.39
700.931	25
701.337	25.6
701.742	26.19
702.147	26.79
702.552	27.42
702.957	28.01
703.362	28.62
703.767	29.21
704.172	29.82
704.577	30.42
704.981	31
705.386	31.59
705.791	32.18
706.195	32.77
706.6	33.36
707.004	33.93
707.408	34.52
707.813	35.11
708.217	35.69
708.621	36.28
709.025	36.85
709.43	37.41
709.834	37.99
710.237	38.55
710.641	39.12
711.045	39.69
711.449	40.25
711.853	40.81
712.256	41.35
712.66	41.89
713.064	42.43
713.467	42.95
713.87	43.51
714.274	44.03
714.677	44.55
715.08	45.06
715.484	45.57
715.887	46.09
716.29	46.58
716.693	47.08
717.096	47.6
717.499	48.07
717.901	48.57
718.304	49.04
718.707	49.51
719.109	49.98
719.512	50.44
719.915	50.87
720.317	51.28
720.719	51.69
721.122	52.11
721.524	52.5
721.926	52.91
722.328	53.31
722.731	53.69
723.133	54.08
723.535	54.45
723.937	54.81
724.338	55.16
724.74	55.53
725.142	55.93
725.544	56.25
725.945	56.6
726.347	56.88
726.748	57.16
727.15	57.44
727.551	57.75
727.952	58.04
728.354	58.31
728.755	58.56
729.156	58.81
729.557	58.98
729.958	59.22
730.359	59.45
730.76	59.71
731.161	59.93
731.562	60.19
731.962	60.36
732.363	60.54
732.763	60.74
733.164	60.94
733.564	61.13
733.965	61.35
734.365	61.51
734.766	61.69
735.166	61.85
735.566	62.02
735.966	62.14
736.366	62.3
736.766	62.44
737.166	62.58
737.566	62.74
737.966	62.88
738.365	62.98
738.765	63.12
739.165	63.24
739.564	63.36
739.964	63.47
740.363	63.57
740.763	63.68
741.162	63.78
741.561	63.87
741.96	63.91
742.36	64
742.759	64.09
743.158	64.17
743.557	64.2
743.955	64.29
744.354	64.34
744.753	64.44
745.152	64.49
745.55	64.58
745.949	64.64
746.348	64.74
746.746	64.8
747.144	64.85
747.543	64.91
747.941	64.99
748.339	64.99
748.737	65.04
749.136	65.05
749.534	65.07
749.932	65.08
750.33	65.11
750.727	65.13
751.125	65.14
751.523	65.15
751.921	65.16
752.318	65.18
752.716	65.23
753.113	65.26
753.511	65.29
753.908	65.35
754.305	65.38
754.703	65.38
755.1	65.41
755.497	65.44
755.894	65.46
756.291	65.49
756.688	65.47
757.085	65.48
757.482	65.5
757.878	65.51
758.275	65.5
758.672	65.53
759.068	65.58
759.465	65.59
759.861	65.62
760.258	65.65
760.654	65.69
761.05	65.73
761.447	65.77
761.843	65.78
762.239	65.82
762.635	65.83
763.031	65.82
763.427	65.77
763.822	65.77
764.218	65.8
764.614	65.81
765.01	65.79
765.405	65.76
765.801	65.71
766.196	65.69
766.592	65.68
766.987	65.68
767.382	65.69
767.778	65.72
768.173	65.73
768.568	65.69
768.963	65.68
769.358	65.69
769.753	65.7
770.148	65.71
770.542	65.73
770.937	65.76
771.332	65.76
771.726	65.74
772.121	65.71
772.515	65.7
772.91	65.71
773.304	65.7
773.699	65.68
774.093	65.7
774.487	65.7
774.881	65.72
775.275	65.71
775.669	65.69
776.063	65.69
776.457	65.7
776.851	65.69
777.245	65.66
777.638	65.66
778.032	65.71
778.425	65.72
778.819	65.72
779.212	65.7
779.606	65.7
779.999	65.74
780.392	65.79
780.786	65.79
781.179	65.83
781.572	65.87
781.965	65.88
782.358	65.87
782.751	65.88
783.143	65.88
783.536	65.88
783.929	65.86
784.322	65.85
784.714	65.85
785.107	65.9
785.499	65.88
785.891	65.88
786.284	65.89
786.676	65.89
787.068	65.89
787.46	65.93
787.852	65.91
788.245	65.93
788.636	65.91
789.028	65.89
789.42	65.85
789.812	65.89
790.204	65.88
790.595	65.89
790.987	65.86
791.378	65.87
791.77	65.86
792.161	65.9
792.553	65.89
792.944	65.92
793.335	65.96
793.726	65.97
794.117	65.92
794.508	65.89
794.899	65.88
795.29	65.9
795.681	65.85
796.072	65.84
796.463	65.82
796.853	65.77
797.244	65.75
797.634	65.68
798.025	65.69
798.415	65.71
798.806	65.7
799.196	65.68
799.586	65.66
799.976	65.69
800.366	65.66
800.756	65.68
801.146	65.71
801.536	65.71
801.926	65.7
802.316	65.69
802.706	65.68
803.095	65.71
803.485	65.73
803.874	65.75
804.264	65.75
804.653	65.75
805.043	65.77
805.432	65.77
805.821	65.77
806.21	65.8
806.599	65.8
806.988	65.78
807.377	65.74
807.766	65.75
808.155	65.7
808.544	65.68
808.933	65.68
809.321	65.61
809.71	65.61
810.098	65.59
810.487	65.54
810.875	65.53
811.264	65.53
811.652	65.52
812.04	65.49
812.428	65.52
812.816	65.5
813.204	65.49
813.592	65.48
813.98	65.48
814.368	65.48
814.756	65.49
815.144	65.46
815.531	65.47
815.919	65.49
816.306	65.48
816.694	65.44
817.081	65.45
817.469	65.44
817.856	65.43
818.243	65.42
818.63	65.39
819.017	65.38
819.404	65.37
819.791	65.36
820.178	65.33
820.565	65.31
820.952	65.29
821.339	65.26
821.725	65.24
822.112	65.25
822.498	65.25
822.885	65.29
823.271	65.3
823.657	65.26
824.044	65.23
824.43	65.23
824.816	65.22
825.202	65.22
825.588	65.22
825.974	65.23
826.36	65.19
826.746	65.12
827.132	65.1
827.517	65.1
827.903	65.14
828.289	65.17
828.674	65.15
829.06	65.17
829.445	65.17
829.83	65.17
830.216	65.15
830.601	65.17
830.986	65.21
831.371	65.17
831.756	65.18
832.141	65.18
832.526	65.16
832.911	65.15
833.295	65.14
833.68	65.15
834.065	65.17
834.449	65.18
834.834	65.14
835.218	65.16
835.603	65.18
835.987	65.17
836.371	65.15
836.755	65.14
837.139	65.13
837.524	65.15
837.908	65.17
838.291	65.18
838.675	65.18
839.059	65.21
839.443	65.19
839.827	65.18
840.21	65.18
840.594	65.21
840.977	65.21
841.361	65.21
841.744	65.18
842.127	65.16
842.511	65.12
842.894	65.12
843.277	65.1
843.66	65.08
844.043	65.08
844.426	65.07
844.809	65.08
845.191	65.08
845.574	65.1
845.957	65.09
846.339	65.09
846.722	65.11
847.104	65.11
847.487	65.11
847.869	65.14
848.252	65.14
848.634	65.13
849.016	65.13
849.398	65.14
849.78	65.15
850.162	65.18
850.544	65.18
850.926	65.19
851.307	65.2
851.689	65.23
852.071	65.22
852.452	65.23
852.834	65.24
853.215	65.23
853.597	65.21
853.978	65.19
854.359	65.18
854.741	65.16
855.122	65.15
855.503	65.13
855.884	65.1
856.265	65.1
856.646	65.07
857.026	65.07
857.407	65.07
857.788	65.08
858.169	65.07
858.549	65.06
858.93	65.05
859.31	65.05
859.69	65.06
860.071	65.08
860.451	65.07
860.831	65.08
861.211	65.05
861.591	65.03
861.971	65.01
862.351	65.03
862.731	65.04
863.111	65.05
863.491	65.05
863.87	65.03
864.25	65.02
864.629	65.02
865.009	65.01
865.388	65.01
865.768	65
866.147	65
866.526	64.98
866.905	64.97
867.284	64.97
867.663	64.96
868.042	64.96
868.421	64.97
868.8	64.98
869.179	64.98
869.558	64.98
869.936	64.99
870.315	64.99
870.693	65
871.072	65.01
871.45	65.03
871.828	65.03
872.207	65.06
872.585	65.03
872.963	65.02
873.341	65.01
873.719	65.02
874.097	65.03
874.475	65.03
874.853	65.03
875.23	65.04
875.608	65.04
875.986	65.09
876.363	65.08
876.741	65.09
877.118	65.08
877.495	65.11
877.873	65.12
878.25	65.16
878.627	65.16
879.004	65.17
879.381	65.19
879.758	65.16
880.135	65.12
880.512	65.11
880.889	65.12
881.265	65.11
881.642	65.1
882.019	65.1
882.395	65.05
882.772	65.07
883.148	65.04
883.524	65
883.901	65.03
884.277	65.02
884.653	65
885.029	64.98
885.405	64.99
885.781	65
886.157	65
886.532	65.04
886.908	65.01
887.284	65.01
887.659	65
888.035	64.97
888.411	65
888.786	65.01
889.161	65.04
889.537	65.06
889.912	65.06
890.287	65.07
890.662	65.04
891.037	65.07
891.412	65.05
891.787	65.05
892.162	65.05
892.536	65.04
892.911	65.03
893.286	65.02
893.66	65.01
894.035	65.01
894.409	64.97
894.784	64.98
895.158	64.96
895.532	64.98
895.906	64.98
896.281	64.97
896.655	64.97
897.029	64.98
897.402	64.96
897.776	64.97
898.15	64.95
898.524	65
898.898	64.99
899.271	65
899.645	65.02
900.018	65.05
900.392	65.08
900.765	65.12
901.138	65.11
901.511	65.14
901.884	65.12
902.258	65.15
902.631	65.14
903.003	65.14
903.376	65.13
903.749	65.1
904.122	65.1
904.495	65.12
904.867	65.07
905.24	65.1
905.612	65.12
905.985	65.12
906.357	65.1
906.729	65.11
907.102	65.14
907.474	65.13
907.846	65.17
908.218	65.14
908.59	65.14
908.962	65.17
909.334	65.17
909.705	65.16
910.077	65.19
910.449	65.21
910.82	65.2
911.192	65.17
911.563	65.21
911.935	65.15
912.306	65.16
912.677	65.18
913.048	65.18
913.419	65.16
913.79	65.18
914.161	65.17
914.532	65.16
914.903	65.17
915.274	65.18
915.645	65.19
916.015	65.24
916.386	65.26
916.756	65.23
917.127	65.23
917.497	65.24
917.868	65.23
918.238	65.23
918.608	65.25
918.978	65.22
919.348	65.25
919.718	65.24
920.088	65.25
920.458	65.23
920.828	65.18
921.198	65.15
921.567	65.16
921.937	65.14
922.306	65.09
922.676	65.08
923.045	65.09
923.415	65.07
923.784	65.04
924.153	65.03
924.522	65.05
924.891	65.08
925.26	65.07
925.629	65.07
925.998	65.07
926.367	65.1
926.736	65.06
927.104	65.12
927.473	65.08
927.842	65.08
928.21	65.09
928.578	65.07
928.947	65.12
929.315	65.09
929.683	65.06
930.051	65.05
930.42	65.05
930.788	65.02
931.156	64.95
931.523	64.98
931.891	65.01
932.259	64.99
932.627	64.98
932.994	64.91
933.362	64.92
933.729	64.93
934.097	64.89
934.464	64.88
934.831	64.89
935.199	64.9
935.566	64.86
935.933	64.76
936.3	64.7
936.667	64.66
937.034	64.66
937.401	64.66
937.767	64.61
938.134	64.57
938.501	64.57
938.867	64.58
939.234	64.55
939.6	64.55
939.967	64.57
940.333	64.54
940.699	64.56
941.065	64.5
941.431	64.49
941.798	64.48
942.163	64.45
942.529	64.43
942.895	64.43
943.261	64.35
943.627	64.31
943.992	64.3
944.358	64.28
944.723	64.24
945.089	64.2
945.454	64.23
945.82	64.25
946.185	64.3
946.55	64.24
946.915	64.21
947.28	64.21
947.645	64.22
948.01	64.22
948.375	64.25
948.74	64.24
949.104	64.34
949.469	64.25
949.834	64.25
950.198	64.22
950.562	64.22
950.927	64.16
951.291	64.12
951.655	64.06
952.02	64.09
952.384	64.01
952.748	63.99
953.112	63.97
953.476	63.98
953.839	63.89
954.203	63.86
954.567	63.84
954.931	63.79
955.294	63.78
955.658	63.87
956.021	63.83
956.385	63.84
956.748	63.81
957.111	63.72
957.474	63.74
957.837	63.73
958.2	63.77
958.563	63.79
958.926	63.84
959.289	63.84
959.652	63.79
960.015	63.77
960.377	63.77
960.74	63.83
961.102	63.88
961.465	63.89
961.827	63.93
962.189	63.93
962.552	63.96
962.914	63.96
963.276	64.03
963.638	64.05
964	64.1
964.362	64.11
964.724	64.04
965.085	64.04
965.447	63.98
965.809	64
966.17	63.98
966.532	63.95
966.893	63.96
967.255	63.95
967.616	63.98
967.977	63.94
968.338	63.94
968.699	64.01
969.061	64
969.421	64.05
969.782	64.05
970.143	64.04
970.504	64.06
970.865	64.05
971.225	64.02
971.586	63.96
971.946	63.93
972.307	63.95
972.667	63.89
973.027	63.94
973.388	63.96
973.748	63.97
974.108	64.07
974.468	64.11
974.828	64.17
975.188	64.21
975.548	64.22
975.907	64.29
976.267	64.27
976.627	64.27
976.986	64.23
977.346	64.2
977.705	64.19
978.064	64.18
978.424	64.16
978.783	64.11
979.142	64.09
979.501	64.06
979.86	64.11
980.219	64.14
980.578	64.22
980.937	64.29
981.296	64.3
981.654	64.27
982.013	64.25
982.371	64.27
982.73	64.27
983.088	64.24
983.447	64.29
983.805	64.18
984.163	64.2
984.521	64.09
984.879	63.95
985.237	63.93
985.595	63.94
985.953	63.98
986.311	63.93
986.669	63.87
987.026	63.86
987.384	63.83
987.741	63.79
988.099	63.76
988.456	63.77
988.814	63.85
989.171	63.79
989.528	63.77
989.885	63.72
990.242	63.63
990.599	63.75
990.956	63.82
991.313	63.8
991.67	63.87
992.027	63.92
992.383	63.98
992.74	64.09
993.096	64.17
993.453	64.23
993.809	64.2
994.165	64.35
994.522	64.38
994.878	64.41
995.234	64.4
995.59	64.42
995.946	64.5
996.302	64.55
996.658	64.54
997.013	64.43
997.369	64.39
997.725	64.45
998.08	64.45
998.436	64.44
998.791	64.43
999.147	64.58
999.502	64.56
999.857	64.47
1000.212	64.36
1000.567	64.33
1000.922	64.4
1001.277	64.41
1001.632	64.33
1001.987	64.24
1002.342	64.15
1002.696	64.16
1003.051	64.14
1003.406	64.37
1003.76	64.34
1004.114	64.38
1004.469	64.36
1004.823	64.66
1005.177	64.67
1005.531	64.76
1005.885	64.75
1006.239	64.72
1006.593	64.78
1006.947	64.75
1007.301	64.62
1007.655	64.67
1008.008	64.75
1008.362	64.73
1008.715	64.61
1009.069	64.78
1009.422	64.75
1009.776	64.77
1010.129	64.77
1010.482	64.65
1010.835	64.73
1011.188	64.69
1011.541	64.71
1011.894	64.74
1012.247	64.82
1012.6	64.87
1012.952	64.71
1013.305	64.9
1013.657	65.06
1014.01	65.15
1014.362	65.14
1014.715	65.16
1015.067	65.22
1015.419	65.34
1015.771	65.11
1016.123	65.16
1016.475	65.12
1016.827	65.18
1017.179	65.04
1017.531	64.98
1017.883	65.06
1018.234	65.1
1018.586	65.09
1018.938	65.07
1019.289	64.82
1019.64	64.95
1019.992	64.65
1020.343	64.5
1020.694	64.61
1021.045	64.58
1021.396	64.51
1021.747	64.47
1022.098	64.92
1022.449	64.89
1022.8	64.88
1023.151	64.92
1023.501	65.04
1023.852	65.35
1024.202	65.29
1024.553	65.15
1024.903	65.18
1025.253	65.11
1025.604	65.17
1025.954	64.64
1026.304	64.75
1026.654	64.71
1027.004	64.76
1027.354	64.58
1027.703	64.09
1028.053	64.13
1028.403	64.24
1028.753	63.94
1029.102	64.15
1029.452	64.05
1029.801	64.17
1030.15	63.92
1030.499	63.76
897.758	353.55
901.051	355.9
904.343	356.7
907.636	361.86
910.928	353.24
914.22	354.67
917.511	351.54
920.803	336.17
924.094	332.53
927.384	326.92
930.675	315.2
933.965	314.8
937.255	299.5
940.544	289.44
943.834	276.98
947.123	275.15
950.411	262.66
953.7	258.48
956.988	250.16
960.276	243.83
963.563	239.65
966.851	233.93
970.138	232.85
973.424	227.4
976.711	228.82
979.997	220.81
983.283	219.51
986.568	215.31
989.853	211.22
993.138	206.72
996.423	200.28
999.708	197.5
1002.992	194.8
1006.275	187.51
1009.559	185.06
1012.842	180.32
1016.125	177.77
1019.408	175.45
1022.69	174.54
1025.972	170.54
1029.254	167.47
1032.536	165.97
1035.817	163.21
1039.098	162.28
1042.379	159.14
1045.659	158.63
1048.939	155.2
1052.219	153.72
1055.498	151.83
1058.778	148.74
1062.057	147.02
1065.335	146.35
1068.614	144.47
1071.892	143.61
1075.17	141.24
1078.447	140.12
1081.724	139.19
1085.001	139.02
1088.278	136.09
1091.554	134.67
1094.83	134.53
1098.106	133.9
1101.382	133.41
1104.657	133.18
1107.932	131.29
1111.206	131.53
1114.481	129.56
1117.755	129.87
1121.029	128.54
1124.302	128.3
1127.575	126.95
1130.848	126.09
1134.121	124.54
1137.393	123.8
1140.665	121.44
1143.937	121.37
1147.208	120.45
1150.48	119.57
1153.75	117.78
1157.021	117.23
1160.291	116.9
1163.561	115.16
1166.831	115.27
1170.101	114.92
1173.37	115.7
1176.639	116.7
1179.907	114.92
1183.176	114.53
1186.444	114.61
1189.711	113.87
1192.979	113.48
1196.246	113.56
1199.513	114.87
1202.78	114.03
1206.046	114
1209.312	111.76
1212.578	111.4
1215.843	112.52
1219.108	112.22
1222.373	113.77
1225.638	114.6
1228.902	114.66
1232.166	115.92
1235.43	115.25
1238.693	116.35
1241.956	117.01
1245.219	118.4
1248.482	119.81
1251.744	119.34
1255.006	119.75
1258.268	117.97
1261.529	117.57
1264.79	117.39
1268.051	115.77
1271.312	115.68
1274.572	114.39
1277.832	113.68
1281.092	112.36
1284.351	110.76
1287.61	111.49
1290.869	110.2
1294.128	109.61
1297.386	108.78
1300.644	108.19
1303.902	108.27
1307.159	107.18
1310.416	107.31
1313.673	106.6
1316.93	107.32
1320.186	107.31
1323.442	106.96
1326.697	107.02
1329.953	107.43
1333.208	107.48
1336.463	108.14
1339.717	107.95
1342.972	108.93
1346.226	109.09
1349.479	109.62
1352.733	109.67
1355.986	110.57
1359.238	110.2
1362.491	109.82
1365.743	109.32
1368.995	109.92
1372.247	109.28
1375.498	108.57
1378.749	107.68
1382	105.5
1385.251	104.77
1388.501	102.59
1391.751	100.25
1395	99.6
1398.25	98.57
1401.499	96.47
1404.748	94.63
1407.996	91.47
1411.244	90.86
1414.492	89.82
1417.74	87.74
1420.987	86.96
1424.234	86.21
1427.481	84.94
1430.728	83.92
1433.974	83.44
1437.22	83.23
1440.465	82.79
1443.711	82.09
1446.956	81.22
1450.201	80.89
1453.445	81.45
1456.689	80.48
1459.933	79.41
1463.177	78.93
1466.42	78.17
1469.663	77.33
1472.906	76.52
1476.148	76.25
1479.391	75.75
1482.633	75.7
1485.874	75.32
1489.115	74.44
1492.356	74.7
1495.597	74.82
1498.838	74.88
1502.078	74.7
1505.318	75
1508.557	75.37
1511.797	75.17
1515.036	75.43
1518.274	75.45
1521.513	75.77
1524.751	75.79
1527.989	75.93
1531.227	76.62
1534.464	76.87
1537.701	76.69
1540.938	76.5
1544.174	76.93
1547.41	77.09
1550.646	77.14
1553.882	77.32
1557.117	77.24
1560.352	77.28
1563.587	77.59
1566.821	77.28
1570.055	76.89
1573.289	77.24
1576.523	77.64
1579.756	76.85
1582.989	77.09
1586.222	77.78
1589.454	76.91
1592.686	77.78
1595.918	77.53
1599.15	77.24
1602.381	77.71
1605.612	77.95
1608.843	78.37
1612.073	78.18
1615.303	78.53
1618.533	78.81
1621.762	78.32
1624.992	79.67
1628.221	78.97
1631.449	79.21
1634.678	79.6
1637.906	79.44
1641.134	79.61
1644.361	79.28
1647.588	79.7
1650.815	79.67
1654.042	79.8
1657.269	80.31
1660.495	80.12
1663.72	79.84
1666.946	80.17
1670.171	79.86
1673.396	80.12
1676.621	80.3
1679.845	80.02
1683.069	80.22
1686.293	80.35
1689.517	80.02
1692.74	79.83
1695.963	79.86
1699.185	80.08
1702.408	80
1705.63	80.26
1708.852	80.05
1712.073	79.92
1715.294	80.15
1718.515	80.46
1721.736	80.41
1724.956	80.8
1728.176	80.74
1731.396	81.04
1734.616	80.6
1737.835	80.97
1741.054	80.29
1744.272	80.41
1747.491	80.57
1750.709	80.98
1753.927	80.05
1757.144	80.1
1760.361	79.61
1763.578	79.55
1766.795	79.09
1770.011	79.95
1773.227	79.34
1776.443	79.85
1779.658	79.57
1782.874	79.69
1786.089	78.96
1789.303	79.44
1792.518	79.2
1795.732	79.48
1798.945	79.69
1802.159	80.32
1805.372	80.02
1808.585	80.71
1811.797	80.6
1815.01	81.4
1818.222	81.45
1821.434	82.26
1824.645	82.17
1827.856	83.32
1831.067	83.24
1834.278	83.57
1837.488	83.43
1840.698	83.55
1843.908	83.33
1847.117	83.84
1850.326	83.54
1853.535	81.85
1856.744	81.77
1859.952	80.91
1863.16	79.65
1866.368	77.98
1869.575	76.96
1872.782	74.77
1875.989	72.88
1879.196	71.92
1882.402	69.32
1885.608	68.66
1888.814	68.47
1892.019	65.9
1895.224	65.07
1898.429	64.28
1901.634	64.27
1904.838	63.2
1908.042	63.32
1911.246	63.12
1914.449	62.76
1917.652	62.84
1920.855	62.63
1924.058	62.09
1927.26	62.84
1930.462	62.08
1933.664	62.72
1936.865	62.64
1940.066	62.37
1943.267	61.71
1946.467	61.72
1949.668	61.92
1952.868	62.86
1956.067	62.76
1959.267	62.91
1962.466	63.22
1965.665	63.56
1968.863	64.24
1972.061	64.65
1975.259	65.16
1978.457	65.94
1981.654	67.15
1984.852	67.67
1988.048	67.8
1991.245	68.19
1994.441	69.09
1997.637	70.01
2000.833	71.88
2004.028	71.94
2007.223	72.28
2010.418	73.44
2013.613	74.85
2016.807	75.7
2020.001	76.16
2023.194	77.84
2026.388	79.95
2029.581	81.26
2032.774	81.64
2035.966	83.01
2039.158	84.02
2042.35	86.02
2045.542	85.63
2048.733	87.51
2051.924	87.84
2055.115	89.69
2058.306	89.45
2061.496	89.79
2064.686	90.86
2067.875	92.71
2071.065	92.42
2074.254	91.94
2077.442	92.98
2080.631	94.48
2083.819	94.76
2087.007	96.35
2090.195	97.62
2093.382	98.65
2096.569	98.98
2099.756	100.43
2102.942	100.38
2106.128	101.67
2109.314	103.9
2112.5	104.1
2115.685	105.95
2118.87	106.4
2122.055	108.47
2125.239	108.79
2128.424	109.1
2131.608	110.41
2134.791	111.82
2137.974	112.27
2141.157	112.94
2144.34	112.95
2147.523	113.43
2150.705	113.52
2153.887	115.32
2157.068	115.07
2160.25	114.27
2163.431	116.32
2166.611	115.93
2169.792	117.55
2172.972	118.59
2176.152	120.74
2179.331	121.78
2182.511	124.82
2185.69	124.98
2188.868	126.29
2192.047	127.09
2195.225	130.77
2198.403	133.01
2201.58	135.53
2204.758	138.01
2207.935	140.82
2211.111	140.96
2214.288	143.03
2217.464	142.82
2220.64	146.25
2223.815	147.12
2226.991	150.94
2230.166	150.91
2233.34	152.05
2236.515	154.26
2239.689	155.05
2242.863	155.58
2246.036	160.12
2249.209	158.64
2252.382	159.98
2255.555	163.22
2258.727	165.08
2261.9	167.32
2265.071	169.08
2268.243	172.43
2271.414	175.38
2274.585	178.47
2277.756	179.52
2280.926	180.87
2284.096	185.67
2287.266	191.02
2290.436	190.76
2293.605	194.89
2296.774	199.6
2299.942	204.02
2303.111	205.81
2306.279	208.5
2309.447	209.7
2312.614	216.4
2315.781	221.21
2318.948	228.81
2322.115	225.47
2325.281	239.9
2328.447	234.85
2331.613	241.88
2334.779	242.02
2337.944	248.07
2341.109	251.59
2344.274	260.39
2347.438	266.94
2350.602	266.5
2353.766	278.06
2356.929	282.85
2360.092	280.64
2363.255	296.81
2366.418	298.88
2369.58	302.4
2372.742	321.9
2375.904	330.27
2379.066	328.28
2382.227	326.79
2385.388	350.44
2388.548	350.53
2391.709	351.34
2394.869	387
2398.029	375.49
2401.188	384.39
2404.347	381.97
2407.506	376.8
2410.665	383.13
2413.823	405.52
2416.981	425.29
2420.139	418.17
2423.296	410.71
2426.453	430
2429.61	423.47
2432.767	436.75
2435.923	432.66
2439.079	475.02
2442.235	485.49
2445.391	486.75
2448.546	478.99
2451.701	461.75
2454.855	460.66
2458.009	487.21
2461.163	508.17
2464.317	512.9
2467.471	531.81
2470.624	535
2473.777	520.85
2476.929	504.57
2480.082	489.7
2483.234	488.58
2486.385	520.88
2489.537	523.87
2492.688	541.67
2495.839	527.34
2498.989	519.25
2502.14	520.32
2505.29	523.07
2508.439	529.61
2511.589	528.98
2514.738	573.86
2517.887	562.19
2521.035	590.22
2524.183	588.93
2527.331	595.61
2530.479	592.18
2533.627	596.98
