Data from N_1_DEC_OH_4n_Splice17_12-29-13-015.txt Node
Date: Sat Mar 07 12:29:13 EST 2020
User: sa697716
Spectrometer: NQ5500242
Trigger mode: 0
Integration Time (sec): 1.450000E-1
Scans to average: 20
Nonlinearity correction enabled: false
Boxcar width: 5
Storing dark spectrum: false
XAxis mode: Wavelengths
Number of Pixels in Spectrum: 512
>>>>>Begin Spectral Data<<<<<
187.83	120.04
188.298	149.17
188.766	114.24
189.233	109.03
189.701	98.69
190.169	126.98
190.636	160.05
191.104	220.36
191.571	317.91
192.039	238.07
192.506	738.29
192.974	-58.68
193.441	72.9
193.908	-34.45
194.375	63.06
194.842	33.91
195.31	62.22
195.777	180.47
196.244	22.04
196.711	18.34
197.177	19.86
197.644	19.02
198.111	18.35
198.578	18.02
199.045	17.74
199.511	17.18
199.978	16.79
200.445	16.81
200.911	17.01
201.378	17.17
201.844	17.14
202.31	16.7
202.777	16.79
203.243	16.72
203.709	16.76
204.176	16.94
204.642	17.08
205.108	17.44
205.574	17.77
206.04	17.36
206.506	17.48
206.972	17.62
207.438	17.58
207.903	17.39
208.369	16.96
208.835	16.64
209.301	16.16
209.766	15.78
210.232	15.28
210.697	14.64
211.163	14.53
211.628	13.8
212.094	13.44
212.559	13.27
213.024	12.95
213.49	12.83
213.955	12.5
214.42	12.32
214.885	12.02
215.35	11.76
215.815	11.32
216.28	10.61
216.745	10.03
217.21	9.52
217.675	9
218.14	8.6
218.604	8.21
219.069	7.91
219.534	7.63
219.998	7.41
220.463	7.18
220.927	6.98
221.392	6.86
221.856	6.74
222.32	6.6
222.785	6.5
223.249	6.39
223.713	6.32
224.177	6.25
224.642	6.17
225.106	6.06
225.57	5.97
226.034	5.91
226.497	5.85
226.961	5.78
227.425	5.71
227.889	5.66
228.353	5.6
228.816	5.54
229.28	5.48
229.744	5.41
230.207	5.36
230.671	5.32
231.134	5.26
231.597	5.21
232.061	5.16
232.524	5.13
232.987	5.09
233.45	5.06
233.914	5.02
234.377	4.97
234.84	4.94
235.303	4.91
235.766	4.88
236.229	4.85
236.691	4.82
237.154	4.79
237.617	4.75
238.08	4.7
238.542	4.65
239.005	4.62
239.468	4.6
239.93	4.57
240.393	4.54
240.855	4.5
241.317	4.48
241.78	4.44
242.242	4.4
242.704	4.38
243.166	4.35
243.629	4.34
244.091	4.3
244.553	4.27
245.015	4.24
245.477	4.21
245.939	4.19
246.4	4.16
246.862	4.14
247.324	4.13
247.786	4.11
248.247	4.09
248.709	4.05
249.17	4.03
249.632	4.01
250.093	4
250.555	3.98
251.016	3.96
251.477	3.94
251.939	3.93
252.4	3.91
252.861	3.9
253.322	3.88
253.783	3.88
254.244	3.87
254.705	3.85
255.166	3.83
255.627	3.82
256.088	3.8
256.549	3.8
257.009	3.78
257.47	3.76
257.931	3.73
258.391	3.71
258.852	3.69
259.312	3.68
259.773	3.67
260.233	3.66
260.694	3.65
261.154	3.63
261.614	3.62
262.074	3.6
262.534	3.59
262.994	3.58
263.455	3.57
263.915	3.57
264.374	3.56
264.834	3.55
265.294	3.54
265.754	3.53
266.214	3.53
266.673	3.52
267.133	3.52
267.593	3.51
268.052	3.5
268.512	3.5
268.971	3.49
269.431	3.48
269.89	3.46
270.349	3.47
270.809	3.45
271.268	3.44
271.727	3.43
272.186	3.42
272.645	3.42
273.104	3.41
273.563	3.41
274.022	3.4
274.481	3.39
274.94	3.39
275.399	3.37
275.857	3.37
276.316	3.36
276.775	3.35
277.233	3.34
277.692	3.34
278.15	3.33
278.609	3.32
279.067	3.31
279.525	3.3
279.984	3.29
280.442	3.28
280.9	3.27
281.358	3.27
281.816	3.27
282.274	3.26
282.732	3.25
283.19	3.23
283.648	3.22
284.106	3.21
284.564	3.2
285.021	3.2
285.479	3.19
285.937	3.18
286.394	3.17
286.852	3.15
287.309	3.15
287.767	3.14
288.224	3.14
288.682	3.13
289.139	3.13
289.596	3.12
290.053	3.11
290.511	3.1
290.968	3.1
291.425	3.09
291.882	3.09
292.339	3.08
292.796	3.07
293.252	3.07
293.709	3.07
294.166	3.07
294.623	3.06
295.079	3.06
295.536	3.06
295.992	3.05
296.449	3.05
296.905	3.04
297.362	3.04
297.818	3.03
298.274	3.03
298.731	3.02
299.187	3.01
299.643	3
300.099	3
300.555	3
301.011	3
301.467	2.99
301.923	2.98
302.379	2.98
302.835	2.98
303.291	2.98
303.746	2.97
304.202	2.97
304.658	2.97
305.113	2.96
305.569	2.95
306.024	2.95
306.479	2.94
306.935	2.94
307.39	2.94
307.845	2.93
308.301	2.93
308.756	2.93
309.211	2.93
309.666	2.93
310.121	2.93
310.576	2.94
311.031	2.93
311.486	2.93
311.94	2.94
312.395	2.93
312.85	2.93
313.305	2.93
313.759	2.93
314.214	2.92
314.668	2.91
315.123	2.91
315.577	2.9
316.032	2.9
316.486	2.9
316.94	2.9
317.394	2.89
317.849	2.9
318.303	2.89
318.757	2.88
319.211	2.88
319.665	2.88
320.119	2.86
320.572	2.86
321.026	2.85
321.48	2.85
321.934	2.84
322.387	2.83
322.841	2.82
323.295	2.82
323.748	2.82
324.202	2.81
324.655	2.81
325.108	2.81
325.562	2.82
326.015	2.82
326.468	2.81
326.921	2.81
327.374	2.81
327.827	2.82
328.28	2.81
328.733	2.81
329.186	2.81
329.639	2.81
330.092	2.81
330.545	2.81
330.997	2.81
331.45	2.81
331.903	2.82
332.355	2.82
332.808	2.81
333.26	2.81
333.713	2.8
334.165	2.8
334.617	2.8
335.069	2.8
335.522	2.8
335.974	2.81
336.426	2.8
336.878	2.8
337.33	2.8
337.782	2.81
338.234	2.81
338.686	2.82
339.137	2.82
339.589	2.82
340.041	2.82
340.493	2.82
340.944	2.8
341.396	2.8
341.847	2.8
342.299	2.79
342.75	2.78
343.201	2.77
343.653	2.77
344.104	2.76
344.555	2.76
345.006	2.75
345.457	2.74
345.908	2.75
346.359	2.75
346.81	2.75
347.261	2.75
347.712	2.76
348.163	2.76
348.613	2.77
349.064	2.77
349.515	2.77
349.965	2.78
350.416	2.78
350.866	2.78
351.317	2.78
351.767	2.78
352.217	2.79
352.668	2.79
353.118	2.79
353.568	2.8
354.018	2.81
354.468	2.82
354.918	2.82
355.368	2.83
355.818	2.83
356.268	2.83
356.718	2.84
357.168	2.84
357.617	2.84
358.067	2.83
358.517	2.84
358.966	2.85
359.416	2.86
359.865	2.86
360.315	2.86
360.764	2.87
361.213	2.88
361.663	2.88
362.112	2.89
362.561	2.89
363.01	2.9
363.459	2.88
363.908	2.88
364.357	2.87
364.806	2.87
365.255	2.87
365.703	2.87
366.152	2.87
366.601	2.88
367.05	2.88
367.498	2.88
367.947	2.89
368.395	2.91
368.844	2.91
369.292	2.92
369.74	2.93
370.189	2.93
370.637	2.93
371.085	2.93
371.533	2.93
371.981	2.94
372.429	2.94
372.877	2.95
373.325	2.95
373.773	2.95
374.221	2.94
374.669	2.95
375.116	2.94
375.564	2.94
376.012	2.95
376.459	2.95
376.907	2.95
377.354	2.96
377.801	2.96
378.249	2.96
378.696	2.96
379.143	2.96
379.591	2.97
380.038	2.98
380.485	2.98
380.932	2.98
381.379	2.98
381.826	2.99
382.273	2.99
382.72	2.99
383.166	3
383.613	3.01
384.06	3.01
384.506	3.01
384.953	3.02
385.4	3.03
385.846	3.04
386.292	3.04
386.739	3.05
387.185	3.05
387.631	3.06
388.078	3.07
388.524	3.07
388.97	3.07
389.416	3.08
389.862	3.08
390.308	3.09
390.754	3.11
391.2	3.12
391.645	3.14
392.091	3.16
392.537	3.17
392.983	3.18
393.428	3.21
393.874	3.22
394.319	3.24
394.765	3.26
395.21	3.27
395.655	3.27
396.101	3.29
396.546	3.31
396.991	3.31
397.436	3.32
397.881	3.34
398.326	3.36
398.771	3.37
399.216	3.38
399.661	3.41
400.106	3.43
400.551	3.44
400.995	3.45
401.44	3.46
401.885	3.48
402.329	3.51
402.774	3.52
403.218	3.55
403.663	3.57
404.107	3.58
404.551	3.59
404.995	3.59
405.44	3.61
405.884	3.62
406.328	3.64
406.772	3.65
407.216	3.66
407.66	3.66
408.104	3.66
408.547	3.67
408.991	3.68
409.435	3.7
409.879	3.72
410.322	3.73
410.766	3.74
411.209	3.75
411.653	3.77
412.096	3.78
412.54	3.79
412.983	3.8
413.426	3.83
413.869	3.84
414.312	3.86
414.756	3.88
415.199	3.89
415.642	3.9
416.085	3.91
416.527	3.91
416.97	3.91
417.413	3.92
417.856	3.94
418.298	3.93
418.741	3.95
419.184	3.96
419.626	3.96
420.069	3.98
420.511	3.99
420.953	4
421.396	4.02
421.838	4.05
422.28	4.06
422.722	4.07
423.164	4.07
423.606	4.07
424.048	4.07
424.49	4.09
424.932	4.08
425.374	4.06
425.816	4.05
426.258	4.05
426.699	4.04
427.141	4.05
427.582	4.04
428.024	4.05
428.465	4.06
428.907	4.06
429.348	4.05
429.789	4.06
430.231	4.09
430.672	4.11
431.113	4.12
431.554	4.13
431.995	4.12
432.436	4.13
432.877	4.13
433.318	4.14
433.759	4.15
434.2	4.18
434.64	4.19
435.081	4.19
435.522	4.19
435.962	4.2
436.403	4.22
436.843	4.25
437.284	4.25
437.724	4.25
438.164	4.26
438.604	4.26
439.045	4.26
439.485	4.27
439.925	4.27
440.365	4.28
440.805	4.28
441.245	4.29
441.685	4.29
442.125	4.32
442.564	4.32
443.004	4.33
443.444	4.33
443.883	4.33
444.323	4.31
444.762	4.32
445.202	4.33
445.641	4.34
446.081	4.34
446.52	4.33
446.959	4.34
447.398	4.36
447.837	4.38
448.276	4.38
448.716	4.39
449.154	4.42
449.593	4.46
450.032	4.47
450.471	4.47
450.91	4.47
451.349	4.5
451.787	4.49
452.226	4.49
452.664	4.5
453.103	4.51
453.541	4.52
453.98	4.53
454.418	4.51
454.856	4.51
455.295	4.51
455.733	4.5
456.171	4.5
456.609	4.49
457.047	4.49
457.485	4.49
457.923	4.49
458.361	4.49
458.798	4.49
459.236	4.49
459.674	4.49
460.111	4.5
460.549	4.51
460.987	4.51
461.424	4.53
461.862	4.53
462.299	4.53
462.736	4.52
463.173	4.52
463.611	4.5
464.048	4.51
464.485	4.52
464.922	4.51
465.359	4.52
465.796	4.52
466.233	4.52
466.67	4.53
467.106	4.55
467.543	4.56
467.98	4.57
468.416	4.58
468.853	4.58
469.29	4.58
469.726	4.59
470.162	4.58
470.599	4.59
471.035	4.59
471.471	4.59
471.907	4.58
472.344	4.57
472.78	4.58
473.216	4.58
473.652	4.58
474.088	4.58
474.523	4.58
474.959	4.59
475.395	4.57
475.831	4.57
476.266	4.57
476.702	4.57
477.138	4.57
477.573	4.58
478.008	4.57
478.444	4.56
478.879	4.57
479.314	4.57
479.75	4.57
480.185	4.57
480.62	4.57
481.055	4.57
481.49	4.57
481.925	4.58
482.36	4.58
482.795	4.59
483.229	4.59
483.664	4.6
484.099	4.6
484.534	4.6
484.968	4.61
485.403	4.62
485.837	4.64
486.271	4.65
486.706	4.66
487.14	4.67
487.574	4.69
488.009	4.71
488.443	4.72
488.877	4.73
489.311	4.76
489.745	4.78
490.179	4.81
490.613	4.84
491.046	4.86
491.48	4.89
491.914	4.92
492.348	4.96
492.781	5
493.215	5.04
493.648	5.08
494.082	5.12
494.515	5.14
494.948	5.18
495.382	5.21
495.815	5.26
496.248	5.32
496.681	5.37
497.114	5.41
497.547	5.45
497.98	5.51
498.413	5.57
498.846	5.63
499.279	5.7
499.711	5.76
500.144	5.85
500.577	5.91
501.009	5.97
501.442	6.05
501.874	6.12
502.306	6.21
502.739	6.29
503.171	6.37
503.603	6.46
504.036	6.55
504.468	6.64
504.9	6.73
505.332	6.82
505.764	6.93
506.196	7.03
506.627	7.14
507.059	7.25
507.491	7.35
507.923	7.48
508.354	7.6
508.786	7.72
509.217	7.85
509.649	7.96
510.08	8.09
510.512	8.22
510.943	8.35
511.374	8.48
511.805	8.6
512.237	8.73
512.668	8.86
513.099	8.99
513.53	9.12
513.961	9.25
514.391	9.4
514.822	9.54
515.253	9.68
515.684	9.82
516.114	9.96
516.545	10.11
516.975	10.26
517.406	10.4
517.836	10.54
518.267	10.69
518.697	10.82
519.127	10.94
519.558	11.07
519.988	11.21
520.418	11.35
520.848	11.47
521.278	11.61
521.708	11.76
522.138	11.88
522.567	12
522.997	12.12
523.427	12.24
523.857	12.36
524.286	12.46
524.716	12.57
525.145	12.67
525.575	12.78
526.004	12.87
526.433	12.93
526.863	13.02
527.292	13.11
527.721	13.19
528.15	13.27
528.579	13.35
529.008	13.43
529.437	13.49
529.866	13.54
530.295	13.61
530.724	13.66
531.152	13.71
531.581	13.78
532.01	13.82
532.438	13.87
532.867	13.91
533.295	13.94
533.723	13.99
534.152	14.02
534.58	14.06
535.008	14.09
535.436	14.12
535.865	14.14
536.293	14.15
536.721	14.17
537.149	14.2
537.576	14.21
538.004	14.24
538.432	14.26
538.86	14.28
539.287	14.3
539.715	14.33
540.143	14.34
540.57	14.37
540.998	14.37
541.425	14.39
541.852	14.4
542.28	14.43
542.707	14.44
543.134	14.45
543.561	14.46
543.988	14.48
544.415	14.49
544.842	14.51
545.269	14.52
545.696	14.53
546.123	14.54
546.549	14.54
546.976	14.55
547.403	14.55
547.829	14.54
548.256	14.56
548.682	14.56
549.108	14.56
549.535	14.57
549.961	14.58
550.387	14.59
550.813	14.59
551.24	14.59
551.666	14.58
552.092	14.58
552.518	14.59
552.943	14.57
553.369	14.57
553.795	14.55
554.221	14.53
554.646	14.53
555.072	14.5
555.498	14.47
555.923	14.45
556.349	14.41
556.774	14.38
557.199	14.34
557.625	14.3
558.05	14.26
558.475	14.22
558.9	14.17
559.325	14.12
559.75	14.09
560.175	14.04
560.6	14
561.025	13.96
561.449	13.91
561.874	13.85
562.299	13.8
562.723	13.75
563.148	13.69
563.572	13.62
563.997	13.57
564.421	13.5
564.846	13.43
565.27	13.36
565.694	13.3
566.118	13.22
566.542	13.16
566.966	13.08
567.39	13.01
567.814	12.93
568.238	12.86
568.662	12.79
569.086	12.72
569.509	12.66
569.933	12.6
570.357	12.55
570.78	12.49
571.204	12.42
571.627	12.36
572.05	12.29
572.474	12.25
572.897	12.19
573.32	12.12
573.743	12.06
574.166	11.99
574.589	11.92
575.012	11.85
575.435	11.79
575.858	11.75
576.281	11.7
576.704	11.66
577.126	11.6
577.549	11.55
577.972	11.5
578.394	11.45
578.817	11.41
579.239	11.38
579.661	11.34
580.084	11.3
580.506	11.26
580.928	11.21
581.35	11.17
581.772	11.12
582.194	11.09
582.616	11.06
583.038	11.02
583.46	10.98
583.882	10.94
584.303	10.89
584.725	10.86
585.147	10.83
585.568	10.79
585.99	10.76
586.411	10.72
586.833	10.68
587.254	10.64
587.675	10.61
588.096	10.59
588.518	10.56
588.939	10.54
589.36	10.5
589.781	10.48
590.202	10.46
590.623	10.44
591.043	10.42
591.464	10.41
591.885	10.38
592.305	10.36
592.726	10.35
593.147	10.31
593.567	10.29
593.987	10.28
594.408	10.26
594.828	10.23
595.248	10.22
595.669	10.19
596.089	10.18
596.509	10.16
596.929	10.14
597.349	10.12
597.769	10.1
598.189	10.08
598.608	10.07
599.028	10.06
599.448	10.04
599.867	10.02
600.287	10
600.706	9.98
601.126	9.96
601.545	9.95
601.965	9.94
602.384	9.92
602.803	9.9
603.222	9.88
603.641	9.86
604.061	9.84
604.48	9.82
604.898	9.78
605.317	9.76
605.736	9.73
606.155	9.7
606.574	9.66
606.992	9.62
607.411	9.59
607.829	9.52
608.248	9.48
608.666	9.43
609.085	9.4
609.503	9.38
609.921	9.34
610.339	9.31
610.758	9.28
611.176	9.24
611.594	9.22
612.012	9.18
612.43	9.16
612.847	9.12
613.265	9.1
613.683	9.07
614.101	9.03
614.518	8.99
614.936	8.95
615.353	8.91
615.771	8.88
616.188	8.86
616.606	8.84
617.023	8.81
617.44	8.79
617.857	8.75
618.274	8.73
618.691	8.69
619.108	8.67
619.525	8.65
619.942	8.63
620.359	8.61
620.776	8.58
621.192	8.55
621.609	8.54
622.026	8.53
622.442	8.52
622.859	8.51
623.275	8.5
623.691	8.5
624.108	8.49
624.524	8.48
624.94	8.48
625.356	8.48
625.772	8.49
626.188	8.47
626.604	8.46
627.02	8.45
627.436	8.45
627.852	8.44
628.268	8.42
628.683	8.41
629.099	8.4
629.514	8.4
629.93	8.38
630.345	8.36
630.761	8.34
631.176	8.33
631.591	8.31
632.007	8.28
632.422	8.26
632.837	8.24
633.252	8.21
633.667	8.17
634.082	8.13
634.497	8.09
634.911	8.04
635.326	7.99
635.741	7.93
636.155	7.88
636.57	7.83
636.984	7.78
637.399	7.72
637.813	7.66
638.228	7.6
638.642	7.53
639.056	7.47
639.47	7.41
639.884	7.35
640.298	7.29
640.712	7.23
641.126	7.17
641.54	7.09
641.954	7.01
642.368	6.95
642.781	6.89
643.195	6.82
643.609	6.76
644.022	6.7
644.436	6.65
644.849	6.59
645.262	6.53
645.676	6.48
646.089	6.43
646.502	6.4
646.915	6.36
647.328	6.33
647.741	6.29
648.154	6.27
648.567	6.25
648.98	6.21
649.393	6.2
649.805	6.17
650.218	6.16
650.631	6.15
651.043	6.13
651.456	6.11
651.868	6.09
652.28	6.08
652.693	6.06
653.105	6.04
653.517	6.02
653.929	6
654.341	5.98
654.753	5.96
655.165	5.93
655.577	5.9
655.989	5.87
656.401	5.83
656.813	5.8
657.224	5.76
657.636	5.72
658.047	5.7
658.459	5.66
658.87	5.62
659.282	5.58
659.693	5.54
660.104	5.5
660.515	5.46
660.926	5.42
661.338	5.37
661.749	5.34
662.159	5.3
662.57	5.26
662.981	5.23
663.392	5.2
663.803	5.17
664.213	5.14
664.624	5.1
665.035	5.07
665.445	5.05
665.855	5.03
666.266	5.02
666.676	5
667.086	4.98
667.497	4.96
667.907	4.95
668.317	4.93
668.727	4.92
669.137	4.93
669.547	4.92
669.956	4.91
670.366	4.91
670.776	4.9
671.186	4.9
671.595	4.9
672.005	4.9
672.414	4.9
672.824	4.91
673.233	4.93
673.642	4.95
674.052	4.97
674.461	4.99
674.87	5
675.279	5.03
675.688	5.06
676.097	5.08
676.506	5.1
676.915	5.12
677.323	5.14
677.732	5.16
678.141	5.19
678.549	5.21
678.958	5.24
679.366	5.29
679.775	5.33
680.183	5.37
680.592	5.43
681	5.49
681.408	5.55
681.816	5.63
682.224	5.7
682.632	5.78
683.04	5.85
683.448	5.94
683.856	6.02
684.264	6.11
684.671	6.21
685.079	6.31
685.487	6.43
685.894	6.57
686.302	6.71
686.709	6.87
687.116	7.03
687.524	7.21
687.931	7.4
688.338	7.61
688.745	7.83
689.152	8.04
689.559	8.28
689.966	8.51
690.373	8.76
690.78	9.01
691.187	9.26
691.593	9.52
692	9.8
692.407	10.06
692.813	10.33
693.22	10.59
693.626	10.87
694.032	11.14
694.439	11.42
694.845	11.68
695.251	11.95
695.657	12.22
696.063	12.48
696.469	12.76
696.875	13.02
697.281	13.27
697.687	13.54
698.093	13.78
698.498	14.02
698.904	14.27
699.31	14.5
699.715	14.74
700.12	14.98
700.526	15.23
700.931	15.45
701.337	15.67
701.742	15.89
702.147	16.1
702.552	16.31
702.957	16.52
703.362	16.73
703.767	16.93
704.172	17.11
704.577	17.28
704.981	17.45
705.386	17.62
705.791	17.79
706.195	17.96
706.6	18.15
707.004	18.3
707.408	18.46
707.813	18.61
708.217	18.78
708.621	18.93
709.025	19.09
709.43	19.22
709.834	19.37
710.237	19.52
710.641	19.67
711.045	19.78
711.449	19.93
711.853	20.08
712.256	20.22
712.66	20.32
713.064	20.44
713.467	20.56
713.87	20.69
714.274	20.8
714.677	20.92
715.08	21.02
715.484	21.15
715.887	21.26
716.29	21.36
716.693	21.46
717.096	21.57
717.499	21.68
717.901	21.79
718.304	21.88
718.707	21.99
719.109	22.09
719.512	22.15
719.915	22.24
720.317	22.3
720.719	22.37
721.122	22.45
721.524	22.53
721.926	22.6
722.328	22.68
722.731	22.74
723.133	22.81
723.535	22.86
723.937	22.95
724.338	23
724.74	23.08
725.142	23.2
725.544	23.25
725.945	23.32
726.347	23.38
726.748	23.42
727.15	23.47
727.551	23.52
727.952	23.57
728.354	23.62
728.755	23.66
729.156	23.71
729.557	23.71
729.958	23.76
730.359	23.78
730.76	23.83
731.161	23.88
731.562	23.93
731.962	23.93
732.363	23.98
732.763	24
733.164	24.03
733.564	24.06
733.965	24.09
734.365	24.13
734.766	24.15
735.166	24.16
735.566	24.17
735.966	24.2
736.366	24.24
736.766	24.26
737.166	24.29
737.566	24.33
737.966	24.34
738.365	24.35
738.765	24.36
739.165	24.38
739.564	24.4
739.964	24.43
740.363	24.43
740.763	24.43
741.162	24.45
741.561	24.44
741.96	24.43
742.36	24.43
742.759	24.45
743.158	24.45
743.557	24.46
743.955	24.47
744.354	24.49
744.753	24.53
745.152	24.55
745.55	24.57
745.949	24.61
746.348	24.63
746.746	24.64
747.144	24.67
747.543	24.68
747.941	24.7
748.339	24.71
748.737	24.69
749.136	24.66
749.534	24.67
749.932	24.64
750.33	24.62
750.727	24.61
751.125	24.61
751.523	24.59
751.921	24.58
752.318	24.56
752.716	24.55
753.113	24.57
753.511	24.58
753.908	24.59
754.305	24.59
754.703	24.6
755.1	24.57
755.497	24.56
755.894	24.53
756.291	24.5
756.688	24.48
757.085	24.45
757.482	24.4
757.878	24.39
758.275	24.34
758.672	24.33
759.068	24.32
759.465	24.3
759.861	24.3
760.258	24.32
760.654	24.34
761.05	24.33
761.447	24.36
761.843	24.37
762.239	24.38
762.635	24.39
763.031	24.4
763.427	24.42
763.822	24.44
764.218	24.47
764.614	24.48
765.01	24.48
765.405	24.49
765.801	24.48
766.196	24.51
766.592	24.52
766.987	24.53
767.382	24.54
767.778	24.55
768.173	24.55
768.568	24.55
768.963	24.55
769.358	24.58
769.753	24.58
770.148	24.58
770.542	24.56
770.937	24.56
771.332	24.58
771.726	24.57
772.121	24.56
772.515	24.58
772.91	24.56
773.304	24.56
773.699	24.54
774.093	24.53
774.487	24.53
774.881	24.54
775.275	24.54
775.669	24.5
776.063	24.49
776.457	24.49
776.851	24.46
777.245	24.44
777.638	24.43
778.032	24.43
778.425	24.44
778.819	24.43
779.212	24.43
779.606	24.43
779.999	24.43
780.392	24.46
780.786	24.45
781.179	24.46
781.572	24.48
781.965	24.48
782.358	24.48
782.751	24.47
783.143	24.47
783.536	24.48
783.929	24.49
784.322	24.5
784.714	24.49
785.107	24.49
785.499	24.48
785.891	24.48
786.284	24.47
786.676	24.46
787.068	24.46
787.46	24.45
787.852	24.44
788.245	24.43
788.636	24.42
789.028	24.4
789.42	24.4
789.812	24.4
790.204	24.41
790.595	24.43
790.987	24.42
791.378	24.42
791.77	24.42
792.161	24.42
792.553	24.42
792.944	24.42
793.335	24.44
793.726	24.43
794.117	24.43
794.508	24.4
794.899	24.38
795.29	24.37
795.681	24.33
796.072	24.33
796.463	24.32
796.853	24.31
797.244	24.31
797.634	24.31
798.025	24.34
798.415	24.32
798.806	24.3
799.196	24.3
799.586	24.32
799.976	24.34
800.366	24.34
800.756	24.33
801.146	24.33
801.536	24.31
801.926	24.28
802.316	24.24
802.706	24.24
803.095	24.24
803.485	24.23
803.874	24.22
804.264	24.19
804.653	24.17
805.043	24.18
805.432	24.14
805.821	24.13
806.21	24.12
806.599	24.12
806.988	24.1
807.377	24.07
807.766	24.07
808.155	24.06
808.544	24.07
808.933	24.07
809.321	24.03
809.71	24.04
810.098	24.03
810.487	24.01
810.875	24
811.264	23.99
811.652	24.02
812.04	24.02
812.428	24.01
812.816	23.99
813.204	23.98
813.592	23.97
813.98	23.97
814.368	23.96
814.756	23.96
815.144	23.95
815.531	23.93
815.919	23.92
816.306	23.91
816.694	23.9
817.081	23.9
817.469	23.9
817.856	23.88
818.243	23.86
818.63	23.84
819.017	23.84
819.404	23.83
819.791	23.82
820.178	23.81
820.565	23.79
820.952	23.78
821.339	23.75
821.725	23.73
822.112	23.77
822.498	23.77
822.885	23.77
823.271	23.77
823.657	23.77
824.044	23.77
824.43	23.77
824.816	23.76
825.202	23.76
825.588	23.76
825.974	23.75
826.36	23.72
826.746	23.69
827.132	23.68
827.517	23.66
827.903	23.67
828.289	23.67
828.674	23.66
829.06	23.66
829.445	23.65
829.83	23.65
830.216	23.65
830.601	23.64
830.986	23.66
831.371	23.66
831.756	23.67
832.141	23.66
832.526	23.66
832.911	23.64
833.295	23.65
833.68	23.66
834.065	23.65
834.449	23.65
834.834	23.64
835.218	23.63
835.603	23.63
835.987	23.61
836.371	23.6
836.755	23.61
837.139	23.6
837.524	23.6
837.908	23.6
838.291	23.6
838.675	23.58
839.059	23.58
839.443	23.58
839.827	23.56
840.21	23.55
840.594	23.56
840.977	23.53
841.361	23.53
841.744	23.49
842.127	23.48
842.511	23.47
842.894	23.48
843.277	23.47
843.66	23.45
844.043	23.46
844.426	23.46
844.809	23.46
845.191	23.47
845.574	23.46
845.957	23.47
846.339	23.47
846.722	23.46
847.104	23.46
847.487	23.47
847.869	23.47
848.252	23.47
848.634	23.46
849.016	23.47
849.398	23.48
849.78	23.49
850.162	23.47
850.544	23.48
850.926	23.47
851.307	23.47
851.689	23.46
852.071	23.45
852.452	23.44
852.834	23.44
853.215	23.42
853.597	23.4
853.978	23.39
854.359	23.39
854.741	23.38
855.122	23.39
855.503	23.38
855.884	23.36
856.265	23.36
856.646	23.36
857.026	23.37
857.407	23.38
857.788	23.39
858.169	23.39
858.549	23.38
858.93	23.38
859.31	23.38
859.69	23.39
860.071	23.41
860.451	23.41
860.831	23.42
861.211	23.41
861.591	23.41
861.971	23.39
862.351	23.39
862.731	23.4
863.111	23.41
863.491	23.41
863.87	23.39
864.25	23.37
864.629	23.38
865.009	23.37
865.388	23.36
865.768	23.36
866.147	23.35
866.526	23.35
866.905	23.36
867.284	23.38
867.663	23.38
868.042	23.38
868.421	23.4
868.8	23.39
869.179	23.41
869.558	23.4
869.936	23.39
870.315	23.39
870.693	23.39
871.072	23.4
871.45	23.37
871.828	23.37
872.207	23.37
872.585	23.35
872.963	23.35
873.341	23.33
873.719	23.34
874.097	23.35
874.475	23.35
874.853	23.35
875.23	23.33
875.608	23.34
875.986	23.35
876.363	23.34
876.741	23.34
877.118	23.34
877.495	23.35
877.873	23.35
878.25	23.36
878.627	23.35
879.004	23.35
879.381	23.36
879.758	23.35
880.135	23.33
880.512	23.34
880.889	23.35
881.265	23.36
881.642	23.36
882.019	23.36
882.395	23.37
882.772	23.37
883.148	23.36
883.524	23.34
883.901	23.34
884.277	23.34
884.653	23.34
885.029	23.32
885.405	23.32
885.781	23.32
886.157	23.32
886.532	23.31
886.908	23.29
887.284	23.29
887.659	23.29
888.035	23.29
888.411	23.28
888.786	23.27
889.161	23.28
889.537	23.26
889.912	23.26
890.287	23.27
890.662	23.26
891.037	23.29
891.412	23.28
891.787	23.28
892.162	23.29
892.536	23.29
892.911	23.29
893.286	23.29
893.66	23.28
894.035	23.28
894.409	23.26
894.784	23.26
895.158	23.25
895.532	23.26
895.906	23.25
896.281	23.24
896.655	23.23
897.029	23.24
897.402	23.23
897.776	23.24
898.15	23.25
898.524	23.26
898.898	23.26
899.271	23.26
899.645	23.27
900.018	23.29
900.392	23.3
900.765	23.3
901.138	23.3
901.511	23.3
901.884	23.28
902.258	23.27
902.631	23.26
903.003	23.28
903.376	23.26
903.749	23.23
904.122	23.22
904.495	23.23
904.867	23.25
905.24	23.25
905.612	23.26
905.985	23.28
906.357	23.28
906.729	23.28
907.102	23.26
907.474	23.3
907.846	23.33
908.218	23.33
908.59	23.34
908.962	23.33
909.334	23.35
909.705	23.35
910.077	23.34
910.449	23.35
910.82	23.35
911.192	23.37
911.563	23.35
911.935	23.34
912.306	23.35
912.677	23.35
913.048	23.37
913.419	23.36
913.79	23.38
914.161	23.4
914.532	23.4
914.903	23.39
915.274	23.39
915.645	23.39
916.015	23.39
916.386	23.37
916.756	23.37
917.127	23.37
917.497	23.36
917.868	23.32
918.238	23.31
918.608	23.32
918.978	23.33
919.348	23.31
919.718	23.32
920.088	23.34
920.458	23.35
920.828	23.34
921.198	23.34
921.567	23.33
921.937	23.35
922.306	23.35
922.676	23.33
923.045	23.34
923.415	23.34
923.784	23.33
924.153	23.33
924.522	23.34
924.891	23.34
925.26	23.35
925.629	23.37
925.998	23.35
926.367	23.36
926.736	23.37
927.104	23.4
927.473	23.4
927.842	23.4
928.21	23.41
928.578	23.39
928.947	23.39
929.315	23.35
929.683	23.34
930.051	23.33
930.42	23.32
930.788	23.32
931.156	23.29
931.523	23.3
931.891	23.3
932.259	23.29
932.627	23.29
932.994	23.25
933.362	23.25
933.729	23.28
934.097	23.31
934.464	23.32
934.831	23.3
935.199	23.28
935.566	23.25
935.933	23.25
936.3	23.23
936.667	23.22
937.034	23.26
937.401	23.31
937.767	23.3
938.134	23.27
938.501	23.27
938.867	23.29
939.234	23.28
939.6	23.28
939.967	23.28
940.333	23.27
940.699	23.29
941.065	23.25
941.431	23.23
941.798	23.21
942.163	23.19
942.529	23.16
942.895	23.1
943.261	23.13
943.627	23.15
943.992	23.14
944.358	23.1
944.723	23.09
945.089	23.09
945.454	23.06
945.82	23.02
946.185	23.02
946.55	23.02
946.915	23.05
947.28	23.04
947.645	23.01
948.01	22.99
948.375	22.99
948.74	22.96
949.104	22.96
949.469	23.02
949.834	22.97
950.198	22.97
950.562	22.98
950.927	22.94
951.291	22.89
951.655	22.87
952.02	22.84
952.384	22.83
952.748	22.83
953.112	22.81
953.476	22.75
953.839	22.78
954.203	22.75
954.567	22.71
954.931	22.68
955.294	22.67
955.658	22.73
956.021	22.71
956.385	22.71
956.748	22.68
957.111	22.63
957.474	22.65
957.837	22.59
958.2	22.58
958.563	22.61
958.926	22.62
959.289	22.62
959.652	22.56
960.015	22.56
960.377	22.58
960.74	22.61
961.102	22.65
961.465	22.65
961.827	22.69
962.189	22.72
962.552	22.69
962.914	22.73
963.276	22.76
963.638	22.78
964	22.82
964.362	22.82
964.724	22.79
965.085	22.77
965.447	22.74
965.809	22.74
966.17	22.76
966.532	22.8
966.893	22.77
967.255	22.76
967.616	22.78
967.977	22.76
968.338	22.73
968.699	22.7
969.061	22.72
969.421	22.74
969.782	22.81
970.143	22.77
970.504	22.77
970.865	22.79
971.225	22.77
971.586	22.73
971.946	22.76
972.307	22.79
972.667	22.83
973.027	22.88
973.388	22.88
973.748	22.84
974.108	22.9
974.468	22.88
974.828	22.92
975.188	22.98
975.548	23.01
975.907	22.98
976.267	22.97
976.627	22.99
976.986	22.94
977.346	22.94
977.705	22.92
978.064	22.92
978.424	22.92
978.783	22.83
979.142	22.75
979.501	22.75
979.86	22.82
980.219	22.81
980.578	22.81
980.937	22.85
981.296	22.81
981.654	22.84
982.013	22.85
982.371	22.85
982.73	22.96
983.088	23.04
983.447	23.07
983.805	23.04
984.163	23.07
984.521	23.08
984.879	23.04
985.237	23.07
985.595	23.09
985.953	23.07
986.311	23.08
986.669	22.99
987.026	22.9
987.384	22.9
987.741	22.81
988.099	22.8
988.456	22.75
988.814	22.76
989.171	22.77
989.528	22.77
989.885	22.8
990.242	22.76
990.599	22.82
990.956	22.89
991.313	22.91
991.67	22.98
992.027	23.03
992.383	23.12
992.74	23.18
993.096	23.23
993.453	23.21
993.809	23.19
994.165	23.26
994.522	23.29
994.878	23.32
995.234	23.29
995.59	23.3
995.946	23.32
996.302	23.27
996.658	23.3
997.013	23.22
997.369	23.25
997.725	23.29
998.08	23.27
998.436	23.27
998.791	23.24
999.147	23.23
999.502	23.25
999.857	23.21
1000.212	23.14
1000.567	23.05
1000.922	23.18
1001.277	23.12
1001.632	23.03
1001.987	23.07
1002.342	22.95
1002.696	22.9
1003.051	22.93
1003.406	23
1003.76	23.05
1004.114	23.11
1004.469	23.16
1004.823	23.17
1005.177	23.12
1005.531	23.13
1005.885	23.09
1006.239	23.15
1006.593	23.33
1006.947	23.36
1007.301	23.15
1007.655	23.07
1008.008	23.06
1008.362	23.06
1008.715	22.95
1009.069	23.11
1009.422	23.09
1009.776	23.02
1010.129	23.05
1010.482	22.94
1010.835	22.86
1011.188	23.05
1011.541	23.09
1011.894	23.19
1012.247	23.12
1012.6	23.15
1012.952	23.13
1013.305	23.16
1013.657	23.2
1014.01	23.15
1014.362	23.14
1014.715	23.26
1015.067	23.14
1015.419	23.12
1015.771	23.09
1016.123	22.98
1016.475	22.91
1016.827	22.93
1017.179	22.96
1017.531	23.08
1017.883	23.13
1018.234	23.13
1018.586	23.17
1018.938	23.24
1019.289	23.19
1019.64	23.14
1019.992	23.32
1020.343	23.43
1020.694	23.38
1021.045	23.41
1021.396	23.35
1021.747	23.39
1022.098	23.62
1022.449	23.59
1022.8	23.75
1023.151	23.91
1023.501	24.01
1023.852	24
1024.202	23.9
1024.553	23.91
1024.903	23.88
1025.253	23.95
1025.604	23.87
1025.954	23.61
1026.304	23.46
1026.654	23.48
1027.004	23.26
1027.354	23.11
1027.703	22.99
1028.053	23.06
1028.403	23
1028.753	22.7
1029.102	22.79
1029.452	22.99
1029.801	23.15
1030.15	23.23
1030.499	22.92
897.758	612.42
901.051	619.32
904.343	617.94
907.636	627.6
910.928	609.73
914.22	611.93
917.511	603.88
920.803	576.8
924.094	572.47
927.384	557.76
930.675	534.84
933.965	534.19
937.255	501.83
940.544	482.28
943.834	459.58
947.123	456.46
950.411	429.31
953.7	422.26
956.988	400.75
960.276	386.93
963.563	379.01
966.851	369.22
970.138	364.52
973.424	353.98
976.711	354.45
979.997	338.87
983.283	336.59
986.568	329.79
989.853	321.12
993.138	315.32
996.423	303.19
999.708	297.39
1002.992	292.39
1006.275	279.25
1009.559	277.23
1012.842	267.08
1016.125	261.73
1019.408	256.66
1022.69	254.11
1025.972	246.53
1029.254	242.04
1032.536	237.86
1035.817	231.87
1039.098	230.1
1042.379	226.62
1045.659	224.08
1048.939	220.03
1052.219	214.57
1055.498	212.49
1058.778	206.36
1062.057	203.59
1065.335	201.44
1068.614	198.66
1071.892	197.25
1075.17	191.28
1078.447	188.54
1081.724	185.55
1085.001	184.47
1088.278	181.48
1091.554	176.99
1094.83	177.56
1098.106	175.74
1101.382	174.57
1104.657	173.95
1107.932	170.99
1111.206	171.38
1114.481	167.29
1117.755	167.6
1121.029	165.75
1124.302	164.39
1127.575	162.25
1130.848	160.81
1134.121	159.74
1137.393	158.09
1140.665	155.6
1143.937	154.8
1147.208	153.31
1150.48	152.64
1153.75	149.95
1157.021	148.64
1160.291	148.69
1163.561	146.34
1166.831	147.28
1170.101	145.77
1173.37	146.11
1176.639	145.96
1179.907	144.79
1183.176	144.04
1186.444	143.61
1189.711	142.91
1192.979	142.88
1196.246	141.88
1199.513	143.06
1202.78	141.53
1206.046	141.16
1209.312	140.9
1212.578	140.9
1215.843	141.29
1219.108	140.76
1222.373	143.98
1225.638	145.36
1228.902	146.11
1232.166	147.55
1235.43	148.07
1238.693	149.25
1241.956	150.57
1245.219	151.22
1248.482	152.16
1251.744	152.47
1255.006	152.78
1258.268	149.37
1261.529	148.44
1264.79	147.77
1268.051	146.2
1271.312	145.66
1274.572	144.17
1277.832	143.24
1281.092	140.75
1284.351	139.72
1287.61	140.03
1290.869	137.43
1294.128	136.74
1297.386	136.38
1300.644	135.79
1303.902	135.54
1307.159	134.74
1310.416	134.66
1313.673	134.09
1316.93	135.5
1320.186	134.46
1323.442	134.69
1326.697	136.89
1329.953	136.67
1333.208	136.95
1336.463	137.6
1339.717	138.42
1342.972	140.06
1346.226	141.01
1349.479	141.49
1352.733	142.28
1355.986	143.61
1359.238	143.41
1362.491	143.1
1365.743	144.47
1368.995	144.69
1372.247	144.92
1375.498	144.22
1378.749	144.35
1382	143.73
1385.251	143.21
1388.501	142.33
1391.751	141.77
1395	141.81
1398.25	141.2
1401.499	138.75
1404.748	138.38
1407.996	136.48
1411.244	136.26
1414.492	134.94
1417.74	132.78
1420.987	131.75
1424.234	131.2
1427.481	129.45
1430.728	128.65
1433.974	128.09
1437.22	127.56
1440.465	127.28
1443.711	125.81
1446.956	124.25
1450.201	123.32
1453.445	122.52
1456.689	121.96
1459.933	119.02
1463.177	118.79
1466.42	116.99
1469.663	115.44
1472.906	115.21
1476.148	111.81
1479.391	111.46
1482.633	111.27
1485.874	109.81
1489.115	108.53
1492.356	106.87
1495.597	107.33
1498.838	105.75
1502.078	105.13
1505.318	104.83
1508.557	104.6
1511.797	104.82
1515.036	103.63
1518.274	103.46
1521.513	102.8
1524.751	102.7
1527.989	102.78
1531.227	102.66
1534.464	102.37
1537.701	102.07
1540.938	101.65
1544.174	100.81
1547.41	100.93
1550.646	100.65
1553.882	100.5
1557.117	99.29
1560.352	98.91
1563.587	99.18
1566.821	98.53
1570.055	97.95
1573.289	97.55
1576.523	97.43
1579.756	96.96
1582.989	96.65
1586.222	96.28
1589.454	95.71
1592.686	96.75
1595.918	96.2
1599.15	95.28
1602.381	96
1605.612	96.11
1608.843	95.79
1612.073	95.82
1615.303	96.45
1618.533	96.4
1621.762	97.11
1624.992	97.21
1628.221	96.71
1631.449	96.52
1634.678	96.53
1637.906	96.59
1641.134	96.25
1644.361	96.46
1647.588	96.81
1650.815	96.34
1654.042	96.53
1657.269	96.22
1660.495	96.25
1663.72	96.36
1666.946	97.02
1670.171	97.47
1673.396	97.18
1676.621	97.67
1679.845	97.76
1683.069	98.04
1686.293	98.38
1689.517	98.4
1692.74	98.73
1695.963	98.76
1699.185	98.93
1702.408	99.2
1705.63	99.67
1708.852	99.96
1712.073	100.06
1715.294	100.06
1718.515	100.16
1721.736	100.37
1724.956	100.65
1728.176	100.73
1731.396	101.46
1734.616	101.5
1737.835	102.01
1741.054	101.12
1744.272	101.29
1747.491	102.23
1750.709	102.3
1753.927	102.2
1757.144	102.36
1760.361	102.33
1763.578	102.4
1766.795	101.94
1770.011	103.08
1773.227	102.62
1776.443	103.57
1779.658	103.59
1782.874	103.49
1786.089	103.23
1789.303	103.76
1792.518	104.35
1795.732	104.71
1798.945	105.81
1802.159	106.26
1805.372	106.07
1808.585	107.3
1811.797	107.55
1815.01	108.48
1818.222	109.19
1821.434	110.46
1824.645	110.23
1827.856	111.89
1831.067	112.34
1834.278	112.89
1837.488	113.51
1840.698	113.76
1843.908	113.46
1847.117	113.77
1850.326	113.82
1853.535	112.98
1856.744	114.87
1859.952	114.8
1863.16	113.53
1866.368	112.79
1869.575	112.48
1872.782	111.3
1875.989	110.69
1879.196	110.22
1882.402	109.58
1885.608	109.37
1888.814	109.51
1892.019	108.3
1895.224	107.97
1898.429	107.85
1901.634	108.34
1904.838	108.68
1908.042	109.52
1911.246	109.72
1914.449	110.25
1917.652	110.26
1920.855	110.37
1924.058	110.2
1927.26	109.94
1930.462	110.06
1933.664	110.55
1936.865	110.22
1940.066	109.37
1943.267	108.85
1946.467	108.73
1949.668	109.17
1952.868	110.43
1956.067	110.53
1959.267	110.58
1962.466	111.11
1965.665	110.97
1968.863	111.84
1972.061	112.73
1975.259	114.04
1978.457	114.98
1981.654	115.74
1984.852	115.89
1988.048	115.85
1991.245	116.79
1994.441	117.85
1997.637	118.94
2000.833	121.74
2004.028	122.23
2007.223	123.62
2010.418	124.31
2013.613	126.45
2016.807	128.77
2020.001	130.72
2023.194	132.41
2026.388	135.96
2029.581	138.57
2032.774	139.65
2035.966	141.48
2039.158	142.54
2042.35	145.63
2045.542	147.19
2048.733	147.73
2051.924	150.12
2055.115	151.89
2058.306	152.59
2061.496	152.55
2064.686	153.08
2067.875	156.17
2071.065	156.28
2074.254	156.41
2077.442	157.49
2080.631	157.3
2083.819	160.41
2087.007	161.26
2090.195	162.5
2093.382	164.47
2096.569	164.32
2099.756	167.59
2102.942	167.65
2106.128	169.05
2109.314	172.4
2112.5	172.32
2115.685	176.03
2118.87	176.43
2122.055	178.25
2125.239	180.83
2128.424	182.84
2131.608	183.23
2134.791	186.6
2137.974	186.89
2141.157	187.79
2144.34	188.26
2147.523	190.34
2150.705	189.72
2153.887	192.03
2157.068	192.98
2160.25	190.55
2163.431	191.82
2166.611	194.63
2169.792	196.91
2172.972	199.86
2176.152	201.39
2179.331	203.99
2182.511	206.73
2185.69	207.81
2188.868	211.24
2192.047	211.31
2195.225	217.84
2198.403	221.6
2201.58	226.5
2204.758	230.14
2207.935	233.5
2211.111	239.14
2214.288	241.29
2217.464	242.53
2220.64	248.51
2223.815	251.64
2226.991	262.91
2230.166	262.29
2233.34	265.77
2236.515	270.1
2239.689	269.86
2242.863	272.93
2246.036	278.8
2249.209	278.2
2252.382	282.77
2255.555	290.14
2258.727	291.41
2261.9	292.6
2265.071	296.54
2268.243	301.65
2271.414	304.39
2274.585	310.39
2277.756	313.78
2280.926	316.85
2284.096	325.05
2287.266	331.92
2290.436	333
2293.605	339.8
2296.774	347.45
2299.942	358.49
2303.111	361.5
2306.279	369.83
2309.447	374.2
2312.614	385.16
2315.781	394.2
2318.948	409.51
2322.115	404.04
2325.281	430.35
2328.447	420.79
2331.613	436.28
2334.779	430.88
2337.944	450.4
2341.109	452.06
2344.274	468.6
2347.438	479.18
2350.602	480.28
2353.766	493.97
2356.929	502.67
2360.092	498.11
2363.255	535.02
2366.418	538.61
2369.58	547.83
2372.742	579.07
2375.904	597.6
2379.066	591.92
2382.227	585.28
2385.388	628.55
2388.548	631.73
2391.709	637.67
2394.869	708.2
2398.029	676.98
2401.188	695.82
2404.347	691.21
2407.506	683.08
2410.665	693.96
2413.823	740.03
2416.981	780.55
2420.139	763.48
2423.296	753.46
2426.453	786.17
2429.61	753.19
2432.767	786.62
2435.923	777.56
2439.079	862.31
2442.235	874.22
2445.391	868.49
2448.546	856.47
2451.701	833.43
2454.855	833.26
2458.009	882.17
2461.163	920.13
2464.317	955.55
2467.471	984.16
2470.624	980.33
2473.777	945.44
2476.929	917.39
2480.082	895.22
2483.234	886.26
2486.385	936.69
2489.537	938.62
2492.688	975.72
2495.839	944.02
2498.989	923.5
2502.14	923.67
2505.29	931.92
2508.439	943.92
2511.589	942.94
2514.738	1034.25
2517.887	1013.27
2521.035	1062.17
2524.183	1067.86
2527.331	1075.71
2530.479	1074.1
2533.627	1081
