Data from N_1_DIV_PA_2n_Splice17_12-34-26-932.txt Node
Date: Sat Mar 07 12:34:26 EST 2020
User: sa697716
Spectrometer: NQ5500242
Trigger mode: 0
Integration Time (sec): 1.450000E-1
Scans to average: 20
Nonlinearity correction enabled: false
Boxcar width: 5
Storing dark spectrum: false
XAxis mode: Wavelengths
Number of Pixels in Spectrum: 512
>>>>>Begin Spectral Data<<<<<
187.83	132.33
188.298	128.28
188.766	95.51
189.233	77.51
189.701	76.96
190.169	85.08
190.636	48.55
191.104	99.11
191.571	73.44
192.039	199.79
192.506	-94.46
192.974	140.85
193.441	106.83
193.908	-25.41
194.375	11.33
194.842	-36.93
195.31	-47.51
195.777	-326.6
196.244	21.54
196.711	29.97
197.177	31.4
197.644	31.07
198.111	30.53
198.578	30.65
199.045	30.99
199.511	30.25
199.978	30.49
200.445	30.72
200.911	30.54
201.378	30.61
201.844	30.08
202.31	30.05
202.777	29.93
203.243	30.16
203.709	30.16
204.176	29.91
204.642	30.17
205.108	30.16
205.574	30.06
206.04	29.96
206.506	29.65
206.972	30.12
207.438	29.82
207.903	29.53
208.369	28.97
208.835	28.56
209.301	28.33
209.766	27.58
210.232	27.05
210.697	26.37
211.163	26.12
211.628	25.83
212.094	25.17
212.559	25.07
213.024	24.74
213.49	24.49
213.955	24.03
214.42	23.8
214.885	23.54
215.35	23.07
215.815	22.48
216.28	21.31
216.745	20.32
217.21	19.35
217.675	18.37
218.14	17.68
218.604	17.06
219.069	16.55
219.534	16.07
219.998	15.74
220.463	15.4
220.927	15.08
221.392	14.9
221.856	14.68
222.32	14.54
222.785	14.38
223.249	14.2
223.713	14.06
224.177	13.94
224.642	13.78
225.106	13.59
225.57	13.41
226.034	13.29
226.497	13.13
226.961	12.98
227.425	12.85
227.889	12.73
228.353	12.6
228.816	12.44
229.28	12.3
229.744	12.18
230.207	12.05
230.671	11.93
231.134	11.8
231.597	11.71
232.061	11.6
232.524	11.48
232.987	11.35
233.45	11.24
233.914	11.12
234.377	11.01
234.84	10.89
235.303	10.8
235.766	10.72
236.229	10.62
236.691	10.51
237.154	10.42
237.617	10.33
238.08	10.24
238.542	10.15
239.005	10.08
239.468	9.99
239.93	9.91
240.393	9.82
240.855	9.72
241.317	9.64
241.78	9.54
242.242	9.45
242.704	9.38
243.166	9.3
243.629	9.23
244.091	9.14
244.553	9.07
245.015	8.99
245.477	8.92
245.939	8.85
246.4	8.79
246.862	8.74
247.324	8.68
247.786	8.62
248.247	8.55
248.709	8.5
249.17	8.43
249.632	8.38
250.093	8.34
250.555	8.3
251.016	8.24
251.477	8.18
251.939	8.13
252.4	8.08
252.861	8.04
253.322	8
253.783	7.96
254.244	7.93
254.705	7.87
255.166	7.82
255.627	7.77
256.088	7.74
256.549	7.7
257.009	7.66
257.47	7.62
257.931	7.58
258.391	7.54
258.852	7.49
259.312	7.45
259.773	7.41
260.233	7.38
260.694	7.35
261.154	7.31
261.614	7.28
262.074	7.25
262.534	7.22
262.994	7.19
263.455	7.16
263.915	7.14
264.374	7.11
264.834	7.1
265.294	7.07
265.754	7.05
266.214	7.04
266.673	7.01
267.133	7
267.593	6.98
268.052	6.96
268.512	6.95
268.971	6.94
269.431	6.92
269.89	6.9
270.349	6.89
270.809	6.86
271.268	6.84
271.727	6.82
272.186	6.8
272.645	6.79
273.104	6.77
273.563	6.75
274.022	6.73
274.481	6.71
274.94	6.7
275.399	6.67
275.857	6.66
276.316	6.64
276.775	6.61
277.233	6.59
277.692	6.57
278.15	6.55
278.609	6.53
279.067	6.5
279.525	6.49
279.984	6.46
280.442	6.44
280.9	6.42
281.358	6.4
281.816	6.38
282.274	6.36
282.732	6.33
283.19	6.3
283.648	6.27
284.106	6.24
284.564	6.21
285.021	6.2
285.479	6.17
285.937	6.15
286.394	6.13
286.852	6.1
287.309	6.08
287.767	6.05
288.224	6.03
288.682	6.02
289.139	6
289.596	5.97
290.053	5.95
290.511	5.93
290.968	5.91
291.425	5.88
291.882	5.87
292.339	5.85
292.796	5.83
293.252	5.82
293.709	5.8
294.166	5.79
294.623	5.77
295.079	5.75
295.536	5.73
295.992	5.71
296.449	5.7
296.905	5.68
297.362	5.66
297.818	5.64
298.274	5.63
298.731	5.61
299.187	5.59
299.643	5.57
300.099	5.57
300.555	5.55
301.011	5.53
301.467	5.52
301.923	5.5
302.379	5.49
302.835	5.47
303.291	5.45
303.746	5.43
304.202	5.42
304.658	5.41
305.113	5.39
305.569	5.38
306.024	5.36
306.479	5.34
306.935	5.32
307.39	5.31
307.845	5.31
308.301	5.29
308.756	5.28
309.211	5.26
309.666	5.26
310.121	5.25
310.576	5.23
311.031	5.22
311.486	5.22
311.94	5.22
312.395	5.21
312.85	5.19
313.305	5.19
313.759	5.18
314.214	5.16
314.668	5.14
315.123	5.14
315.577	5.12
316.032	5.11
316.486	5.09
316.94	5.07
317.394	5.05
317.849	5.04
318.303	5.01
318.757	4.99
319.211	4.99
319.665	4.97
320.119	4.94
320.572	4.93
321.026	4.92
321.48	4.9
321.934	4.88
322.387	4.86
322.841	4.85
323.295	4.84
323.748	4.84
324.202	4.83
324.655	4.82
325.108	4.82
325.562	4.81
326.015	4.8
326.468	4.8
326.921	4.79
327.374	4.79
327.827	4.78
328.28	4.77
328.733	4.76
329.186	4.74
329.639	4.74
330.092	4.73
330.545	4.72
330.997	4.71
331.45	4.71
331.903	4.7
332.355	4.7
332.808	4.69
333.26	4.68
333.713	4.67
334.165	4.66
334.617	4.65
335.069	4.65
335.522	4.64
335.974	4.63
336.426	4.61
336.878	4.61
337.33	4.6
337.782	4.6
338.234	4.59
338.686	4.58
339.137	4.57
339.589	4.56
340.041	4.56
340.493	4.55
340.944	4.53
341.396	4.52
341.847	4.5
342.299	4.48
342.75	4.46
343.201	4.44
343.653	4.43
344.104	4.41
344.555	4.4
345.006	4.38
345.457	4.37
345.908	4.36
346.359	4.35
346.81	4.33
347.261	4.33
347.712	4.32
348.163	4.31
348.613	4.3
349.064	4.3
349.515	4.3
349.965	4.28
350.416	4.28
350.866	4.27
351.317	4.25
351.767	4.25
352.217	4.24
352.668	4.24
353.118	4.23
353.568	4.22
354.018	4.21
354.468	4.21
354.918	4.21
355.368	4.2
355.818	4.2
356.268	4.2
356.718	4.21
357.168	4.21
357.617	4.19
358.067	4.18
358.517	4.19
358.966	4.19
359.416	4.18
359.865	4.17
360.315	4.17
360.764	4.17
361.213	4.16
361.663	4.14
362.112	4.14
362.561	4.15
363.01	4.14
363.459	4.12
363.908	4.12
364.357	4.12
364.806	4.11
365.255	4.1
365.703	4.1
366.152	4.1
366.601	4.1
367.05	4.1
367.498	4.09
367.947	4.1
368.395	4.1
368.844	4.1
369.292	4.1
369.74	4.1
370.189	4.11
370.637	4.1
371.085	4.11
371.533	4.1
371.981	4.1
372.429	4.11
372.877	4.1
373.325	4.1
373.773	4.1
374.221	4.1
374.669	4.1
375.116	4.09
375.564	4.09
376.012	4.09
376.459	4.09
376.907	4.09
377.354	4.1
377.801	4.1
378.249	4.11
378.696	4.12
379.143	4.12
379.591	4.13
380.038	4.14
380.485	4.15
380.932	4.16
381.379	4.18
381.826	4.19
382.273	4.2
382.72	4.2
383.166	4.22
383.613	4.24
384.06	4.26
384.506	4.27
384.953	4.29
385.4	4.31
385.846	4.32
386.292	4.34
386.739	4.36
387.185	4.38
387.631	4.41
388.078	4.43
388.524	4.45
388.97	4.47
389.416	4.49
389.862	4.5
390.308	4.53
390.754	4.56
391.2	4.59
391.645	4.62
392.091	4.65
392.537	4.67
392.983	4.69
393.428	4.72
393.874	4.74
394.319	4.77
394.765	4.79
395.21	4.8
395.655	4.82
396.101	4.84
396.546	4.85
396.991	4.87
397.436	4.89
397.881	4.91
398.326	4.94
398.771	4.96
399.216	4.96
399.661	5
400.106	5.02
400.551	5.02
400.995	5.02
401.44	5.04
401.885	5.04
402.329	5.06
402.774	5.06
403.218	5.07
403.663	5.08
404.107	5.09
404.551	5.07
404.995	5.07
405.44	5.07
405.884	5.08
406.328	5.08
406.772	5.08
407.216	5.08
407.66	5.07
408.104	5.06
408.547	5.05
408.991	5.05
409.435	5.05
409.879	5.05
410.322	5.06
410.766	5.06
411.209	5.06
411.653	5.06
412.096	5.06
412.54	5.06
412.983	5.07
413.426	5.08
413.869	5.09
414.312	5.1
414.756	5.11
415.199	5.1
415.642	5.11
416.085	5.11
416.527	5.1
416.97	5.08
417.413	5.07
417.856	5.06
418.298	5.05
418.741	5.03
419.184	5.02
419.626	5
420.069	4.99
420.511	4.99
420.953	4.98
421.396	4.98
421.838	4.98
422.28	4.99
422.722	5
423.164	4.98
423.606	4.98
424.048	4.98
424.49	4.97
424.932	4.96
425.374	4.95
425.816	4.92
426.258	4.91
426.699	4.89
427.141	4.87
427.582	4.86
428.024	4.86
428.465	4.86
428.907	4.84
429.348	4.83
429.789	4.82
430.231	4.83
430.672	4.84
431.113	4.85
431.554	4.86
431.995	4.88
432.436	4.87
432.877	4.88
433.318	4.88
433.759	4.91
434.2	4.93
434.64	4.93
435.081	4.93
435.522	4.94
435.962	4.94
436.403	4.95
436.843	4.95
437.284	4.96
437.724	4.95
438.164	4.95
438.604	4.95
439.045	4.96
439.485	4.98
439.925	4.98
440.365	4.99
440.805	4.99
441.245	5
441.685	5.03
442.125	5.04
442.564	5.07
443.004	5.08
443.444	5.09
443.883	5.09
444.323	5.09
444.762	5.1
445.202	5.11
445.641	5.13
446.081	5.16
446.52	5.16
446.959	5.19
447.398	5.22
447.837	5.23
448.276	5.24
448.716	5.28
449.154	5.32
449.593	5.35
450.032	5.37
450.471	5.37
450.91	5.36
451.349	5.38
451.787	5.38
452.226	5.38
452.664	5.39
453.103	5.4
453.541	5.4
453.98	5.41
454.418	5.4
454.856	5.41
455.295	5.41
455.733	5.41
456.171	5.41
456.609	5.4
457.047	5.38
457.485	5.37
457.923	5.37
458.361	5.37
458.798	5.36
459.236	5.35
459.674	5.34
460.111	5.35
460.549	5.36
460.987	5.36
461.424	5.37
461.862	5.4
462.299	5.4
462.736	5.39
463.173	5.4
463.611	5.4
464.048	5.41
464.485	5.4
464.922	5.4
465.359	5.4
465.796	5.39
466.233	5.39
466.67	5.39
467.106	5.39
467.543	5.4
467.98	5.39
468.416	5.4
468.853	5.41
469.29	5.41
469.726	5.41
470.162	5.41
470.599	5.41
471.035	5.41
471.471	5.4
471.907	5.4
472.344	5.4
472.78	5.4
473.216	5.39
473.652	5.4
474.088	5.39
474.523	5.38
474.959	5.38
475.395	5.37
475.831	5.38
476.266	5.37
476.702	5.37
477.138	5.37
477.573	5.37
478.008	5.37
478.444	5.37
478.879	5.36
479.314	5.36
479.75	5.36
480.185	5.35
480.62	5.35
481.055	5.34
481.49	5.33
481.925	5.31
482.36	5.31
482.795	5.31
483.229	5.31
483.664	5.32
484.099	5.32
484.534	5.33
484.968	5.34
485.403	5.35
485.837	5.36
486.271	5.39
486.706	5.41
487.14	5.44
487.574	5.46
488.009	5.48
488.443	5.5
488.877	5.53
489.311	5.56
489.745	5.59
490.179	5.63
490.613	5.67
491.046	5.7
491.48	5.74
491.914	5.78
492.348	5.84
492.781	5.9
493.215	5.95
493.648	6.01
494.082	6.08
494.515	6.14
494.948	6.22
495.382	6.28
495.815	6.37
496.248	6.45
496.681	6.55
497.114	6.64
497.547	6.74
497.98	6.84
498.413	6.94
498.846	7.06
499.279	7.16
499.711	7.29
500.144	7.42
500.577	7.55
501.009	7.68
501.442	7.81
501.874	7.95
502.306	8.1
502.739	8.27
503.171	8.43
503.603	8.6
504.036	8.79
504.468	8.96
504.9	9.14
505.332	9.33
505.764	9.54
506.196	9.74
506.627	9.96
507.059	10.19
507.491	10.41
507.923	10.64
508.354	10.88
508.786	11.11
509.217	11.37
509.649	11.62
510.08	11.88
510.512	12.14
510.943	12.41
511.374	12.68
511.805	12.95
512.237	13.21
512.668	13.5
513.099	13.79
513.53	14.07
513.961	14.37
514.391	14.67
514.822	14.97
515.253	15.26
515.684	15.56
516.114	15.86
516.545	16.16
516.975	16.48
517.406	16.78
517.836	17.07
518.267	17.37
518.697	17.66
519.127	17.94
519.558	18.22
519.988	18.51
520.418	18.78
520.848	19.06
521.278	19.32
521.708	19.6
522.138	19.86
522.567	20.11
522.997	20.36
523.427	20.6
523.857	20.84
524.286	21.07
524.716	21.28
525.145	21.51
525.575	21.71
526.004	21.91
526.433	22.08
526.863	22.26
527.292	22.44
527.721	22.61
528.15	22.77
528.579	22.92
529.008	23.07
529.437	23.2
529.866	23.31
530.295	23.44
530.724	23.57
531.152	23.67
531.581	23.78
532.01	23.88
532.438	23.98
532.867	24.06
533.295	24.14
533.723	24.23
534.152	24.32
534.58	24.39
535.008	24.45
535.436	24.52
535.865	24.59
536.293	24.64
536.721	24.7
537.149	24.76
537.576	24.8
538.004	24.85
538.432	24.89
538.86	24.94
539.287	24.98
539.715	25.04
540.143	25.06
540.57	25.09
540.998	25.13
541.425	25.17
541.852	25.2
542.28	25.26
542.707	25.3
543.134	25.33
543.561	25.36
543.988	25.4
544.415	25.4
544.842	25.41
545.269	25.45
545.696	25.47
546.123	25.49
546.549	25.51
546.976	25.52
547.403	25.52
547.829	25.52
548.256	25.54
548.682	25.54
549.108	25.57
549.535	25.59
549.961	25.59
550.387	25.58
550.813	25.58
551.24	25.57
551.666	25.57
552.092	25.55
552.518	25.56
552.943	25.55
553.369	25.53
553.795	25.51
554.221	25.47
554.646	25.44
555.072	25.39
555.498	25.33
555.923	25.28
556.349	25.21
556.774	25.17
557.199	25.1
557.625	25.03
558.05	24.95
558.475	24.87
558.9	24.8
559.325	24.71
559.75	24.63
560.175	24.55
560.6	24.47
561.025	24.38
561.449	24.27
561.874	24.15
562.299	24.03
562.723	23.92
563.148	23.79
563.572	23.65
563.997	23.54
564.421	23.39
564.846	23.26
565.27	23.12
565.694	22.99
566.118	22.86
566.542	22.74
566.966	22.59
567.39	22.45
567.814	22.31
568.238	22.17
568.662	22.03
569.086	21.9
569.509	21.77
569.933	21.64
570.357	21.49
570.78	21.33
571.204	21.18
571.627	21.06
572.05	20.92
572.474	20.8
572.897	20.66
573.32	20.53
573.743	20.39
574.166	20.25
574.589	20.12
575.012	20
575.435	19.9
575.858	19.8
576.281	19.67
576.704	19.58
577.126	19.45
577.549	19.36
577.972	19.25
578.394	19.14
578.817	19.06
579.239	18.96
579.661	18.86
580.084	18.76
580.506	18.67
580.928	18.59
581.35	18.49
581.772	18.4
582.194	18.33
582.616	18.25
583.038	18.17
583.46	18.1
583.882	18.04
584.303	17.96
584.725	17.88
585.147	17.82
585.568	17.76
585.99	17.7
586.411	17.64
586.833	17.56
587.254	17.5
587.675	17.47
588.096	17.4
588.518	17.35
588.939	17.31
589.36	17.27
589.781	17.21
590.202	17.18
590.623	17.14
591.043	17.11
591.464	17.08
591.885	17.04
592.305	16.99
592.726	16.96
593.147	16.92
593.567	16.88
593.987	16.85
594.408	16.81
594.828	16.78
595.248	16.74
595.669	16.71
596.089	16.68
596.509	16.65
596.929	16.62
597.349	16.58
597.769	16.55
598.189	16.52
598.608	16.49
599.028	16.46
599.448	16.41
599.867	16.37
600.287	16.32
600.706	16.27
601.126	16.21
601.545	16.15
601.965	16.1
602.384	16.05
602.803	15.99
603.222	15.92
603.641	15.84
604.061	15.78
604.48	15.72
604.898	15.64
605.317	15.58
605.736	15.52
606.155	15.45
606.574	15.37
606.992	15.28
607.411	15.21
607.829	15.1
608.248	15.02
608.666	14.93
609.085	14.85
609.503	14.78
609.921	14.69
610.339	14.59
610.758	14.49
611.176	14.4
611.594	14.31
612.012	14.22
612.43	14.16
612.847	14.09
613.265	13.99
613.683	13.9
614.101	13.82
614.518	13.74
614.936	13.67
615.353	13.59
615.771	13.53
616.188	13.46
616.606	13.4
617.023	13.33
617.44	13.27
617.857	13.23
618.274	13.17
618.691	13.09
619.108	13.05
619.525	13
619.942	12.97
620.359	12.92
620.776	12.89
621.192	12.85
621.609	12.82
622.026	12.78
622.442	12.75
622.859	12.74
623.275	12.73
623.691	12.71
624.108	12.69
624.524	12.66
624.94	12.66
625.356	12.65
625.772	12.64
626.188	12.63
626.604	12.62
627.02	12.61
627.436	12.6
627.852	12.59
628.268	12.59
628.683	12.58
629.099	12.58
629.514	12.57
629.93	12.57
630.345	12.55
630.761	12.52
631.176	12.51
631.591	12.48
632.007	12.46
632.422	12.42
632.837	12.37
633.252	12.32
633.667	12.26
634.082	12.19
634.497	12.12
634.911	12.05
635.326	11.97
635.741	11.89
636.155	11.8
636.57	11.7
636.984	11.61
637.399	11.5
637.813	11.39
638.228	11.29
638.642	11.17
639.056	11.04
639.47	10.92
639.884	10.8
640.298	10.67
640.712	10.55
641.126	10.43
641.54	10.29
641.954	10.16
642.368	10.04
642.781	9.92
643.195	9.8
643.609	9.68
644.022	9.56
644.436	9.45
644.849	9.33
645.262	9.22
645.676	9.1
646.089	9.01
646.502	8.91
646.915	8.81
647.328	8.72
647.741	8.63
648.154	8.56
648.567	8.48
648.98	8.41
649.393	8.34
649.805	8.28
650.218	8.23
650.631	8.17
651.043	8.11
651.456	8.05
651.868	7.99
652.28	7.93
652.693	7.87
653.105	7.82
653.517	7.75
653.929	7.69
654.341	7.61
654.753	7.52
655.165	7.45
655.577	7.37
655.989	7.28
656.401	7.18
656.813	7.09
657.224	7
657.636	6.88
658.047	6.78
658.459	6.68
658.87	6.58
659.282	6.48
659.693	6.37
660.104	6.27
660.515	6.17
660.926	6.08
661.338	5.97
661.749	5.87
662.159	5.79
662.57	5.7
662.981	5.61
663.392	5.53
663.803	5.44
664.213	5.37
664.624	5.29
665.035	5.22
665.445	5.16
665.855	5.1
666.266	5.05
666.676	5.01
667.086	4.96
667.497	4.93
667.907	4.9
668.317	4.88
668.727	4.85
669.137	4.83
669.547	4.8
669.956	4.78
670.366	4.78
670.776	4.76
671.186	4.74
671.595	4.73
672.005	4.71
672.414	4.7
672.824	4.69
673.233	4.7
673.642	4.71
674.052	4.71
674.461	4.72
674.87	4.72
675.279	4.75
675.688	4.76
676.097	4.79
676.506	4.82
676.915	4.85
677.323	4.88
677.732	4.91
678.141	4.95
678.549	4.99
678.958	5.04
679.366	5.1
679.775	5.16
680.183	5.22
680.592	5.3
681	5.39
681.408	5.49
681.816	5.61
682.224	5.76
682.632	5.9
683.04	6.07
683.448	6.25
683.856	6.43
684.264	6.65
684.671	6.89
685.079	7.15
685.487	7.45
685.894	7.76
686.302	8.1
686.709	8.46
687.116	8.86
687.524	9.27
687.931	9.73
688.338	10.21
688.745	10.71
689.152	11.23
689.559	11.77
689.966	12.3
690.373	12.86
690.78	13.44
691.187	14.02
691.593	14.6
692	15.2
692.407	15.77
692.813	16.37
693.22	16.97
693.626	17.57
694.032	18.16
694.439	18.75
694.845	19.35
695.251	19.94
695.657	20.5
696.063	21.06
696.469	21.62
696.875	22.2
697.281	22.76
697.687	23.3
698.093	23.84
698.498	24.36
698.904	24.88
699.31	25.38
699.715	25.86
700.12	26.37
700.526	26.85
700.931	27.31
701.337	27.74
701.742	28.18
702.147	28.59
702.552	29.01
702.957	29.41
703.362	29.8
703.767	30.18
704.172	30.55
704.577	30.9
704.981	31.25
705.386	31.6
705.791	31.96
706.195	32.3
706.6	32.64
707.004	32.95
707.408	33.27
707.813	33.58
708.217	33.86
708.621	34.16
709.025	34.43
709.43	34.69
709.834	34.98
710.237	35.24
710.641	35.5
711.045	35.73
711.449	35.98
711.853	36.24
712.256	36.49
712.66	36.74
713.064	36.97
713.467	37.21
713.87	37.45
714.274	37.65
714.677	37.85
715.08	38.06
715.484	38.27
715.887	38.5
716.29	38.67
716.693	38.85
717.096	39.03
717.499	39.22
717.901	39.42
718.304	39.6
718.707	39.76
719.109	39.94
719.512	40.1
719.915	40.26
720.317	40.38
720.719	40.51
721.122	40.68
721.524	40.83
721.926	40.96
722.328	41.1
722.731	41.24
723.133	41.37
723.535	41.49
723.937	41.63
724.338	41.74
724.74	41.87
725.142	42.04
725.544	42.14
725.945	42.24
726.347	42.3
726.748	42.39
727.15	42.44
727.551	42.55
727.952	42.62
728.354	42.7
728.755	42.77
729.156	42.84
729.557	42.85
729.958	42.9
730.359	42.96
730.76	43.06
731.161	43.11
731.562	43.19
731.962	43.22
732.363	43.3
732.763	43.34
733.164	43.4
733.564	43.47
733.965	43.52
734.365	43.59
734.766	43.63
735.166	43.69
735.566	43.75
735.966	43.8
736.366	43.84
736.766	43.85
737.166	43.89
737.566	43.93
737.966	43.93
738.365	43.98
738.765	44
739.165	44.02
739.564	44.05
739.964	44.05
740.363	44.07
740.763	44.11
741.162	44.14
741.561	44.15
741.96	44.17
742.36	44.2
742.759	44.2
743.158	44.22
743.557	44.22
743.955	44.23
744.354	44.24
744.753	44.26
745.152	44.27
745.55	44.27
745.949	44.31
746.348	44.35
746.746	44.34
747.144	44.36
747.543	44.38
747.941	44.4
748.339	44.4
748.737	44.39
749.136	44.38
749.534	44.36
749.932	44.38
750.33	44.37
750.727	44.36
751.125	44.38
751.523	44.39
751.921	44.38
752.318	44.41
752.716	44.41
753.113	44.44
753.511	44.45
753.908	44.5
754.305	44.51
754.703	44.5
755.1	44.5
755.497	44.51
755.894	44.49
756.291	44.47
756.688	44.46
757.085	44.48
757.482	44.46
757.878	44.45
758.275	44.44
758.672	44.43
759.068	44.45
759.465	44.45
759.861	44.44
760.258	44.44
760.654	44.45
761.05	44.45
761.447	44.44
761.843	44.44
762.239	44.42
762.635	44.41
763.031	44.39
763.427	44.37
763.822	44.38
764.218	44.36
764.614	44.36
765.01	44.33
765.405	44.32
765.801	44.28
766.196	44.28
766.592	44.29
766.987	44.28
767.382	44.3
767.778	44.27
768.173	44.26
768.568	44.28
768.963	44.28
769.358	44.32
769.753	44.32
770.148	44.34
770.542	44.36
770.937	44.37
771.332	44.37
771.726	44.36
772.121	44.36
772.515	44.35
772.91	44.33
773.304	44.33
773.699	44.3
774.093	44.29
774.487	44.28
774.881	44.26
775.275	44.23
775.669	44.2
776.063	44.17
776.457	44.18
776.851	44.17
777.245	44.17
777.638	44.14
778.032	44.14
778.425	44.15
778.819	44.17
779.212	44.18
779.606	44.2
779.999	44.23
780.392	44.26
780.786	44.25
781.179	44.26
781.572	44.3
781.965	44.32
782.358	44.34
782.751	44.32
783.143	44.32
783.536	44.32
783.929	44.33
784.322	44.35
784.714	44.33
785.107	44.34
785.499	44.35
785.891	44.33
786.284	44.34
786.676	44.33
787.068	44.32
787.46	44.31
787.852	44.32
788.245	44.3
788.636	44.26
789.028	44.27
789.42	44.24
789.812	44.26
790.204	44.26
790.595	44.25
790.987	44.23
791.378	44.29
791.77	44.29
792.161	44.26
792.553	44.27
792.944	44.27
793.335	44.27
793.726	44.31
794.117	44.27
794.508	44.25
794.899	44.24
795.29	44.24
795.681	44.2
796.072	44.18
796.463	44.18
796.853	44.16
797.244	44.15
797.634	44.15
798.025	44.16
798.415	44.14
798.806	44.15
799.196	44.16
799.586	44.17
799.976	44.18
800.366	44.21
800.756	44.22
801.146	44.23
801.536	44.26
801.926	44.23
802.316	44.19
802.706	44.22
803.095	44.21
803.485	44.19
803.874	44.16
804.264	44.16
804.653	44.15
805.043	44.15
805.432	44.15
805.821	44.14
806.21	44.19
806.599	44.18
806.988	44.17
807.377	44.15
807.766	44.16
808.155	44.16
808.544	44.17
808.933	44.16
809.321	44.12
809.71	44.1
810.098	44.09
810.487	44.04
810.875	44.05
811.264	44.04
811.652	44.06
812.04	44.06
812.428	44.08
812.816	44.06
813.204	44.06
813.592	44.07
813.98	44.09
814.368	44.1
814.756	44.1
815.144	44.08
815.531	44.09
815.919	44.08
816.306	44.05
816.694	44.04
817.081	44.06
817.469	44.06
817.856	44.06
818.243	44.03
818.63	44
819.017	44.01
819.404	44.01
819.791	44
820.178	44.02
820.565	44.02
820.952	44.01
821.339	43.98
821.725	43.99
822.112	43.99
822.498	44.01
822.885	44.05
823.271	44.06
823.657	44.04
824.044	44.04
824.43	44.04
824.816	44.05
825.202	44.05
825.588	44.04
825.974	44.05
826.36	44.05
826.746	44.03
827.132	44.01
827.517	44
827.903	44.04
828.289	44.05
828.674	44.06
829.06	44.04
829.445	44.05
829.83	44.05
830.216	44.04
830.601	44.04
830.986	44.05
831.371	44.06
831.756	44.04
832.141	44.05
832.526	44.03
832.911	44.02
833.295	44.03
833.68	44.05
834.065	44.06
834.449	44.05
834.834	44.03
835.218	44.03
835.603	44.02
835.987	44.01
836.371	44
836.755	43.99
837.139	43.97
837.524	43.99
837.908	43.99
838.291	44
838.675	44.02
839.059	44.05
839.443	44.02
839.827	44.03
840.21	44.06
840.594	44.06
840.977	44.08
841.361	44.09
841.744	44.05
842.127	44.02
842.511	44
842.894	43.97
843.277	43.96
843.66	43.97
844.043	43.99
844.426	43.97
844.809	43.95
845.191	43.96
845.574	43.96
845.957	43.98
846.339	44.01
846.722	44.02
847.104	44.06
847.487	44.06
847.869	44.06
848.252	44.03
848.634	44.04
849.016	44.07
849.398	44.09
849.78	44.1
850.162	44.1
850.544	44.1
850.926	44.08
851.307	44.06
851.689	44.07
852.071	44.08
852.452	44.09
852.834	44.08
853.215	44.07
853.597	44.03
853.978	44.02
854.359	44.02
854.741	44.01
855.122	44.02
855.503	44.03
855.884	44
856.265	44
856.646	43.99
857.026	44.01
857.407	44.01
857.788	44.02
858.169	44.04
858.549	44.03
858.93	44.03
859.31	44.03
859.69	44.03
860.071	44.06
860.451	44.05
860.831	44.03
861.211	44.01
861.591	43.99
861.971	43.97
862.351	43.96
862.731	43.95
863.111	43.93
863.491	43.91
863.87	43.89
864.25	43.85
864.629	43.86
865.009	43.89
865.388	43.9
865.768	43.92
866.147	43.93
866.526	43.92
866.905	43.91
867.284	43.92
867.663	43.95
868.042	43.95
868.421	43.98
868.8	43.96
869.179	43.94
869.558	43.92
869.936	43.92
870.315	43.89
870.693	43.89
871.072	43.9
871.45	43.92
871.828	43.92
872.207	43.93
872.585	43.9
872.963	43.91
873.341	43.91
873.719	43.93
874.097	43.93
874.475	43.96
874.853	43.96
875.23	44.01
875.608	43.98
875.986	44.01
876.363	44.01
876.741	44.05
877.118	44.04
877.495	44.06
877.873	44.07
878.25	44.09
878.627	44.09
879.004	44.1
879.381	44.07
879.758	44.07
880.135	44.05
880.512	44.04
880.889	44.03
881.265	44.02
881.642	44.02
882.019	44.03
882.395	44
882.772	44
883.148	43.96
883.524	43.96
883.901	43.98
884.277	43.97
884.653	43.97
885.029	43.96
885.405	43.95
885.781	43.94
886.157	43.95
886.532	43.95
886.908	43.93
887.284	43.96
887.659	43.94
888.035	43.92
888.411	43.91
888.786	43.9
889.161	43.91
889.537	43.92
889.912	43.91
890.287	43.88
890.662	43.87
891.037	43.88
891.412	43.86
891.787	43.86
892.162	43.86
892.536	43.86
892.911	43.86
893.286	43.87
893.66	43.86
894.035	43.88
894.409	43.89
894.784	43.9
895.158	43.9
895.532	43.91
895.906	43.92
896.281	43.93
896.655	43.93
897.029	43.95
897.402	43.92
897.776	43.93
898.15	43.91
898.524	43.9
898.898	43.9
899.271	43.9
899.645	43.9
900.018	43.9
900.392	43.89
900.765	43.9
901.138	43.9
901.511	43.92
901.884	43.92
902.258	43.93
902.631	43.93
903.003	43.93
903.376	43.93
903.749	43.93
904.122	43.93
904.495	43.94
904.867	43.93
905.24	43.93
905.612	43.95
905.985	43.96
906.357	43.94
906.729	43.94
907.102	43.93
907.474	43.92
907.846	43.91
908.218	43.9
908.59	43.91
908.962	43.91
909.334	43.88
909.705	43.83
910.077	43.84
910.449	43.85
910.82	43.86
911.192	43.85
911.563	43.85
911.935	43.84
912.306	43.84
912.677	43.83
913.048	43.85
913.419	43.84
913.79	43.88
914.161	43.84
914.532	43.85
914.903	43.83
915.274	43.84
915.645	43.85
916.015	43.87
916.386	43.86
916.756	43.88
917.127	43.87
917.497	43.9
917.868	43.88
918.238	43.87
918.608	43.84
918.978	43.86
919.348	43.87
919.718	43.85
920.088	43.82
920.458	43.8
920.828	43.76
921.198	43.73
921.567	43.71
921.937	43.74
922.306	43.73
922.676	43.74
923.045	43.74
923.415	43.71
923.784	43.72
924.153	43.76
924.522	43.77
924.891	43.75
925.26	43.75
925.629	43.76
925.998	43.73
926.367	43.74
926.736	43.73
927.104	43.72
927.473	43.7
927.842	43.69
928.21	43.68
928.578	43.67
928.947	43.71
929.315	43.68
929.683	43.68
930.051	43.66
930.42	43.67
930.788	43.67
931.156	43.64
931.523	43.65
931.891	43.64
932.259	43.62
932.627	43.61
932.994	43.55
933.362	43.53
933.729	43.53
934.097	43.54
934.464	43.52
934.831	43.5
935.199	43.52
935.566	43.49
935.933	43.52
936.3	43.53
936.667	43.5
937.034	43.55
937.401	43.62
937.767	43.61
938.134	43.59
938.501	43.64
938.867	43.65
939.234	43.63
939.6	43.65
939.967	43.61
940.333	43.62
940.699	43.65
941.065	43.62
941.431	43.54
941.798	43.51
942.163	43.48
942.529	43.42
942.895	43.44
943.261	43.43
943.627	43.44
943.992	43.39
944.358	43.36
944.723	43.38
945.089	43.35
945.454	43.41
945.82	43.35
946.185	43.37
946.55	43.39
946.915	43.32
947.28	43.33
947.645	43.33
948.01	43.34
948.375	43.32
948.74	43.27
949.104	43.32
949.469	43.31
949.834	43.33
950.198	43.29
950.562	43.25
950.927	43.27
951.291	43.22
951.655	43.17
952.02	43.21
952.384	43.14
952.748	43.14
953.112	43.12
953.476	43.06
953.839	43.07
954.203	43.05
954.567	43.04
954.931	43.01
955.294	42.99
955.658	43.04
956.021	43
956.385	43.01
956.748	42.98
957.111	42.92
957.474	42.98
957.837	42.95
958.2	42.95
958.563	42.97
958.926	42.99
959.289	43.01
959.652	42.97
960.015	42.93
960.377	42.93
960.74	42.95
961.102	42.98
961.465	43
961.827	43.04
962.189	43.06
962.552	43.02
962.914	42.99
963.276	43.01
963.638	43.04
964	43.07
964.362	43.1
964.724	43.08
965.085	43.05
965.447	42.97
965.809	42.97
966.17	42.9
966.532	42.92
966.893	42.96
967.255	42.94
967.616	42.89
967.977	42.88
968.338	42.86
968.699	42.87
969.061	42.88
969.421	42.94
969.782	42.91
970.143	42.97
970.504	42.92
970.865	42.9
971.225	42.89
971.586	42.88
971.946	42.88
972.307	42.91
972.667	42.93
973.027	42.95
973.388	42.9
973.748	42.9
974.108	42.94
974.468	42.95
974.828	42.94
975.188	42.9
975.548	42.9
975.907	42.9
976.267	42.84
976.627	42.84
976.986	42.78
977.346	42.76
977.705	42.73
978.064	42.69
978.424	42.72
978.783	42.68
979.142	42.66
979.501	42.65
979.86	42.67
980.219	42.65
980.578	42.66
980.937	42.67
981.296	42.71
981.654	42.7
982.013	42.69
982.371	42.66
982.73	42.67
983.088	42.67
983.447	42.68
983.805	42.63
984.163	42.59
984.521	42.54
984.879	42.49
985.237	42.48
985.595	42.56
985.953	42.54
986.311	42.46
986.669	42.49
987.026	42.56
987.384	42.59
987.741	42.56
988.099	42.64
988.456	42.63
988.814	42.68
989.171	42.67
989.528	42.56
989.885	42.56
990.242	42.68
990.599	42.64
990.956	42.63
991.313	42.57
991.67	42.61
992.027	42.64
992.383	42.7
992.74	42.82
993.096	42.84
993.453	42.83
993.809	42.81
994.165	42.75
994.522	42.78
994.878	42.77
995.234	42.8
995.59	42.82
995.946	42.77
996.302	42.68
996.658	42.59
997.013	42.55
997.369	42.62
997.725	42.66
998.08	42.73
998.436	42.79
998.791	42.72
999.147	42.77
999.502	42.75
999.857	42.72
1000.212	42.73
1000.567	42.78
1000.922	42.71
1001.277	42.7
1001.632	42.7
1001.987	42.64
1002.342	42.55
1002.696	42.61
1003.051	42.68
1003.406	42.8
1003.76	42.84
1004.114	42.73
1004.469	42.6
1004.823	42.81
1005.177	42.79
1005.531	42.74
1005.885	42.77
1006.239	42.63
1006.593	42.64
1006.947	42.42
1007.301	42.17
1007.655	42.08
1008.008	42.19
1008.362	42.3
1008.715	42.07
1009.069	42.12
1009.422	42.12
1009.776	41.99
1010.129	42.09
1010.482	42.09
1010.835	42.35
1011.188	42.48
1011.541	42.53
1011.894	42.59
1012.247	42.51
1012.6	42.64
1012.952	42.58
1013.305	42.68
1013.657	42.7
1014.01	42.76
1014.362	42.59
1014.715	42.45
1015.067	42.42
1015.419	42.52
1015.771	42.33
1016.123	42.32
1016.475	42.29
1016.827	42.31
1017.179	42.26
1017.531	42.27
1017.883	42.3
1018.234	42.49
1018.586	42.41
1018.938	42.41
1019.289	42.24
1019.64	42.44
1019.992	42.41
1020.343	42.36
1020.694	42.32
1021.045	42.37
1021.396	42.45
1021.747	42.42
1022.098	42.52
1022.449	42.52
1022.8	42.45
1023.151	42.38
1023.501	42.26
1023.852	42.35
1024.202	42.17
1024.553	42.08
1024.903	42.01
1025.253	42.13
1025.604	42.19
1025.954	41.87
1026.304	41.71
1026.654	41.7
1027.004	41.74
1027.354	41.67
1027.703	41.43
1028.053	41.61
1028.403	41.57
1028.753	41.03
1029.102	40.83
1029.452	40.71
1029.801	40.85
1030.15	40.93
1030.499	40.89
897.758	715.98
901.051	724.62
904.343	726.51
907.636	735.33
910.928	714.81
914.22	717.88
917.511	710.87
920.803	679.72
924.094	676.7
927.384	658.57
930.675	636.13
933.965	635.85
937.255	597.69
940.544	573.53
943.834	549.85
947.123	544.9
950.411	514.89
953.7	504.55
956.988	480.82
960.276	463.69
963.563	454.54
966.851	439.3
970.138	435.12
973.424	423.56
976.711	424.57
979.997	404.52
983.283	402.67
986.568	393.3
989.853	382.45
993.138	372.66
996.423	358.87
999.708	350.42
1002.992	345.05
1006.275	332.02
1009.559	327.96
1012.842	315.54
1016.125	309.01
1019.408	303.92
1022.69	299.77
1025.972	292.9
1029.254	287.53
1032.536	283.04
1035.817	279.2
1039.098	276.6
1042.379	269.35
1045.659	266.83
1048.939	262.26
1052.219	256.05
1055.498	253.38
1058.778	247.36
1062.057	243.23
1065.335	240.45
1068.614	237.64
1071.892	234.06
1075.17	227.94
1078.447	224.69
1081.724	222.76
1085.001	221.21
1088.278	216.9
1091.554	212.22
1094.83	213.12
1098.106	211.14
1101.382	209.62
1104.657	208.71
1107.932	204.73
1111.206	205.56
1114.481	201.36
1117.755	199.69
1121.029	197.7
1124.302	197.5
1127.575	194.67
1130.848	192.28
1134.121	190.7
1137.393	189.57
1140.665	185.71
1143.937	184.91
1147.208	183.77
1150.48	182.62
1153.75	181.81
1157.021	179.46
1160.291	179.1
1163.561	176.9
1166.831	176.66
1170.101	175.46
1173.37	175.47
1176.639	175.95
1179.907	174.47
1183.176	172.25
1186.444	172.39
1189.711	171.02
1192.979	170.59
1196.246	170.3
1199.513	171.02
1202.78	170.51
1206.046	169.97
1209.312	168.51
1212.578	168.51
1215.843	169.5
1219.108	168.7
1222.373	171.81
1225.638	173.05
1228.902	174.92
1232.166	175.9
1235.43	176.72
1238.693	178.36
1241.956	179.11
1245.219	181.09
1248.482	181.47
1251.744	181.83
1255.006	183.09
1258.268	179.02
1261.529	177.96
1264.79	176.57
1268.051	175.11
1271.312	172.5
1274.572	171.72
1277.832	170.4
1281.092	167.44
1284.351	166.27
1287.61	166.36
1290.869	164.12
1294.128	163.34
1297.386	163.16
1300.644	162.79
1303.902	162.64
1307.159	163.01
1310.416	162.04
1313.673	161.8
1316.93	163.51
1320.186	162.83
1323.442	163.38
1326.697	165.36
1329.953	165.92
1333.208	165.9
1336.463	167.53
1339.717	167.89
1342.972	169.11
1346.226	170.3
1349.479	171.11
1352.733	172.35
1355.986	173.77
1359.238	173.38
1362.491	173.88
1365.743	174.55
1368.995	174.58
1372.247	175.29
1375.498	174.62
1378.749	176.2
1382	173.79
1385.251	173.34
1388.501	172.03
1391.751	171.93
1395	171.4
1398.25	169.52
1401.499	167.94
1404.748	167.95
1407.996	164.61
1411.244	164
1414.492	161.97
1417.74	160.69
1420.987	159.23
1424.234	158.13
1427.481	155.76
1430.728	155.18
1433.974	154.51
1437.22	153.15
1440.465	152.73
1443.711	151.08
1446.956	149.81
1450.201	148.89
1453.445	147.81
1456.689	147.17
1459.933	144.61
1463.177	144.29
1466.42	141.49
1469.663	139.97
1472.906	139.35
1476.148	136.04
1479.391	135.16
1482.633	134.47
1485.874	132.22
1489.115	131.16
1492.356	130.21
1495.597	130.1
1498.838	128.24
1502.078	128.36
1505.318	128.04
1508.557	127.73
1511.797	127.44
1515.036	126.62
1518.274	126.07
1521.513	125.78
1524.751	125.63
1527.989	125.2
1531.227	125.3
1534.464	125.16
1537.701	124.48
1540.938	124.2
1544.174	123.73
1547.41	123.73
1550.646	122.88
1553.882	123.05
1557.117	121.77
1560.352	121.12
1563.587	121.36
1566.821	120.69
1570.055	120.1
1573.289	119.65
1576.523	119.56
1579.756	118.24
1582.989	118.1
1586.222	118.11
1589.454	118.37
1592.686	119.6
1595.918	119.01
1599.15	118.1
1602.381	118.38
1605.612	118.47
1608.843	118.33
1612.073	118.16
1615.303	119.34
1618.533	119.71
1621.762	119.57
1624.992	119.49
1628.221	118.82
1631.449	118.72
1634.678	119.03
1637.906	119.65
1641.134	119.25
1644.361	119.36
1647.588	119.65
1650.815	119.14
1654.042	118.72
1657.269	119.33
1660.495	118.92
1663.72	118.7
1666.946	119.63
1670.171	119.69
1673.396	119.06
1676.621	119.62
1679.845	120.49
1683.069	120.23
1686.293	120.97
1689.517	121.25
1692.74	121.27
1695.963	121.42
1699.185	122.41
1702.408	122.15
1705.63	122.72
1708.852	123.43
1712.073	123.31
1715.294	122.82
1718.515	123.87
1721.736	123.67
1724.956	123.98
1728.176	123.98
1731.396	124.64
1734.616	124.23
1737.835	124.81
1741.054	124
1744.272	123.97
1747.491	125.14
1750.709	125.2
1753.927	124.97
1757.144	124.51
1760.361	124.81
1763.578	124.9
1766.795	124.45
1770.011	125.3
1773.227	125.59
1776.443	126.26
1779.658	126.32
1782.874	126.56
1786.089	126.52
1789.303	126.84
1792.518	127.88
1795.732	127.89
1798.945	128.71
1802.159	129.28
1805.372	129.54
1808.585	130.59
1811.797	131.44
1815.01	132.08
1818.222	132.36
1821.434	134.43
1824.645	134.35
1827.856	136.92
1831.067	137.25
1834.278	137.81
1837.488	138.21
1840.698	138.85
1843.908	138.14
1847.117	138.51
1850.326	139.23
1853.535	137.86
1856.744	138.67
1859.952	138.58
1863.16	136.81
1866.368	135.73
1869.575	136.13
1872.782	134.41
1875.989	132.49
1879.196	131.92
1882.402	130.28
1885.608	129.91
1888.814	129.79
1892.019	127.88
1895.224	127.22
1898.429	126.63
1901.634	126.93
1904.838	126.6
1908.042	127.01
1911.246	127.42
1914.449	127.74
1917.652	127.33
1920.855	126.94
1924.058	127.32
1927.26	127.39
1930.462	127.18
1933.664	127.84
1936.865	127.6
1940.066	126.17
1943.267	125.48
1946.467	126.34
1949.668	126.59
1952.868	128.38
1956.067	128.69
1959.267	128.98
1962.466	129.33
1965.665	129
1968.863	130.04
1972.061	131.04
1975.259	132.6
1978.457	134.52
1981.654	134.84
1984.852	135.44
1988.048	135.25
1991.245	136.52
1994.441	137.42
1997.637	138.89
2000.833	141.78
2004.028	142.87
2007.223	145.3
2010.418	146.48
2013.613	148.74
2016.807	151.15
2020.001	153.38
2023.194	155.23
2026.388	159.04
2029.581	162.97
2032.774	163.75
2035.966	167.03
2039.158	167.67
2042.35	169.77
2045.542	172.78
2048.733	174.9
2051.924	177.93
2055.115	180.22
2058.306	181.29
2061.496	182.47
2064.686	181.9
2067.875	185.99
2071.065	186.98
2074.254	186.75
2077.442	189.03
2080.631	188.13
2083.819	190.48
2087.007	189.16
2090.195	190.87
2093.382	193.67
2096.569	193.06
2099.756	196.75
2102.942	196.93
2106.128	198.08
2109.314	203.53
2112.5	202.93
2115.685	208.83
2118.87	209.22
2122.055	214.49
2125.239	215.91
2128.424	218.12
2131.608	219.25
2134.791	222.32
2137.974	223.66
2141.157	224.34
2144.34	224.03
2147.523	226.84
2150.705	224.62
2153.887	227.91
2157.068	228.02
2160.25	226.78
2163.431	228.23
2166.611	230.66
2169.792	235.75
2172.972	236.35
2176.152	238.11
2179.331	241.25
2182.511	245.09
2185.69	247.28
2188.868	251.76
2192.047	251.7
2195.225	259.36
2198.403	265.1
2201.58	269.65
2204.758	272.31
2207.935	278.36
2211.111	284.35
2214.288	286.9
2217.464	286.82
2220.64	293.35
2223.815	295.05
2226.991	308.28
2230.166	307.46
2233.34	310.59
2236.515	316.76
2239.689	317.28
2242.863	320.64
2246.036	327.76
2249.209	326.11
2252.382	332.89
2255.555	341.11
2258.727	344.04
2261.9	345.62
2265.071	349.9
2268.243	355.12
2271.414	358.27
2274.585	366.15
2277.756	368.86
2280.926	373.82
2284.096	381.9
2287.266	387.74
2290.436	388.78
2293.605	396.89
2296.774	406.99
2299.942	420.33
2303.111	424.51
2306.279	431.3
2309.447	435.89
2312.614	449.16
2315.781	457.84
2318.948	477.56
2322.115	472.91
2325.281	502.08
2328.447	488.97
2331.613	506.57
2334.779	499.69
2337.944	522.15
2341.109	528.7
2344.274	547.18
2347.438	560.98
2350.602	562.1
2353.766	579.27
2356.929	588.66
2360.092	580.32
2363.255	624.31
2366.418	626.75
2369.58	636.16
2372.742	672.91
2375.904	692.44
2379.066	686.64
2382.227	675.74
2385.388	733.01
2388.548	735.13
2391.709	741.02
2394.869	825.33
2398.029	790.38
2401.188	810.67
2404.347	807.95
2407.506	794.81
2410.665	812.97
2413.823	863.47
2416.981	915.78
2420.139	885.29
2423.296	878.03
2426.453	917.91
2429.61	884
2432.767	924.75
2435.923	915.33
2439.079	1001.11
2442.235	1016.78
2445.391	1009.29
2448.546	996.83
2451.701	972.22
2454.855	972.57
2458.009	1024.34
2461.163	1068.3
2464.317	1105.53
2467.471	1133
2470.624	1134.16
2473.777	1110.58
2476.929	1078.6
2480.082	1045.21
2483.234	1036.11
2486.385	1088.19
2489.537	1091.61
2492.688	1136.51
2495.839	1103.51
2498.989	1082.83
2502.14	1089.14
2505.29	1098.92
2508.439	1104.28
2511.589	1104.72
2514.738	1208.55
2517.887	1179.43
2521.035	1238.73
2524.183	1252.82
2527.331	1259.85
2530.479	1253.29
2533.627	1260.15
