Data from N_1_DEC_NC_4n_Splice17_12-17-26-558.txt Node
Date: Sat Mar 07 12:17:26 EST 2020
User: sa697716
Spectrometer: NQ5500242
Trigger mode: 0
Integration Time (sec): 1.450000E-1
Scans to average: 20
Nonlinearity correction enabled: false
Boxcar width: 5
Storing dark spectrum: false
XAxis mode: Wavelengths
Number of Pixels in Spectrum: 512
>>>>>Begin Spectral Data<<<<<
187.83	40.72
188.298	29.8
188.766	15.52
189.233	15.65
189.701	6.78
190.169	21.8
190.636	-14.43
191.104	-123.02
191.571	-242.14
192.039	-136.12
192.506	-362.56
192.974	208.87
193.441	119.34
193.908	31.31
194.375	9.15
194.842	-41.36
195.31	-5.3
195.777	-166.7
196.244	0.62
196.711	21.55
197.177	25.35
197.644	24.85
198.111	25.02
198.578	25.41
199.045	25.83
199.511	26.01
199.978	26.23
200.445	26.26
200.911	26.15
201.378	26.66
201.844	26.66
202.31	26.32
202.777	26.66
203.243	26.51
203.709	26.43
204.176	25.97
204.642	26.07
205.108	25.96
205.574	26.02
206.04	26.06
206.506	25.89
206.972	25.84
207.438	25.58
207.903	25.12
208.369	24.77
208.835	24.23
209.301	23.82
209.766	22.79
210.232	22.26
210.697	21.59
211.163	20.97
211.628	20.13
212.094	19.55
212.559	19.18
213.024	18.73
213.49	18.36
213.955	17.99
214.42	17.6
214.885	17.34
215.35	16.59
215.815	15.81
216.28	14.62
216.745	13.47
217.21	12.34
217.675	11.25
218.14	10.39
218.604	9.56
219.069	8.87
219.534	8.32
219.998	7.81
220.463	7.42
220.927	7.02
221.392	6.77
221.856	6.54
222.32	6.33
222.785	6.14
223.249	5.93
223.713	5.77
224.177	5.64
224.642	5.53
225.106	5.4
225.57	5.28
226.034	5.19
226.497	5.11
226.961	5.03
227.425	4.97
227.889	4.92
228.353	4.86
228.816	4.79
229.28	4.72
229.744	4.65
230.207	4.59
230.671	4.53
231.134	4.47
231.597	4.42
232.061	4.35
232.524	4.28
232.987	4.22
233.45	4.17
233.914	4.12
234.377	4.06
234.84	4
235.303	3.97
235.766	3.93
236.229	3.89
236.691	3.84
237.154	3.81
237.617	3.79
238.08	3.75
238.542	3.71
239.005	3.68
239.468	3.65
239.93	3.63
240.393	3.59
240.855	3.55
241.317	3.51
241.78	3.47
242.242	3.44
242.704	3.39
243.166	3.36
243.629	3.34
244.091	3.3
244.553	3.27
245.015	3.25
245.477	3.21
245.939	3.18
246.4	3.15
246.862	3.13
247.324	3.11
247.786	3.1
248.247	3.07
248.709	3.04
249.17	3.01
249.632	2.99
250.093	2.97
250.555	2.94
251.016	2.93
251.477	2.91
251.939	2.89
252.4	2.87
252.861	2.85
253.322	2.83
253.783	2.81
254.244	2.8
254.705	2.78
255.166	2.76
255.627	2.74
256.088	2.71
256.549	2.7
257.009	2.68
257.47	2.67
257.931	2.65
258.391	2.63
258.852	2.62
259.312	2.59
259.773	2.58
260.233	2.57
260.694	2.56
261.154	2.54
261.614	2.53
262.074	2.52
262.534	2.5
262.994	2.49
263.455	2.48
263.915	2.47
264.374	2.46
264.834	2.45
265.294	2.44
265.754	2.43
266.214	2.42
266.673	2.41
267.133	2.4
267.593	2.4
268.052	2.39
268.512	2.39
268.971	2.38
269.431	2.37
269.89	2.36
270.349	2.35
270.809	2.35
271.268	2.34
271.727	2.34
272.186	2.33
272.645	2.33
273.104	2.33
273.563	2.32
274.022	2.31
274.481	2.31
274.94	2.3
275.399	2.3
275.857	2.3
276.316	2.29
276.775	2.29
277.233	2.28
277.692	2.27
278.15	2.27
278.609	2.27
279.067	2.27
279.525	2.26
279.984	2.26
280.442	2.25
280.9	2.25
281.358	2.25
281.816	2.24
282.274	2.24
282.732	2.24
283.19	2.23
283.648	2.22
284.106	2.22
284.564	2.21
285.021	2.21
285.479	2.21
285.937	2.2
286.394	2.2
286.852	2.19
287.309	2.18
287.767	2.18
288.224	2.17
288.682	2.16
289.139	2.15
289.596	2.14
290.053	2.13
290.511	2.12
290.968	2.11
291.425	2.1
291.882	2.09
292.339	2.09
292.796	2.08
293.252	2.08
293.709	2.07
294.166	2.07
294.623	2.07
295.079	2.06
295.536	2.06
295.992	2.06
296.449	2.05
296.905	2.05
297.362	2.05
297.818	2.05
298.274	2.04
298.731	2.04
299.187	2.03
299.643	2.03
300.099	2.02
300.555	2.01
301.011	2.01
301.467	2.01
301.923	2
302.379	1.99
302.835	1.99
303.291	1.99
303.746	1.99
304.202	1.99
304.658	1.99
305.113	1.99
305.569	2
306.024	2
306.479	1.99
306.935	1.99
307.39	1.99
307.845	1.99
308.301	1.98
308.756	1.98
309.211	1.98
309.666	1.99
310.121	1.99
310.576	1.98
311.031	1.98
311.486	1.98
311.94	1.98
312.395	1.98
312.85	1.99
313.305	1.99
313.759	1.99
314.214	1.98
314.668	1.96
315.123	1.97
315.577	1.97
316.032	1.97
316.486	1.96
316.94	1.96
317.394	1.96
317.849	1.94
318.303	1.93
318.757	1.93
319.211	1.92
319.665	1.92
320.119	1.91
320.572	1.91
321.026	1.91
321.48	1.9
321.934	1.9
322.387	1.89
322.841	1.89
323.295	1.89
323.748	1.89
324.202	1.89
324.655	1.89
325.108	1.89
325.562	1.89
326.015	1.89
326.468	1.89
326.921	1.89
327.374	1.9
327.827	1.9
328.28	1.89
328.733	1.89
329.186	1.89
329.639	1.89
330.092	1.89
330.545	1.89
330.997	1.89
331.45	1.89
331.903	1.89
332.355	1.9
332.808	1.89
333.26	1.89
333.713	1.89
334.165	1.89
334.617	1.89
335.069	1.88
335.522	1.87
335.974	1.87
336.426	1.86
336.878	1.86
337.33	1.86
337.782	1.87
338.234	1.87
338.686	1.88
339.137	1.89
339.589	1.88
340.041	1.88
340.493	1.89
340.944	1.87
341.396	1.88
341.847	1.87
342.299	1.86
342.75	1.85
343.201	1.84
343.653	1.84
344.104	1.83
344.555	1.83
345.006	1.83
345.457	1.82
345.908	1.81
346.359	1.81
346.81	1.81
347.261	1.8
347.712	1.79
348.163	1.79
348.613	1.79
349.064	1.79
349.515	1.79
349.965	1.78
350.416	1.79
350.866	1.79
351.317	1.79
351.767	1.8
352.217	1.8
352.668	1.81
353.118	1.81
353.568	1.8
354.018	1.8
354.468	1.81
354.918	1.81
355.368	1.81
355.818	1.81
356.268	1.81
356.718	1.81
357.168	1.79
357.617	1.79
358.067	1.79
358.517	1.81
358.966	1.81
359.416	1.81
359.865	1.81
360.315	1.81
360.764	1.82
361.213	1.82
361.663	1.82
362.112	1.83
362.561	1.84
363.01	1.85
363.459	1.83
363.908	1.84
364.357	1.84
364.806	1.83
365.255	1.84
365.703	1.84
366.152	1.84
366.601	1.84
367.05	1.84
367.498	1.84
367.947	1.84
368.395	1.85
368.844	1.85
369.292	1.85
369.74	1.87
370.189	1.87
370.637	1.87
371.085	1.88
371.533	1.88
371.981	1.89
372.429	1.89
372.877	1.9
373.325	1.9
373.773	1.9
374.221	1.9
374.669	1.9
375.116	1.89
375.564	1.9
376.012	1.9
376.459	1.9
376.907	1.91
377.354	1.93
377.801	1.94
378.249	1.96
378.696	1.97
379.143	1.99
379.591	2
380.038	2.02
380.485	2.03
380.932	2.05
381.379	2.08
381.826	2.1
382.273	2.11
382.72	2.13
383.166	2.14
383.613	2.16
384.06	2.17
384.506	2.19
384.953	2.22
385.4	2.24
385.846	2.27
386.292	2.28
386.739	2.29
387.185	2.31
387.631	2.34
388.078	2.37
388.524	2.4
388.97	2.43
389.416	2.45
389.862	2.47
390.308	2.51
390.754	2.54
391.2	2.57
391.645	2.61
392.091	2.64
392.537	2.68
392.983	2.71
393.428	2.75
393.874	2.79
394.319	2.82
394.765	2.86
395.21	2.89
395.655	2.92
396.101	2.95
396.546	2.97
396.991	3.01
397.436	3.03
397.881	3.08
398.326	3.11
398.771	3.14
399.216	3.17
399.661	3.2
400.106	3.23
400.551	3.25
400.995	3.28
401.44	3.3
401.885	3.33
402.329	3.35
402.774	3.37
403.218	3.41
403.663	3.43
404.107	3.44
404.551	3.45
404.995	3.48
405.44	3.5
405.884	3.51
406.328	3.54
406.772	3.54
407.216	3.55
407.66	3.55
408.104	3.54
408.547	3.56
408.991	3.57
409.435	3.59
409.879	3.59
410.322	3.6
410.766	3.62
411.209	3.63
411.653	3.64
412.096	3.66
412.54	3.67
412.983	3.67
413.426	3.7
413.869	3.72
414.312	3.75
414.756	3.77
415.199	3.77
415.642	3.78
416.085	3.79
416.527	3.79
416.97	3.8
417.413	3.82
417.856	3.83
418.298	3.81
418.741	3.81
419.184	3.8
419.626	3.81
420.069	3.81
420.511	3.81
420.953	3.81
421.396	3.82
421.838	3.81
422.28	3.8
422.722	3.81
423.164	3.82
423.606	3.83
424.048	3.82
424.49	3.81
424.932	3.82
425.374	3.81
425.816	3.79
426.258	3.78
426.699	3.77
427.141	3.76
427.582	3.77
428.024	3.76
428.465	3.75
428.907	3.74
429.348	3.73
429.789	3.72
430.231	3.73
430.672	3.75
431.113	3.77
431.554	3.78
431.995	3.78
432.436	3.79
432.877	3.79
433.318	3.81
433.759	3.83
434.2	3.86
434.64	3.86
435.081	3.87
435.522	3.88
435.962	3.9
436.403	3.92
436.843	3.95
437.284	3.95
437.724	3.96
438.164	3.97
438.604	4
439.045	4
439.485	4.01
439.925	4.02
440.365	4.04
440.805	4.05
441.245	4.09
441.685	4.13
442.125	4.17
442.564	4.2
443.004	4.22
443.444	4.24
443.883	4.3
444.323	4.35
444.762	4.37
445.202	4.41
445.641	4.45
446.081	4.46
446.52	4.47
446.959	4.52
447.398	4.55
447.837	4.6
448.276	4.62
448.716	4.65
449.154	4.68
449.593	4.73
450.032	4.74
450.471	4.75
450.91	4.77
451.349	4.81
451.787	4.8
452.226	4.81
452.664	4.83
453.103	4.85
453.541	4.85
453.98	4.88
454.418	4.88
454.856	4.89
455.295	4.91
455.733	4.9
456.171	4.9
456.609	4.91
457.047	4.92
457.485	4.9
457.923	4.89
458.361	4.88
458.798	4.87
459.236	4.88
459.674	4.87
460.111	4.86
460.549	4.88
460.987	4.88
461.424	4.88
461.862	4.88
462.299	4.91
462.736	4.91
463.173	4.92
463.611	4.93
464.048	4.93
464.485	4.94
464.922	4.95
465.359	4.95
465.796	4.95
466.233	4.96
466.67	4.97
467.106	4.98
467.543	4.98
467.98	4.97
468.416	4.97
468.853	4.97
469.29	4.97
469.726	4.97
470.162	4.97
470.599	4.98
471.035	4.96
471.471	4.96
471.907	4.96
472.344	4.98
472.78	4.99
473.216	4.99
473.652	5.01
474.088	5.02
474.523	5.03
474.959	5.04
475.395	5.03
475.831	5.05
476.266	5.06
476.702	5.05
477.138	5.07
477.573	5.07
478.008	5.09
478.444	5.08
478.879	5.09
479.314	5.09
479.75	5.11
480.185	5.11
480.62	5.11
481.055	5.12
481.49	5.13
481.925	5.13
482.36	5.13
482.795	5.14
483.229	5.14
483.664	5.16
484.099	5.17
484.534	5.18
484.968	5.21
485.403	5.23
485.837	5.25
486.271	5.28
486.706	5.3
487.14	5.33
487.574	5.36
488.009	5.39
488.443	5.43
488.877	5.47
489.311	5.51
489.745	5.56
490.179	5.6
490.613	5.65
491.046	5.7
491.48	5.75
491.914	5.8
492.348	5.87
492.781	5.93
493.215	6
493.648	6.06
494.082	6.13
494.515	6.2
494.948	6.28
495.382	6.36
495.815	6.44
496.248	6.54
496.681	6.63
497.114	6.72
497.547	6.82
497.98	6.92
498.413	7.02
498.846	7.13
499.279	7.23
499.711	7.34
500.144	7.46
500.577	7.57
501.009	7.68
501.442	7.8
501.874	7.93
502.306	8.06
502.739	8.2
503.171	8.35
503.603	8.5
504.036	8.65
504.468	8.79
504.9	8.93
505.332	9.08
505.764	9.25
506.196	9.41
506.627	9.57
507.059	9.74
507.491	9.91
507.923	10.08
508.354	10.26
508.786	10.44
509.217	10.63
509.649	10.82
510.08	11.01
510.512	11.2
510.943	11.39
511.374	11.58
511.805	11.77
512.237	11.96
512.668	12.15
513.099	12.33
513.53	12.53
513.961	12.73
514.391	12.92
514.822	13.14
515.253	13.33
515.684	13.52
516.114	13.72
516.545	13.92
516.975	14.12
517.406	14.32
517.836	14.52
518.267	14.73
518.697	14.91
519.127	15.08
519.558	15.25
519.988	15.44
520.418	15.61
520.848	15.78
521.278	15.95
521.708	16.27
522.138	16.43
522.567	16.58
522.997	16.72
523.427	16.87
523.857	17.01
524.286	17.15
524.716	17.29
525.145	17.43
525.575	17.56
526.004	17.68
526.433	17.64
526.863	17.75
527.292	17.86
527.721	17.95
528.15	18.04
528.579	18.13
529.008	18.22
529.437	18.29
529.866	18.35
530.295	18.44
530.724	18.5
531.152	18.57
531.581	18.64
532.01	18.7
532.438	18.77
532.867	18.83
533.295	18.89
533.723	18.94
534.152	18.99
534.58	19.04
535.008	19.08
535.436	19.13
535.865	19.15
536.293	19.18
536.721	19.21
537.149	19.24
537.576	19.27
538.004	19.31
538.432	19.33
538.86	19.37
539.287	19.38
539.715	19.42
540.143	19.44
540.57	19.47
540.998	19.49
541.425	19.52
541.852	19.55
542.28	19.57
542.707	19.59
543.134	19.62
543.561	19.64
543.988	19.67
544.415	19.67
544.842	19.66
545.269	19.68
545.696	19.7
546.123	19.71
546.549	19.73
546.976	19.76
547.403	19.77
547.829	19.78
548.256	19.8
548.682	19.81
549.108	19.84
549.535	19.87
549.961	19.86
550.387	19.85
550.813	19.85
551.24	19.85
551.666	19.84
552.092	19.83
552.518	19.82
552.943	19.8
553.369	19.77
553.795	19.75
554.221	19.74
554.646	19.73
555.072	19.72
555.498	19.69
555.923	19.65
556.349	19.62
556.774	19.58
557.199	19.54
557.625	19.51
558.05	19.48
558.475	19.44
558.9	19.39
559.325	19.36
559.75	19.32
560.175	19.28
560.6	19.22
561.025	19.18
561.449	19.14
561.874	19.08
562.299	19.01
562.723	18.95
563.148	18.87
563.572	18.8
563.997	18.71
564.421	18.64
564.846	18.56
565.27	18.49
565.694	18.42
566.118	18.34
566.542	18.27
566.966	18.19
567.39	18.12
567.814	18.07
568.238	18
568.662	17.93
569.086	17.86
569.509	17.8
569.933	17.74
570.357	17.66
570.78	17.59
571.204	17.52
571.627	17.45
572.05	17.37
572.474	17.31
572.897	17.24
573.32	17.17
573.743	17.11
574.166	17.03
574.589	16.96
575.012	16.89
575.435	16.82
575.858	16.76
576.281	16.69
576.704	16.64
577.126	16.57
577.549	16.51
577.972	16.45
578.394	16.39
578.817	16.34
579.239	16.28
579.661	16.24
580.084	16.19
580.506	16.14
580.928	16.09
581.35	16.05
581.772	15.99
582.194	15.94
582.616	15.91
583.038	15.85
583.46	15.8
583.882	15.77
584.303	15.71
584.725	15.66
585.147	15.61
585.568	15.58
585.99	15.53
586.411	15.48
586.833	15.44
587.254	15.4
587.675	15.36
588.096	15.32
588.518	15.28
588.939	15.25
589.36	15.22
589.781	15.18
590.202	15.15
590.623	15.12
591.043	15.09
591.464	15.05
591.885	15
592.305	14.98
592.726	14.96
593.147	14.94
593.567	14.9
593.987	14.88
594.408	14.85
594.828	14.81
595.248	14.8
595.669	14.78
596.089	14.75
596.509	14.73
596.929	14.7
597.349	14.68
597.769	14.64
598.189	14.62
598.608	14.6
599.028	14.59
599.448	14.56
599.867	14.53
600.287	14.51
600.706	14.48
601.126	14.46
601.545	14.44
601.965	14.42
602.384	14.39
602.803	14.35
603.222	14.3
603.641	14.28
604.061	14.25
604.48	14.22
604.898	14.18
605.317	14.15
605.736	14.11
606.155	14.07
606.574	14.02
606.992	13.98
607.411	13.94
607.829	13.88
608.248	13.83
608.666	13.77
609.085	13.74
609.503	13.69
609.921	13.64
610.339	13.61
610.758	13.55
611.176	13.5
611.594	13.45
612.012	13.4
612.43	13.37
612.847	13.33
613.265	13.29
613.683	13.22
614.101	13.16
614.518	13.1
614.936	13.05
615.353	13
615.771	12.95
616.188	12.91
616.606	12.86
617.023	12.82
617.44	12.78
617.857	12.74
618.274	12.7
618.691	12.66
619.108	12.63
619.525	12.61
619.942	12.58
620.359	12.55
620.776	12.53
621.192	12.51
621.609	12.5
622.026	12.47
622.442	12.46
622.859	12.45
623.275	12.44
623.691	12.43
624.108	12.41
624.524	12.4
624.94	12.39
625.356	12.38
625.772	12.37
626.188	12.37
626.604	12.36
627.02	12.36
627.436	12.35
627.852	12.34
628.268	12.33
628.683	12.33
629.099	12.33
629.514	12.32
629.93	12.3
630.345	12.28
630.761	12.24
631.176	12.22
631.591	12.18
632.007	12.14
632.422	12.11
632.837	12.07
633.252	12.01
633.667	11.95
634.082	11.88
634.497	11.82
634.911	11.76
635.326	11.69
635.741	11.61
636.155	11.52
636.57	11.44
636.984	11.35
637.399	11.25
637.813	11.16
638.228	11.05
638.642	10.95
639.056	10.84
639.47	10.73
639.884	10.62
640.298	10.5
640.712	10.4
641.126	10.29
641.54	10.15
641.954	10.03
642.368	9.9
642.781	9.81
643.195	9.7
643.609	9.6
644.022	9.49
644.436	9.39
644.849	9.28
645.262	9.18
645.676	9.1
646.089	9.03
646.502	8.95
646.915	8.89
647.328	8.82
647.741	8.75
648.154	8.7
648.567	8.65
648.98	8.59
649.393	8.56
649.805	8.52
650.218	8.48
650.631	8.44
651.043	8.4
651.456	8.37
651.868	8.33
652.28	8.29
652.693	8.26
653.105	8.22
653.517	8.18
653.929	8.14
654.341	8.09
654.753	8.03
655.165	7.98
655.577	7.92
655.989	7.86
656.401	7.8
656.813	7.74
657.224	7.65
657.636	7.57
658.047	7.49
658.459	7.4
658.87	7.31
659.282	7.22
659.693	7.11
660.104	7.02
660.515	6.92
660.926	6.82
661.338	6.72
661.749	6.63
662.159	6.52
662.57	6.43
662.981	6.34
663.392	6.25
663.803	6.17
664.213	6.1
664.624	6.02
665.035	5.94
665.445	5.87
665.855	5.8
666.266	5.74
666.676	5.69
667.086	5.63
667.497	5.58
667.907	5.53
668.317	5.5
668.727	5.45
669.137	5.42
669.547	5.39
669.956	5.37
670.366	5.34
670.776	5.32
671.186	5.3
671.595	5.28
672.005	5.27
672.414	5.26
672.824	5.24
673.233	5.25
673.642	5.24
674.052	5.24
674.461	5.25
674.87	5.26
675.279	5.28
675.688	5.31
676.097	5.32
676.506	5.35
676.915	5.39
677.323	5.43
677.732	5.46
678.141	5.51
678.549	5.57
678.958	5.64
679.366	5.72
679.775	5.79
680.183	5.88
680.592	6
681	6.12
681.408	6.25
681.816	6.4
682.224	6.56
682.632	6.73
683.04	6.91
683.448	7.12
683.856	7.31
684.264	7.54
684.671	7.78
685.079	8.04
685.487	8.31
685.894	8.61
686.302	8.92
686.709	9.22
687.116	9.56
687.524	9.91
687.931	10.27
688.338	10.65
688.745	11.03
689.152	11.4
689.559	11.79
689.966	12.18
690.373	12.58
690.78	12.97
691.187	13.36
691.593	13.75
692	14.13
692.407	14.51
692.813	14.89
693.22	15.26
693.626	15.64
694.032	16
694.439	16.37
694.845	16.72
695.251	17.06
695.657	17.39
696.063	17.72
696.469	18.03
696.875	18.35
697.281	18.64
697.687	18.93
698.093	19.21
698.498	19.48
698.904	19.74
699.31	20
699.715	20.24
700.12	20.49
700.526	20.74
700.931	20.98
701.337	21.2
701.742	21.42
702.147	21.62
702.552	21.82
702.957	22.02
703.362	22.2
703.767	22.36
704.172	22.54
704.577	22.71
704.981	22.86
705.386	23.02
705.791	23.17
706.195	23.33
706.6	23.49
707.004	23.64
707.408	23.77
707.813	23.93
708.217	24.07
708.621	24.2
709.025	24.33
709.43	24.45
709.834	24.59
710.237	24.72
710.641	24.82
711.045	24.93
711.449	25.05
711.853	25.18
712.256	25.26
712.66	25.36
713.064	25.46
713.467	25.54
713.87	25.65
714.274	25.73
714.677	25.8
715.08	25.89
715.484	25.99
715.887	26.08
716.29	26.13
716.693	26.22
717.096	26.31
717.499	26.4
717.901	26.48
718.304	26.55
718.707	26.63
719.109	26.69
719.512	26.75
719.915	26.8
720.317	26.83
720.719	26.88
721.122	26.93
721.524	26.96
721.926	26.99
722.328	27.04
722.731	27.08
723.133	27.13
723.535	27.18
723.937	27.23
724.338	27.27
724.74	27.31
725.142	27.4
725.544	27.44
725.945	27.5
726.347	27.54
726.748	27.59
727.15	27.62
727.551	27.64
727.952	27.66
728.354	27.72
728.755	27.73
729.156	27.77
729.557	27.74
729.958	27.76
730.359	27.77
730.76	27.8
731.161	27.82
731.562	27.86
731.962	27.89
732.363	27.92
732.763	27.92
733.164	27.95
733.564	27.99
733.965	28.02
734.365	28.06
734.766	28.09
735.166	28.09
735.566	28.08
735.966	28.09
736.366	28.1
736.766	28.11
737.166	28.13
737.566	28.13
737.966	28.14
738.365	28.14
738.765	28.15
739.165	28.15
739.564	28.18
739.964	28.21
740.363	28.2
740.763	28.22
741.162	28.23
741.561	28.22
741.96	28.24
742.36	28.23
742.759	28.25
743.158	28.24
743.557	28.23
743.955	28.23
744.354	28.24
744.753	28.26
745.152	28.27
745.55	28.26
745.949	28.27
746.348	28.26
746.746	28.28
747.144	28.27
747.543	28.28
747.941	28.29
748.339	28.28
748.737	28.29
749.136	28.27
749.534	28.25
749.932	28.27
750.33	28.28
750.727	28.3
751.125	28.28
751.523	28.28
751.921	28.28
752.318	28.29
752.716	28.28
753.113	28.28
753.511	28.29
753.908	28.29
754.305	28.27
754.703	28.24
755.1	28.23
755.497	28.24
755.894	28.23
756.291	28.2
756.688	28.18
757.085	28.17
757.482	28.15
757.878	28.14
758.275	28.12
758.672	28.11
759.068	28.12
759.465	28.09
759.861	28.08
760.258	28.07
760.654	28.09
761.05	28.1
761.447	28.11
761.843	28.1
762.239	28.1
762.635	28.1
763.031	28.12
763.427	28.11
763.822	28.13
764.218	28.15
764.614	28.17
765.01	28.16
765.405	28.16
765.801	28.17
766.196	28.17
766.592	28.18
766.987	28.18
767.382	28.18
767.778	28.19
768.173	28.19
768.568	28.2
768.963	28.18
769.358	28.2
769.753	28.2
770.148	28.18
770.542	28.18
770.937	28.17
771.332	28.18
771.726	28.17
772.121	28.18
772.515	28.19
772.91	28.17
773.304	28.18
773.699	28.17
774.093	28.15
774.487	28.17
774.881	28.17
775.275	28.18
775.669	28.15
776.063	28.14
776.457	28.13
776.851	28.1
777.245	28.08
777.638	28.08
778.032	28.11
778.425	28.12
778.819	28.12
779.212	28.13
779.606	28.14
779.999	28.14
780.392	28.16
780.786	28.14
781.179	28.17
781.572	28.2
781.965	28.2
782.358	28.19
782.751	28.18
783.143	28.16
783.536	28.14
783.929	28.14
784.322	28.15
784.714	28.15
785.107	28.18
785.499	28.18
785.891	28.16
786.284	28.14
786.676	28.12
787.068	28.12
787.46	28.13
787.852	28.12
788.245	28.13
788.636	28.12
789.028	28.1
789.42	28.07
789.812	28.07
790.204	28.08
790.595	28.08
790.987	28.09
791.378	28.1
791.77	28.1
792.161	28.1
792.553	28.11
792.944	28.08
793.335	28.09
793.726	28.11
794.117	28.08
794.508	28.04
794.899	28.02
795.29	28.02
795.681	28
796.072	27.98
796.463	27.98
796.853	27.96
797.244	27.98
797.634	27.95
798.025	27.96
798.415	27.96
798.806	27.98
799.196	28.01
799.586	27.99
799.976	28
800.366	27.98
800.756	27.99
801.146	27.98
801.536	27.98
801.926	28
802.316	27.98
802.706	27.99
803.095	27.99
803.485	27.98
803.874	27.99
804.264	27.97
804.653	27.98
805.043	27.96
805.432	27.96
805.821	27.95
806.21	27.95
806.599	27.93
806.988	27.91
807.377	27.89
807.766	27.88
808.155	27.85
808.544	27.83
808.933	27.82
809.321	27.82
809.71	27.81
810.098	27.8
810.487	27.78
810.875	27.78
811.264	27.76
811.652	27.75
812.04	27.76
812.428	27.77
812.816	27.76
813.204	27.75
813.592	27.73
813.98	27.73
814.368	27.72
814.756	27.7
815.144	27.67
815.531	27.68
815.919	27.67
816.306	27.65
816.694	27.62
817.081	27.62
817.469	27.63
817.856	27.62
818.243	27.6
818.63	27.59
819.017	27.59
819.404	27.58
819.791	27.56
820.178	27.56
820.565	27.53
820.952	27.53
821.339	27.53
821.725	27.51
822.112	27.52
822.498	27.52
822.885	27.51
823.271	27.5
823.657	27.49
824.044	27.49
824.43	27.47
824.816	27.47
825.202	27.46
825.588	27.44
825.974	27.45
826.36	27.43
826.746	27.41
827.132	27.41
827.517	27.42
827.903	27.43
828.289	27.47
828.674	27.48
829.06	27.49
829.445	27.48
829.83	27.48
830.216	27.47
830.601	27.47
830.986	27.49
831.371	27.47
831.756	27.49
832.141	27.47
832.526	27.44
832.911	27.43
833.295	27.42
833.68	27.42
834.065	27.44
834.449	27.43
834.834	27.42
835.218	27.41
835.603	27.43
835.987	27.4
836.371	27.4
836.755	27.39
837.139	27.4
837.524	27.4
837.908	27.42
838.291	27.41
838.675	27.42
839.059	27.43
839.443	27.41
839.827	27.4
840.21	27.41
840.594	27.42
840.977	27.43
841.361	27.43
841.744	27.41
842.127	27.41
842.511	27.4
842.894	27.4
843.277	27.4
843.66	27.4
844.043	27.4
844.426	27.39
844.809	27.4
845.191	27.4
845.574	27.41
845.957	27.41
846.339	27.4
846.722	27.4
847.104	27.4
847.487	27.4
847.869	27.4
848.252	27.39
848.634	27.4
849.016	27.4
849.398	27.41
849.78	27.39
850.162	27.38
850.544	27.38
850.926	27.38
851.307	27.37
851.689	27.36
852.071	27.37
852.452	27.38
852.834	27.38
853.215	27.37
853.597	27.35
853.978	27.34
854.359	27.34
854.741	27.32
855.122	27.31
855.503	27.3
855.884	27.29
856.265	27.3
856.646	27.26
857.026	27.25
857.407	27.24
857.788	27.23
858.169	27.25
858.549	27.26
858.93	27.26
859.31	27.26
859.69	27.27
860.071	27.29
860.451	27.27
860.831	27.25
861.211	27.24
861.591	27.24
861.971	27.24
862.351	27.23
862.731	27.21
863.111	27.19
863.491	27.2
863.87	27.17
864.25	27.15
864.629	27.15
865.009	27.16
865.388	27.16
865.768	27.15
866.147	27.14
866.526	27.13
866.905	27.11
867.284	27.14
867.663	27.13
868.042	27.13
868.421	27.14
868.8	27.14
869.179	27.15
869.558	27.15
869.936	27.15
870.315	27.15
870.693	27.16
871.072	27.17
871.45	27.17
871.828	27.18
872.207	27.19
872.585	27.18
872.963	27.19
873.341	27.19
873.719	27.19
874.097	27.18
874.475	27.18
874.853	27.17
875.23	27.16
875.608	27.16
875.986	27.16
876.363	27.15
876.741	27.13
877.118	27.13
877.495	27.11
877.873	27.12
878.25	27.13
878.627	27.16
879.004	27.15
879.381	27.16
879.758	27.14
880.135	27.12
880.512	27.11
880.889	27.13
881.265	27.11
881.642	27.12
882.019	27.14
882.395	27.13
882.772	27.12
883.148	27.11
883.524	27.1
883.901	27.12
884.277	27.12
884.653	27.13
885.029	27.12
885.405	27.14
885.781	27.14
886.157	27.13
886.532	27.13
886.908	27.12
887.284	27.14
887.659	27.13
888.035	27.11
888.411	27.1
888.786	27.1
889.161	27.1
889.537	27.1
889.912	27.07
890.287	27.08
890.662	27.07
891.037	27.07
891.412	27.06
891.787	27.05
892.162	27.05
892.536	27.05
892.911	27.05
893.286	27.05
893.66	27.03
894.035	27.04
894.409	27.01
894.784	27.01
895.158	27.01
895.532	27.01
895.906	27.02
896.281	27.01
896.655	27.01
897.029	27
897.402	27
897.776	27.02
898.15	27.02
898.524	27.02
898.898	26.99
899.271	26.99
899.645	26.99
900.018	26.99
900.392	27
900.765	27.01
901.138	27
901.511	26.98
901.884	26.99
902.258	27
902.631	27
903.003	27.03
903.376	27.03
903.749	27.01
904.122	27.04
904.495	27.05
904.867	27.07
905.24	27.08
905.612	27.08
905.985	27.06
906.357	27.05
906.729	27.05
907.102	27.06
907.474	27.06
907.846	27.07
908.218	27.04
908.59	27.04
908.962	27.03
909.334	27.03
909.705	27.04
910.077	27.06
910.449	27.06
910.82	27.07
911.192	27.07
911.563	27.07
911.935	27.05
912.306	27.06
912.677	27.04
913.048	27.04
913.419	27.03
913.79	27.02
914.161	27.01
914.532	27.03
914.903	27.04
915.274	27.03
915.645	27.04
916.015	27.04
916.386	27.03
916.756	27.05
917.127	27.06
917.497	27.07
917.868	27.07
918.238	27.05
918.608	27.05
918.978	27.04
919.348	27.04
919.718	27.02
920.088	27.06
920.458	27.04
920.828	27.04
921.198	27.04
921.567	27.03
921.937	27.05
922.306	27.06
922.676	27.04
923.045	27.03
923.415	27.02
923.784	27.04
924.153	27.04
924.522	27.07
924.891	27.07
925.26	27.06
925.629	27.07
925.998	27.07
926.367	27.07
926.736	27.1
927.104	27.14
927.473	27.14
927.842	27.12
928.21	27.12
928.578	27.1
928.947	27.1
929.315	27.08
929.683	27.06
930.051	27.07
930.42	27.09
930.788	27.06
931.156	27.04
931.523	27.05
931.891	27.09
932.259	27.08
932.627	27.09
932.994	27.08
933.362	27.11
933.729	27.12
934.097	27.11
934.464	27.11
934.831	27.1
935.199	27.11
935.566	27.11
935.933	27.02
936.3	27.03
936.667	26.99
937.034	26.99
937.401	26.99
937.767	26.98
938.134	26.99
938.501	26.97
938.867	27.01
939.234	26.99
939.6	27
939.967	27.06
940.333	27.03
940.699	27.1
941.065	27.1
941.431	27.13
941.798	27.09
942.163	27.09
942.529	27.06
942.895	27.04
943.261	27.01
943.627	26.97
943.992	26.92
944.358	26.92
944.723	26.88
945.089	26.8
945.454	26.77
945.82	26.78
946.185	26.76
946.55	26.75
946.915	26.74
947.28	26.74
947.645	26.78
948.01	26.83
948.375	26.81
948.74	26.82
949.104	26.88
949.469	26.88
949.834	26.87
950.198	26.85
950.562	26.8
950.927	26.76
951.291	26.7
951.655	26.65
952.02	26.63
952.384	26.64
952.748	26.63
953.112	26.59
953.476	26.55
953.839	26.54
954.203	26.53
954.567	26.53
954.931	26.53
955.294	26.56
955.658	26.6
956.021	26.58
956.385	26.53
956.748	26.52
957.111	26.54
957.474	26.58
957.837	26.53
958.2	26.52
958.563	26.52
958.926	26.48
959.289	26.5
959.652	26.43
960.015	26.42
960.377	26.42
960.74	26.4
961.102	26.38
961.465	26.39
961.827	26.43
962.189	26.41
962.552	26.41
962.914	26.43
963.276	26.44
963.638	26.47
964	26.45
964.362	26.48
964.724	26.5
965.085	26.48
965.447	26.47
965.809	26.45
966.17	26.46
966.532	26.5
966.893	26.52
967.255	26.5
967.616	26.49
967.977	26.5
968.338	26.47
968.699	26.48
969.061	26.52
969.421	26.52
969.782	26.58
970.143	26.6
970.504	26.58
970.865	26.63
971.225	26.59
971.586	26.6
971.946	26.63
972.307	26.7
972.667	26.65
973.027	26.67
973.388	26.64
973.748	26.59
974.108	26.62
974.468	26.63
974.828	26.63
975.188	26.65
975.548	26.63
975.907	26.65
976.267	26.57
976.627	26.65
976.986	26.61
977.346	26.63
977.705	26.6
978.064	26.59
978.424	26.62
978.783	26.58
979.142	26.61
979.501	26.65
979.86	26.65
980.219	26.7
980.578	26.67
980.937	26.67
981.296	26.66
981.654	26.66
982.013	26.66
982.371	26.65
982.73	26.64
983.088	26.65
983.447	26.64
983.805	26.67
984.163	26.67
984.521	26.7
984.879	26.72
985.237	26.74
985.595	26.86
985.953	26.87
986.311	26.86
986.669	26.87
987.026	26.89
987.384	26.91
987.741	26.92
988.099	27
988.456	26.93
988.814	26.9
989.171	26.95
989.528	26.86
989.885	26.89
990.242	26.89
990.599	26.95
990.956	26.99
991.313	27.04
991.67	27
992.027	27
992.383	27.07
992.74	27.16
993.096	27.09
993.453	27.13
993.809	27.19
994.165	27.23
994.522	27.2
994.878	27.15
995.234	27.06
995.59	27.11
995.946	27.03
996.302	27.08
996.658	27.11
997.013	27.2
997.369	27.23
997.725	27.23
998.08	27.32
998.436	27.38
998.791	27.42
999.147	27.51
999.502	27.54
999.857	27.64
1000.212	27.52
1000.567	27.42
1000.922	27.39
1001.277	27.35
1001.632	27.28
1001.987	27.26
1002.342	27.14
1002.696	27.18
1003.051	27.21
1003.406	27.2
1003.76	27.11
1004.114	27.17
1004.469	27.27
1004.823	27.44
1005.177	27.46
1005.531	27.58
1005.885	27.56
1006.239	27.65
1006.593	27.71
1006.947	27.77
1007.301	27.79
1007.655	27.87
1008.008	28.02
1008.362	28.05
1008.715	27.93
1009.069	28.02
1009.422	27.98
1009.776	27.84
1010.129	27.85
1010.482	27.8
1010.835	27.74
1011.188	27.79
1011.541	27.81
1011.894	27.87
1012.247	27.84
1012.6	27.77
1012.952	27.65
1013.305	27.68
1013.657	27.91
1014.01	28.03
1014.362	28.09
1014.715	28.24
1015.067	28.2
1015.419	28.27
1015.771	28.17
1016.123	28.12
1016.475	28.27
1016.827	28.32
1017.179	28.45
1017.531	28.42
1017.883	28.31
1018.234	28.3
1018.586	28.33
1018.938	28.65
1019.289	28.55
1019.64	28.68
1019.992	28.81
1020.343	28.77
1020.694	28.82
1021.045	28.62
1021.396	28.63
1021.747	28.86
1022.098	28.93
1022.449	28.72
1022.8	28.45
1023.151	28.52
1023.501	28.42
1023.852	28.47
1024.202	28.56
1024.553	28.59
1024.903	28.77
1025.253	28.89
1025.604	28.92
1025.954	28.63
1026.304	28.51
1026.654	28.61
1027.004	28.61
1027.354	28.58
1027.703	28.45
1028.053	28.52
1028.403	28.51
1028.753	28.36
1029.102	28.47
1029.452	28.41
1029.801	28.8
1030.15	29.05
1030.499	28.93
897.758	379.34
901.051	379.76
904.343	376.58
907.636	387.51
910.928	378.32
914.22	376.2
917.511	374.18
920.803	357.75
924.094	355.12
927.384	346.46
930.675	330.22
933.965	328.86
937.255	309.89
940.544	301.26
943.834	283.9
947.123	280.71
950.411	267.13
953.7	261.11
956.988	249.9
960.276	240.78
963.563	236.54
966.851	233.08
970.138	227.94
973.424	222.8
976.711	222.34
979.997	211.87
983.283	210.19
986.568	205.98
989.853	201.69
993.138	196.84
996.423	188.74
999.708	186.11
1002.992	181.39
1006.275	175.03
1009.559	172
1012.842	167.19
1016.125	165.17
1019.408	162.5
1022.69	160.41
1025.972	154.76
1029.254	153.07
1032.536	151.85
1035.817	147.11
1039.098	145.06
1042.379	142.41
1045.659	142.56
1048.939	138.67
1052.219	136.07
1055.498	133.1
1058.778	130.31
1062.057	128.86
1065.335	126.13
1068.614	125.1
1071.892	123.72
1075.17	122.04
1078.447	120.43
1081.724	117.88
1085.001	117.81
1088.278	115.42
1091.554	113.08
1094.83	113.45
1098.106	111.67
1101.382	111.69
1104.657	110.51
1107.932	108.92
1111.206	108.87
1114.481	106.79
1117.755	106.45
1121.029	104.71
1124.302	104.23
1127.575	104.09
1130.848	103
1134.121	102.41
1137.393	101.28
1140.665	99.41
1143.937	99
1147.208	98.41
1150.48	97.58
1153.75	96.61
1157.021	95.77
1160.291	95.28
1163.561	94.05
1166.831	93.23
1170.101	92.84
1173.37	93.01
1176.639	93.37
1179.907	92.14
1183.176	91.33
1186.444	91.39
1189.711	91.39
1192.979	90.78
1196.246	90.44
1199.513	91
1202.78	90.28
1206.046	90.19
1209.312	88.91
1212.578	89.12
1215.843	90.49
1219.108	89.95
1222.373	91.44
1225.638	91.75
1228.902	92.57
1232.166	93.07
1235.43	92.64
1238.693	94.31
1241.956	94.91
1245.219	96.81
1248.482	96.59
1251.744	96.02
1255.006	96.27
1258.268	94.88
1261.529	94.51
1264.79	94.59
1268.051	93.68
1271.312	93.31
1274.572	91.94
1277.832	90.78
1281.092	89.08
1284.351	88.3
1287.61	88.79
1290.869	87.15
1294.128	86.48
1297.386	86.03
1300.644	85.18
1303.902	84.98
1307.159	84.61
1310.416	84.29
1313.673	84.11
1316.93	84.91
1320.186	85.01
1323.442	84.67
1326.697	86.55
1329.953	85.97
1333.208	86.22
1336.463	86.9
1339.717	87.6
1342.972	88.25
1346.226	89.33
1349.479	89.74
1352.733	89.95
1355.986	90.52
1359.238	90.76
1362.491	90.63
1365.743	90.63
1368.995	91.64
1372.247	91.18
1375.498	90.35
1378.749	90.68
1382	89.83
1385.251	89.56
1388.501	89.03
1391.751	88.23
1395	87.61
1398.25	86.37
1401.499	86.42
1404.748	85.1
1407.996	84.56
1411.244	84.39
1414.492	83.31
1417.74	81.52
1420.987	80.76
1424.234	80.25
1427.481	78.84
1430.728	78.61
1433.974	78.29
1437.22	77.44
1440.465	77.69
1443.711	76.05
1446.956	74.92
1450.201	74.93
1453.445	74.44
1456.689	73.92
1459.933	72.18
1463.177	72.3
1466.42	71.62
1469.663	70.3
1472.906	69.86
1476.148	68.19
1479.391	67.87
1482.633	68.12
1485.874	66.87
1489.115	66.65
1492.356	66.07
1495.597	66.16
1498.838	65.52
1502.078	64.84
1505.318	64.98
1508.557	65
1511.797	64.82
1515.036	64.35
1518.274	64.11
1521.513	63.75
1524.751	63.3
1527.989	63.58
1531.227	63.64
1534.464	63
1537.701	63.22
1540.938	62.85
1544.174	62.98
1547.41	62.5
1550.646	62.36
1553.882	62.47
1557.117	62.23
1560.352	62.23
1563.587	61.81
1566.821	61.37
1570.055	61.05
1573.289	60.86
1576.523	60.86
1579.756	60.12
1582.989	60.3
1586.222	60.6
1589.454	59.6
1592.686	60.45
1595.918	60.19
1599.15	60
1602.381	59.89
1605.612	60.36
1608.843	60.31
1612.073	60.03
1615.303	60.09
1618.533	60.39
1621.762	60.52
1624.992	61.63
1628.221	60.84
1631.449	60.74
1634.678	60.53
1637.906	60.94
1641.134	60.83
1644.361	60.73
1647.588	61.24
1650.815	61.09
1654.042	61.16
1657.269	60.53
1660.495	60.45
1663.72	60.37
1666.946	60.56
1670.171	61.03
1673.396	60.72
1676.621	61.17
1679.845	61.1
1683.069	61.46
1686.293	61.45
1689.517	61.52
1692.74	61.95
1695.963	61.81
1699.185	62.08
1702.408	62.84
1705.63	62.78
1708.852	63.01
1712.073	62.7
1715.294	62.95
1718.515	63.14
1721.736	63.45
1724.956	63.47
1728.176	63.56
1731.396	63.6
1734.616	63.53
1737.835	63.6
1741.054	63
1744.272	63.59
1747.491	63.8
1750.709	63.96
1753.927	63.45
1757.144	63.46
1760.361	63.33
1763.578	63.45
1766.795	63.1
1770.011	64.09
1773.227	63.43
1776.443	64.11
1779.658	63.78
1782.874	64.2
1786.089	63.57
1789.303	64.02
1792.518	64.32
1795.732	64.67
1798.945	65.12
1802.159	65.81
1805.372	65.44
1808.585	66.29
1811.797	66.69
1815.01	67.28
1818.222	67.37
1821.434	67.71
1824.645	68
1827.856	69.2
1831.067	68.85
1834.278	69.61
1837.488	69.7
1840.698	69.56
1843.908	69.46
1847.117	69.46
1850.326	69.77
1853.535	69.63
1856.744	70.67
1859.952	70.17
1863.16	69.25
1866.368	68.66
1869.575	67.73
1872.782	67.33
1875.989	66.65
1879.196	66.5
1882.402	65.77
1885.608	65.35
1888.814	65.01
1892.019	64.43
1895.224	64.36
1898.429	64.31
1901.634	65
1904.838	65.36
1908.042	65.25
1911.246	65.54
1914.449	65.63
1917.652	66.05
1920.855	65.67
1924.058	65.46
1927.26	65.93
1930.462	65.03
1933.664	65.6
1936.865	65.49
1940.066	64.95
1943.267	64.82
1946.467	65.22
1949.668	65.77
1952.868	66.8
1956.067	67.15
1959.267	67.03
1962.466	67.02
1965.665	67.93
1968.863	68.42
1972.061	68.57
1975.259	68.69
1978.457	70
1981.654	70.73
1984.852	70.62
1988.048	70.13
1991.245	71.53
1994.441	72.46
1997.637	74.09
2000.833	74.94
2004.028	74.84
2007.223	76.15
2010.418	77.3
2013.613	78.19
2016.807	79.38
2020.001	80.18
2023.194	81.67
2026.388	83.11
2029.581	85.17
2032.774	85.13
2035.966	87.68
2039.158	88.86
2042.35	90.22
2045.542	90.41
2048.733	91.91
2051.924	92.02
2055.115	93.32
2058.306	93.51
2061.496	93.84
2064.686	94.02
2067.875	94.52
2071.065	94.15
2074.254	94.01
2077.442	95.66
2080.631	96.36
2083.819	97.04
2087.007	97.82
2090.195	99.27
2093.382	100.52
2096.569	100.1
2099.756	102.08
2102.942	103.11
2106.128	103.83
2109.314	107.05
2112.5	106.19
2115.685	108.44
2118.87	108.24
2122.055	111.45
2125.239	111.74
2128.424	112.31
2131.608	113.35
2134.791	114.51
2137.974	114.92
2141.157	115.3
2144.34	114.47
2147.523	115.31
2150.705	115.49
2153.887	117.18
2157.068	116.7
2160.25	116.75
2163.431	117.94
2166.611	119.06
2169.792	120.48
2172.972	121.3
2176.152	122.67
2179.331	123.84
2182.511	126.47
2185.69	127.16
2188.868	128.65
2192.047	130.34
2195.225	133.63
2198.403	134.3
2201.58	137.59
2204.758	139.89
2207.935	142.62
2211.111	144.92
2214.288	146.34
2217.464	146.74
2220.64	148.53
2223.815	149.69
2226.991	154.17
2230.166	153.65
2233.34	158.05
2236.515	160.59
2239.689	160.88
2242.863	162.1
2246.036	166.39
2249.209	167.04
2252.382	168.85
2255.555	173.99
2258.727	176.96
2261.9	178.32
2265.071	180.79
2268.243	182.55
2271.414	184.38
2274.585	188.68
2277.756	190.55
2280.926	193.63
2284.096	197.66
2287.266	202.03
2290.436	204.75
2293.605	208.34
2296.774	212.45
2299.942	217.67
2303.111	222.91
2306.279	226.18
2309.447	228.02
2312.614	235.12
2315.781	239.06
2318.948	248.03
2322.115	246.68
2325.281	258.53
2328.447	253.76
2331.613	263.78
2334.779	263.77
2337.944	269.27
2341.109	272.98
2344.274	285.45
2347.438	292.46
2350.602	292.29
2353.766	304.53
2356.929	308.87
2360.092	309.81
2363.255	329.75
2366.418	331.53
2369.58	336.16
2372.742	356.12
2375.904	365.07
2379.066	361.63
2382.227	358.26
2385.388	388.08
2388.548	387.5
2391.709	389.24
2394.869	432.27
2398.029	414.53
2401.188	425.73
2404.347	423.43
2407.506	421.6
2410.665	430.85
2413.823	455.1
2416.981	481.22
2420.139	465.97
2423.296	462.78
2426.453	481.72
2429.61	464.83
2432.767	486.62
2435.923	481.27
2439.079	522.3
2442.235	534.01
2445.391	530.53
2448.546	522.25
2451.701	507.93
2454.855	508.67
2458.009	528.11
2461.163	556.96
2464.317	571.01
2467.471	587.04
2470.624	594.65
2473.777	580.49
2476.929	564.5
2480.082	546.31
2483.234	544.87
2486.385	574.75
2489.537	579.3
2492.688	608.15
2495.839	590.02
2498.989	578.18
2502.14	580.91
2505.29	578.63
2508.439	593.56
2511.589	590.38
2514.738	649.83
2517.887	633.76
2521.035	669.37
2524.183	666.32
2527.331	672.07
2530.479	668.46
2533.627	674.79
