Data from N_1_DIV_OH_2n_Splice17_12-23-06-356.txt Node
Date: Sat Mar 07 12:23:06 EST 2020
User: sa697716
Spectrometer: NQ5500242
Trigger mode: 0
Integration Time (sec): 1.450000E-1
Scans to average: 20
Nonlinearity correction enabled: false
Boxcar width: 5
Storing dark spectrum: false
XAxis mode: Wavelengths
Number of Pixels in Spectrum: 512
>>>>>Begin Spectral Data<<<<<
187.83	139.36
188.298	127.04
188.766	116.62
189.233	104.74
189.701	104.57
190.169	105.62
190.636	122.41
191.104	148.9
191.571	289.2
192.039	143.79
192.506	323.52
192.974	94.02
193.441	-6.73
193.908	61.9
194.375	102.72
194.842	38.37
195.31	48.7
195.777	106.94
196.244	37.72
196.711	33.22
197.177	32.39
197.644	32.81
198.111	31.92
198.578	32.71
199.045	32.47
199.511	31.91
199.978	32
200.445	32.03
200.911	31.79
201.378	31.65
201.844	31.61
202.31	31.65
202.777	31.8
203.243	32
203.709	31.6
204.176	31.24
204.642	31.09
205.108	31.3
205.574	30.99
206.04	30.82
206.506	30.64
206.972	30.85
207.438	30.57
207.903	30.05
208.369	29.44
208.835	29.03
209.301	28.59
209.766	28.14
210.232	27.38
210.697	26.84
211.163	26.49
211.628	25.92
212.094	25.19
212.559	24.83
213.024	24.53
213.49	24.06
213.955	23.55
214.42	23.1
214.885	22.69
215.35	22.2
215.815	21.41
216.28	20.23
216.745	19.01
217.21	17.85
217.675	16.81
218.14	15.87
218.604	15.18
219.069	14.59
219.534	14.08
219.998	13.59
220.463	13.24
220.927	12.89
221.392	12.68
221.856	12.51
222.32	12.39
222.785	12.24
223.249	12.13
223.713	12.01
224.177	11.92
224.642	11.83
225.106	11.72
225.57	11.59
226.034	11.51
226.497	11.42
226.961	11.31
227.425	11.22
227.889	11.15
228.353	11.07
228.816	10.98
229.28	10.88
229.744	10.78
230.207	10.7
230.671	10.63
231.134	10.54
231.597	10.47
232.061	10.42
232.524	10.34
232.987	10.23
233.45	10.17
233.914	10.1
234.377	10.03
234.84	9.95
235.303	9.9
235.766	9.83
236.229	9.77
236.691	9.69
237.154	9.63
237.617	9.56
238.08	9.5
238.542	9.41
239.005	9.34
239.468	9.28
239.93	9.22
240.393	9.16
240.855	9.09
241.317	9.01
241.78	8.95
242.242	8.86
242.704	8.81
243.166	8.75
243.629	8.7
244.091	8.63
244.553	8.57
245.015	8.51
245.477	8.44
245.939	8.39
246.4	8.32
246.862	8.28
247.324	8.23
247.786	8.18
248.247	8.12
248.709	8.06
249.17	8.01
249.632	7.98
250.093	7.93
250.555	7.9
251.016	7.86
251.477	7.83
251.939	7.79
252.4	7.76
252.861	7.73
253.322	7.69
253.783	7.66
254.244	7.63
254.705	7.58
255.166	7.53
255.627	7.49
256.088	7.46
256.549	7.43
257.009	7.38
257.47	7.33
257.931	7.3
258.391	7.25
258.852	7.22
259.312	7.19
259.773	7.18
260.233	7.16
260.694	7.14
261.154	7.1
261.614	7.08
262.074	7.06
262.534	7.04
262.994	7.02
263.455	7.02
263.915	7
264.374	6.99
264.834	6.97
265.294	6.94
265.754	6.93
266.214	6.92
266.673	6.91
267.133	6.9
267.593	6.89
268.052	6.88
268.512	6.88
268.971	6.87
269.431	6.86
269.89	6.85
270.349	6.85
270.809	6.84
271.268	6.83
271.727	6.82
272.186	6.81
272.645	6.8
273.104	6.78
273.563	6.77
274.022	6.76
274.481	6.76
274.94	6.75
275.399	6.73
275.857	6.72
276.316	6.72
276.775	6.71
277.233	6.69
277.692	6.68
278.15	6.67
278.609	6.66
279.067	6.65
279.525	6.64
279.984	6.62
280.442	6.61
280.9	6.59
281.358	6.59
281.816	6.58
282.274	6.56
282.732	6.55
283.19	6.54
283.648	6.52
284.106	6.5
284.564	6.49
285.021	6.49
285.479	6.48
285.937	6.47
286.394	6.45
286.852	6.43
287.309	6.43
287.767	6.41
288.224	6.39
288.682	6.39
289.139	6.38
289.596	6.37
290.053	6.35
290.511	6.34
290.968	6.33
291.425	6.32
291.882	6.32
292.339	6.31
292.796	6.3
293.252	6.3
293.709	6.29
294.166	6.28
294.623	6.27
295.079	6.27
295.536	6.26
295.992	6.26
296.449	6.26
296.905	6.24
297.362	6.24
297.818	6.24
298.274	6.24
298.731	6.23
299.187	6.22
299.643	6.22
300.099	6.21
300.555	6.2
301.011	6.2
301.467	6.2
301.923	6.19
302.379	6.19
302.835	6.18
303.291	6.17
303.746	6.17
304.202	6.17
304.658	6.16
305.113	6.16
305.569	6.16
306.024	6.15
306.479	6.14
306.935	6.13
307.39	6.12
307.845	6.11
308.301	6.11
308.756	6.09
309.211	6.09
309.666	6.09
310.121	6.08
310.576	6.07
311.031	6.07
311.486	6.07
311.94	6.07
312.395	6.06
312.85	6.06
313.305	6.06
313.759	6.06
314.214	6.06
314.668	6.05
315.123	6.05
315.577	6.05
316.032	6.04
316.486	6.04
316.94	6.03
317.394	6.01
317.849	6
318.303	5.99
318.757	5.97
319.211	5.97
319.665	5.97
320.119	5.96
320.572	5.94
321.026	5.93
321.48	5.92
321.934	5.91
322.387	5.91
322.841	5.9
323.295	5.9
323.748	5.89
324.202	5.88
324.655	5.88
325.108	5.87
325.562	5.87
326.015	5.87
326.468	5.87
326.921	5.87
327.374	5.87
327.827	5.87
328.28	5.86
328.733	5.85
329.186	5.85
329.639	5.85
330.092	5.85
330.545	5.85
330.997	5.84
331.45	5.84
331.903	5.84
332.355	5.84
332.808	5.84
333.26	5.84
333.713	5.84
334.165	5.83
334.617	5.82
335.069	5.82
335.522	5.83
335.974	5.82
336.426	5.81
336.878	5.8
337.33	5.79
337.782	5.78
338.234	5.79
338.686	5.78
339.137	5.79
339.589	5.77
340.041	5.77
340.493	5.75
340.944	5.74
341.396	5.73
341.847	5.72
342.299	5.71
342.75	5.69
343.201	5.67
343.653	5.66
344.104	5.64
344.555	5.63
345.006	5.61
345.457	5.62
345.908	5.61
346.359	5.61
346.81	5.6
347.261	5.59
347.712	5.59
348.163	5.59
348.613	5.59
349.064	5.58
349.515	5.59
349.965	5.58
350.416	5.57
350.866	5.56
351.317	5.55
351.767	5.56
352.217	5.55
352.668	5.55
353.118	5.54
353.568	5.53
354.018	5.54
354.468	5.53
354.918	5.53
355.368	5.54
355.818	5.54
356.268	5.55
356.718	5.54
357.168	5.54
357.617	5.54
358.067	5.53
358.517	5.54
358.966	5.54
359.416	5.54
359.865	5.53
360.315	5.51
360.764	5.51
361.213	5.5
361.663	5.49
362.112	5.49
362.561	5.5
363.01	5.5
363.459	5.48
363.908	5.47
364.357	5.47
364.806	5.47
365.255	5.47
365.703	5.48
366.152	5.47
366.601	5.48
367.05	5.48
367.498	5.47
367.947	5.48
368.395	5.48
368.844	5.48
369.292	5.48
369.74	5.47
370.189	5.47
370.637	5.46
371.085	5.45
371.533	5.45
371.981	5.44
372.429	5.42
372.877	5.41
373.325	5.41
373.773	5.4
374.221	5.39
374.669	5.39
375.116	5.38
375.564	5.38
376.012	5.38
376.459	5.38
376.907	5.38
377.354	5.38
377.801	5.39
378.249	5.38
378.696	5.39
379.143	5.39
379.591	5.39
380.038	5.4
380.485	5.4
380.932	5.41
381.379	5.4
381.826	5.41
382.273	5.42
382.72	5.42
383.166	5.42
383.613	5.43
384.06	5.42
384.506	5.42
384.953	5.43
385.4	5.44
385.846	5.45
386.292	5.46
386.739	5.46
387.185	5.46
387.631	5.49
388.078	5.5
388.524	5.51
388.97	5.54
389.416	5.56
389.862	5.57
390.308	5.58
390.754	5.59
391.2	5.61
391.645	5.63
392.091	5.65
392.537	5.66
392.983	5.67
393.428	5.68
393.874	5.68
394.319	5.69
394.765	5.7
395.21	5.71
395.655	5.74
396.101	5.76
396.546	5.77
396.991	5.79
397.436	5.8
397.881	5.82
398.326	5.83
398.771	5.85
399.216	5.87
399.661	5.89
400.106	5.9
400.551	5.9
400.995	5.9
401.44	5.91
401.885	5.91
402.329	5.93
402.774	5.94
403.218	5.96
403.663	5.97
404.107	5.97
404.551	5.97
404.995	5.98
405.44	5.98
405.884	5.97
406.328	5.98
406.772	5.98
407.216	5.98
407.66	5.99
408.104	5.97
408.547	5.98
408.991	6
409.435	5.99
409.879	5.99
410.322	6.01
410.766	6.03
411.209	6.04
411.653	6.06
412.096	6.06
412.54	6.07
412.983	6.08
413.426	6.1
413.869	6.11
414.312	6.13
414.756	6.15
415.199	6.15
415.642	6.15
416.085	6.15
416.527	6.15
416.97	6.14
417.413	6.14
417.856	6.15
418.298	6.14
418.741	6.14
419.184	6.14
419.626	6.14
420.069	6.15
420.511	6.16
420.953	6.16
421.396	6.17
421.838	6.19
422.28	6.2
422.722	6.2
423.164	6.2
423.606	6.21
424.048	6.23
424.49	6.23
424.932	6.23
425.374	6.21
425.816	6.19
426.258	6.19
426.699	6.19
427.141	6.18
427.582	6.19
428.024	6.21
428.465	6.21
428.907	6.2
429.348	6.19
429.789	6.21
430.231	6.23
430.672	6.25
431.113	6.27
431.554	6.27
431.995	6.29
432.436	6.3
432.877	6.31
433.318	6.33
433.759	6.35
434.2	6.38
434.64	6.4
435.081	6.41
435.522	6.43
435.962	6.45
436.403	6.47
436.843	6.49
437.284	6.49
437.724	6.49
438.164	6.5
438.604	6.5
439.045	6.51
439.485	6.52
439.925	6.52
440.365	6.52
440.805	6.52
441.245	6.53
441.685	6.54
442.125	6.54
442.564	6.54
443.004	6.54
443.444	6.57
443.883	6.57
444.323	6.55
444.762	6.56
445.202	6.56
445.641	6.57
446.081	6.58
446.52	6.58
446.959	6.61
447.398	6.63
447.837	6.65
448.276	6.63
448.716	6.63
449.154	6.66
449.593	6.67
450.032	6.67
450.471	6.66
450.91	6.66
451.349	6.67
451.787	6.66
452.226	6.64
452.664	6.64
453.103	6.64
453.541	6.65
453.98	6.65
454.418	6.64
454.856	6.63
455.295	6.63
455.733	6.61
456.171	6.59
456.609	6.59
457.047	6.58
457.485	6.56
457.923	6.56
458.361	6.55
458.798	6.55
459.236	6.54
459.674	6.54
460.111	6.53
460.549	6.55
460.987	6.56
461.424	6.57
461.862	6.57
462.299	6.58
462.736	6.59
463.173	6.58
463.611	6.58
464.048	6.59
464.485	6.6
464.922	6.61
465.359	6.61
465.796	6.61
466.233	6.59
466.67	6.6
467.106	6.59
467.543	6.59
467.98	6.58
468.416	6.57
468.853	6.58
469.29	6.58
469.726	6.57
470.162	6.56
470.599	6.55
471.035	6.55
471.471	6.53
471.907	6.52
472.344	6.52
472.78	6.53
473.216	6.51
473.652	6.51
474.088	6.49
474.523	6.5
474.959	6.49
475.395	6.47
475.831	6.46
476.266	6.47
476.702	6.46
477.138	6.46
477.573	6.45
478.008	6.46
478.444	6.45
478.879	6.44
479.314	6.43
479.75	6.41
480.185	6.41
480.62	6.4
481.055	6.39
481.49	6.39
481.925	6.38
482.36	6.38
482.795	6.37
483.229	6.36
483.664	6.37
484.099	6.36
484.534	6.36
484.968	6.37
485.403	6.37
485.837	6.37
486.271	6.37
486.706	6.37
487.14	6.37
487.574	6.38
488.009	6.38
488.443	6.38
488.877	6.4
489.311	6.41
489.745	6.43
490.179	6.45
490.613	6.47
491.046	6.49
491.48	6.51
491.914	6.53
492.348	6.55
492.781	6.58
493.215	6.61
493.648	6.64
494.082	6.67
494.515	6.69
494.948	6.72
495.382	6.75
495.815	6.79
496.248	6.83
496.681	6.87
497.114	6.92
497.547	6.96
497.98	7.01
498.413	7.06
498.846	7.11
499.279	7.16
499.711	7.22
500.144	7.29
500.577	7.36
501.009	7.43
501.442	7.5
501.874	7.58
502.306	7.66
502.739	7.75
503.171	7.84
503.603	7.92
504.036	8.03
504.468	8.12
504.9	8.22
505.332	8.32
505.764	8.43
506.196	8.55
506.627	8.66
507.059	8.79
507.491	8.9
507.923	9.04
508.354	9.19
508.786	9.33
509.217	9.48
509.649	9.64
510.08	9.81
510.512	9.97
510.943	10.14
511.374	10.3
511.805	10.48
512.237	10.67
512.668	10.85
513.099	11.02
513.53	11.21
513.961	11.4
514.391	11.61
514.822	11.81
515.253	12.01
515.684	12.22
516.114	12.44
516.545	12.66
516.975	12.88
517.406	13.1
517.836	13.32
518.267	13.56
518.697	13.76
519.127	13.97
519.558	14.18
519.988	14.39
520.418	14.59
520.848	14.79
521.278	14.98
521.708	15.22
522.138	15.41
522.567	15.61
522.997	15.78
523.427	15.97
523.857	16.15
524.286	16.32
524.716	16.5
525.145	16.67
525.575	16.83
526.004	16.99
526.433	17.11
526.863	17.25
527.292	17.38
527.721	17.51
528.15	17.64
528.579	17.77
529.008	17.9
529.437	18.01
529.866	18.11
530.295	18.22
530.724	18.31
531.152	18.4
531.581	18.49
532.01	18.59
532.438	18.67
532.867	18.74
533.295	18.79
533.723	18.85
534.152	18.91
534.58	18.98
535.008	19.03
535.436	19.08
535.865	19.12
536.293	19.16
536.721	19.2
537.149	19.25
537.576	19.29
538.004	19.34
538.432	19.39
538.86	19.43
539.287	19.46
539.715	19.5
540.143	19.54
540.57	19.59
540.998	19.61
541.425	19.63
541.852	19.66
542.28	19.7
542.707	19.71
543.134	19.74
543.561	19.76
543.988	19.79
544.415	19.81
544.842	19.81
545.269	19.83
545.696	19.85
546.123	19.86
546.549	19.88
546.976	19.87
547.403	19.9
547.829	19.91
548.256	19.91
548.682	19.92
549.108	19.93
549.535	19.95
549.961	19.96
550.387	19.97
550.813	19.98
551.24	19.97
551.666	19.97
552.092	19.96
552.518	19.96
552.943	19.94
553.369	19.91
553.795	19.88
554.221	19.86
554.646	19.82
555.072	19.8
555.498	19.76
555.923	19.72
556.349	19.69
556.774	19.64
557.199	19.58
557.625	19.52
558.05	19.47
558.475	19.4
558.9	19.34
559.325	19.28
559.75	19.2
560.175	19.12
560.6	19.04
561.025	18.95
561.449	18.87
561.874	18.78
562.299	18.69
562.723	18.6
563.148	18.5
563.572	18.4
563.997	18.29
564.421	18.19
564.846	18.08
565.27	17.97
565.694	17.87
566.118	17.76
566.542	17.64
566.966	17.54
567.39	17.42
567.814	17.31
568.238	17.19
568.662	17.08
569.086	16.98
569.509	16.87
569.933	16.76
570.357	16.65
570.78	16.56
571.204	16.45
571.627	16.35
572.05	16.24
572.474	16.16
572.897	16.07
573.32	15.97
573.743	15.88
574.166	15.78
574.589	15.7
575.012	15.6
575.435	15.51
575.858	15.43
576.281	15.34
576.704	15.25
577.126	15.18
577.549	15.09
577.972	15.01
578.394	14.93
578.817	14.86
579.239	14.79
579.661	14.73
580.084	14.67
580.506	14.62
580.928	14.56
581.35	14.5
581.772	14.44
582.194	14.38
582.616	14.33
583.038	14.29
583.46	14.22
583.882	14.16
584.303	14.11
584.725	14.04
585.147	13.98
585.568	13.94
585.99	13.89
586.411	13.84
586.833	13.79
587.254	13.73
587.675	13.68
588.096	13.63
588.518	13.6
588.939	13.55
589.36	13.51
589.781	13.47
590.202	13.43
590.623	13.4
591.043	13.36
591.464	13.33
591.885	13.3
592.305	13.28
592.726	13.27
593.147	13.24
593.567	13.21
593.987	13.19
594.408	13.16
594.828	13.14
595.248	13.11
595.669	13.09
596.089	13.07
596.509	13.05
596.929	13.02
597.349	12.99
597.769	12.97
598.189	12.93
598.608	12.92
599.028	12.91
599.448	12.88
599.867	12.84
600.287	12.82
600.706	12.79
601.126	12.76
601.545	12.73
601.965	12.72
602.384	12.69
602.803	12.65
603.222	12.6
603.641	12.55
604.061	12.51
604.48	12.47
604.898	12.42
605.317	12.38
605.736	12.33
606.155	12.28
606.574	12.21
606.992	12.14
607.411	12.1
607.829	12.02
608.248	11.97
608.666	11.91
609.085	11.86
609.503	11.8
609.921	11.73
610.339	11.67
610.758	11.61
611.176	11.54
611.594	11.5
612.012	11.44
612.43	11.4
612.847	11.35
613.265	11.3
613.683	11.24
614.101	11.19
614.518	11.16
614.936	11.11
615.353	11.05
615.771	11.01
616.188	10.95
616.606	10.93
617.023	10.89
617.44	10.85
617.857	10.8
618.274	10.76
618.691	10.73
619.108	10.68
619.525	10.65
619.942	10.63
620.359	10.61
620.776	10.59
621.192	10.55
621.609	10.54
622.026	10.51
622.442	10.5
622.859	10.47
623.275	10.46
623.691	10.44
624.108	10.44
624.524	10.43
624.94	10.42
625.356	10.42
625.772	10.41
626.188	10.4
626.604	10.39
627.02	10.39
627.436	10.38
627.852	10.37
628.268	10.37
628.683	10.36
629.099	10.35
629.514	10.33
629.93	10.32
630.345	10.3
630.761	10.28
631.176	10.26
631.591	10.23
632.007	10.2
632.422	10.17
632.837	10.14
633.252	10.09
633.667	10.05
634.082	10
634.497	9.96
634.911	9.9
635.326	9.84
635.741	9.79
636.155	9.74
636.57	9.68
636.984	9.62
637.399	9.54
637.813	9.46
638.228	9.38
638.642	9.3
639.056	9.2
639.47	9.12
639.884	9.04
640.298	8.94
640.712	8.85
641.126	8.76
641.54	8.68
641.954	8.6
642.368	8.53
642.781	8.45
643.195	8.37
643.609	8.3
644.022	8.23
644.436	8.16
644.849	8.1
645.262	8.03
645.676	7.97
646.089	7.91
646.502	7.86
646.915	7.81
647.328	7.75
647.741	7.71
648.154	7.67
648.567	7.63
648.98	7.59
649.393	7.56
649.805	7.53
650.218	7.51
650.631	7.49
651.043	7.45
651.456	7.43
651.868	7.41
652.28	7.39
652.693	7.37
653.105	7.35
653.517	7.32
653.929	7.29
654.341	7.26
654.753	7.23
655.165	7.19
655.577	7.16
655.989	7.12
656.401	7.08
656.813	7.05
657.224	6.99
657.636	6.94
658.047	6.9
658.459	6.85
658.87	6.8
659.282	6.74
659.693	6.69
660.104	6.64
660.515	6.6
660.926	6.55
661.338	6.5
661.749	6.45
662.159	6.42
662.57	6.38
662.981	6.35
663.392	6.31
663.803	6.27
664.213	6.25
664.624	6.22
665.035	6.19
665.445	6.17
665.855	6.15
666.266	6.14
666.676	6.12
667.086	6.1
667.497	6.08
667.907	6.09
668.317	6.09
668.727	6.08
669.137	6.07
669.547	6.07
669.956	6.06
670.366	6.06
670.776	6.06
671.186	6.06
671.595	6.05
672.005	6.06
672.414	6.06
672.824	6.06
673.233	6.07
673.642	6.08
674.052	6.09
674.461	6.11
674.87	6.12
675.279	6.13
675.688	6.15
676.097	6.18
676.506	6.2
676.915	6.21
677.323	6.24
677.732	6.25
678.141	6.28
678.549	6.31
678.958	6.33
679.366	6.37
679.775	6.4
680.183	6.43
680.592	6.48
681	6.52
681.408	6.57
681.816	6.62
682.224	6.7
682.632	6.77
683.04	6.83
683.448	6.9
683.856	6.98
684.264	7.08
684.671	7.2
685.079	7.32
685.487	7.46
685.894	7.62
686.302	7.8
686.709	7.98
687.116	8.19
687.524	8.42
687.931	8.67
688.338	8.96
688.745	9.24
689.152	9.56
689.559	9.9
689.966	10.24
690.373	10.6
690.78	10.98
691.187	11.37
691.593	11.77
692	12.19
692.407	12.61
692.813	13.04
693.22	13.47
693.626	13.91
694.032	14.36
694.439	14.81
694.845	15.27
695.251	15.75
695.657	16.22
696.063	16.69
696.469	17.19
696.875	17.68
697.281	18.14
697.687	18.62
698.093	19.09
698.498	19.56
698.904	20.03
699.31	20.49
699.715	20.92
700.12	21.38
700.526	21.82
700.931	22.24
701.337	22.65
701.742	23.08
702.147	23.5
702.552	23.92
702.957	24.3
703.362	24.68
703.767	25.05
704.172	25.44
704.577	25.8
704.981	26.18
705.386	26.55
705.791	26.91
706.195	27.26
706.6	27.63
707.004	27.97
707.408	28.33
707.813	28.68
708.217	29.01
708.621	29.34
709.025	29.64
709.43	29.95
709.834	30.24
710.237	30.54
710.641	30.83
711.045	31.11
711.449	31.4
711.853	31.67
712.256	31.94
712.66	32.22
713.064	32.49
713.467	32.78
713.87	33.04
714.274	33.31
714.677	33.56
715.08	33.8
715.484	34.04
715.887	34.29
716.29	34.51
716.693	34.75
717.096	34.98
717.499	35.2
717.901	35.41
718.304	35.61
718.707	35.81
719.109	36.01
719.512	36.22
719.915	36.42
720.317	36.59
720.719	36.74
721.122	36.92
721.524	37.09
721.926	37.26
722.328	37.43
722.731	37.59
723.133	37.77
723.535	37.93
723.937	38.08
724.338	38.23
724.74	38.38
725.142	38.61
725.544	38.73
725.945	38.88
726.347	38.98
726.748	39.11
727.15	39.22
727.551	39.34
727.952	39.47
728.354	39.57
728.755	39.66
729.156	39.77
729.557	39.82
729.958	39.91
730.359	39.99
730.76	40.1
731.161	40.19
731.562	40.29
731.962	40.35
732.363	40.42
732.763	40.48
733.164	40.53
733.564	40.6
733.965	40.66
734.365	40.74
734.766	40.81
735.166	40.88
735.566	40.92
735.966	40.99
736.366	41.05
736.766	41.1
737.166	41.15
737.566	41.23
737.966	41.27
738.365	41.31
738.765	41.37
739.165	41.41
739.564	41.44
739.964	41.48
740.363	41.51
740.763	41.54
741.162	41.57
741.561	41.62
741.96	41.63
742.36	41.65
742.759	41.71
743.158	41.72
743.557	41.75
743.955	41.77
744.354	41.79
744.753	41.83
745.152	41.87
745.55	41.93
745.949	41.94
746.348	41.98
746.746	42
747.144	41.98
747.543	42
747.941	41.99
748.339	42.01
748.737	42.02
749.136	42.01
749.534	41.97
749.932	41.95
750.33	41.94
750.727	41.94
751.125	41.95
751.523	41.94
751.921	41.94
752.318	41.97
752.716	41.96
753.113	41.98
753.511	42
753.908	42.04
754.305	42.07
754.703	42.07
755.1	42.07
755.497	42.07
755.894	42.1
756.291	42.12
756.688	42.08
757.085	42.12
757.482	42.12
757.878	42.12
758.275	42.11
758.672	42.09
759.068	42.13
759.465	42.12
759.861	42.14
760.258	42.15
760.654	42.15
761.05	42.18
761.447	42.18
761.843	42.17
762.239	42.16
762.635	42.14
763.031	42.15
763.427	42.11
763.822	42.12
764.218	42.13
764.614	42.13
765.01	42.12
765.405	42.13
765.801	42.12
766.196	42.13
766.592	42.14
766.987	42.16
767.382	42.17
767.778	42.17
768.173	42.17
768.568	42.16
768.963	42.15
769.358	42.14
769.753	42.13
770.148	42.12
770.542	42.11
770.937	42.11
771.332	42.11
771.726	42.1
772.121	42.11
772.515	42.12
772.91	42.11
773.304	42.13
773.699	42.15
774.093	42.14
774.487	42.14
774.881	42.16
775.275	42.16
775.669	42.16
776.063	42.16
776.457	42.15
776.851	42.13
777.245	42.12
777.638	42.09
778.032	42.09
778.425	42.12
778.819	42.12
779.212	42.12
779.606	42.14
779.999	42.12
780.392	42.12
780.786	42.12
781.179	42.15
781.572	42.19
781.965	42.21
782.358	42.21
782.751	42.19
783.143	42.18
783.536	42.17
783.929	42.16
784.322	42.19
784.714	42.21
785.107	42.24
785.499	42.22
785.891	42.21
786.284	42.23
786.676	42.24
787.068	42.25
787.46	42.28
787.852	42.28
788.245	42.26
788.636	42.23
789.028	42.21
789.42	42.2
789.812	42.2
790.204	42.19
790.595	42.17
790.987	42.14
791.378	42.15
791.77	42.12
792.161	42.11
792.553	42.12
792.944	42.12
793.335	42.13
793.726	42.12
794.117	42.1
794.508	42.09
794.899	42.1
795.29	42.11
795.681	42.09
796.072	42.09
796.463	42.12
796.853	42.11
797.244	42.12
797.634	42.12
798.025	42.14
798.415	42.15
798.806	42.13
799.196	42.14
799.586	42.14
799.976	42.17
800.366	42.17
800.756	42.13
801.146	42.14
801.536	42.13
801.926	42.12
802.316	42.12
802.706	42.12
803.095	42.13
803.485	42.11
803.874	42.07
804.264	42.05
804.653	42.07
805.043	42.08
805.432	42.09
805.821	42.08
806.21	42.1
806.599	42.08
806.988	42.09
807.377	42.09
807.766	42.09
808.155	42.11
808.544	42.11
808.933	42.07
809.321	42.06
809.71	42.05
810.098	42.06
810.487	42.03
810.875	42.04
811.264	42.05
811.652	42.06
812.04	42.04
812.428	42.06
812.816	42.06
813.204	42.07
813.592	42.08
813.98	42.07
814.368	42.07
814.756	42.06
815.144	42.05
815.531	42.02
815.919	42
816.306	42
816.694	41.99
817.081	42
817.469	42.01
817.856	42
818.243	41.98
818.63	41.96
819.017	41.96
819.404	41.95
819.791	41.95
820.178	41.96
820.565	41.93
820.952	41.93
821.339	41.91
821.725	41.9
822.112	41.88
822.498	41.91
822.885	41.92
823.271	41.91
823.657	41.88
824.044	41.88
824.43	41.9
824.816	41.9
825.202	41.88
825.588	41.9
825.974	41.89
826.36	41.89
826.746	41.87
827.132	41.85
827.517	41.85
827.903	41.89
828.289	41.88
828.674	41.87
829.06	41.88
829.445	41.87
829.83	41.85
830.216	41.85
830.601	41.87
830.986	41.88
831.371	41.9
831.756	41.92
832.141	41.91
832.526	41.92
832.911	41.92
833.295	41.94
833.68	41.98
834.065	41.99
834.449	41.99
834.834	41.98
835.218	41.98
835.603	41.96
835.987	41.95
836.371	41.96
836.755	41.94
837.139	41.91
837.524	41.91
837.908	41.89
838.291	41.9
838.675	41.91
839.059	41.92
839.443	41.89
839.827	41.88
840.21	41.89
840.594	41.89
840.977	41.9
841.361	41.91
841.744	41.88
842.127	41.87
842.511	41.86
842.894	41.85
843.277	41.84
843.66	41.84
844.043	41.85
844.426	41.85
844.809	41.84
845.191	41.85
845.574	41.87
845.957	41.89
846.339	41.89
846.722	41.9
847.104	41.93
847.487	41.93
847.869	41.95
848.252	41.96
848.634	41.96
849.016	41.97
849.398	41.96
849.78	41.96
850.162	41.95
850.544	41.96
850.926	41.97
851.307	41.95
851.689	41.94
852.071	41.97
852.452	41.97
852.834	41.97
853.215	41.95
853.597	41.98
853.978	41.96
854.359	41.98
854.741	41.98
855.122	41.96
855.503	41.96
855.884	41.95
856.265	41.94
856.646	41.93
857.026	41.95
857.407	41.98
857.788	41.96
858.169	41.98
858.549	41.99
858.93	41.98
859.31	41.98
859.69	42
860.071	42.03
860.451	42.02
860.831	42.03
861.211	42
861.591	41.99
861.971	41.99
862.351	41.98
862.731	41.96
863.111	41.94
863.491	41.95
863.87	41.94
864.25	41.93
864.629	41.93
865.009	41.92
865.388	41.93
865.768	41.93
866.147	41.91
866.526	41.92
866.905	41.92
867.284	41.94
867.663	41.93
868.042	41.92
868.421	41.92
868.8	41.94
869.179	41.92
869.558	41.92
869.936	41.93
870.315	41.93
870.693	41.94
871.072	41.96
871.45	41.97
871.828	41.98
872.207	42
872.585	41.99
872.963	41.97
873.341	41.98
873.719	41.97
874.097	41.97
874.475	41.99
874.853	41.97
875.23	41.98
875.608	41.97
875.986	41.99
876.363	41.99
876.741	42
877.118	42.02
877.495	42.03
877.873	42.04
878.25	42.06
878.627	42.06
879.004	42.09
879.381	42.08
879.758	42.08
880.135	42.07
880.512	42.08
880.889	42.06
881.265	42.05
881.642	42.05
882.019	42.06
882.395	42.02
882.772	42.02
883.148	42
883.524	42.01
883.901	41.99
884.277	41.98
884.653	41.96
885.029	41.96
885.405	41.97
885.781	41.96
886.157	41.95
886.532	41.96
886.908	41.94
887.284	41.93
887.659	41.91
888.035	41.91
888.411	41.91
888.786	41.93
889.161	41.93
889.537	41.92
889.912	41.93
890.287	41.95
890.662	41.95
891.037	41.98
891.412	41.97
891.787	41.98
892.162	42
892.536	41.99
892.911	41.96
893.286	41.99
893.66	41.99
894.035	42.01
894.409	41.99
894.784	42
895.158	41.99
895.532	42
895.906	42
896.281	42
896.655	42
897.029	42.02
897.402	42
897.776	41.99
898.15	41.97
898.524	41.98
898.898	41.95
899.271	41.96
899.645	41.96
900.018	41.97
900.392	41.97
900.765	41.98
901.138	41.96
901.511	41.96
901.884	41.98
902.258	41.99
902.631	41.99
903.003	42.01
903.376	41.99
903.749	41.99
904.122	42
904.495	42.01
904.867	42
905.24	42.02
905.612	42.04
905.985	42.02
906.357	41.99
906.729	41.98
907.102	41.97
907.474	42
907.846	42
908.218	41.98
908.59	41.98
908.962	41.97
909.334	41.97
909.705	41.97
910.077	41.95
910.449	41.97
910.82	41.99
911.192	41.99
911.563	41.95
911.935	41.91
912.306	41.91
912.677	41.92
913.048	41.92
913.419	41.93
913.79	41.94
914.161	41.96
914.532	41.97
914.903	41.97
915.274	41.97
915.645	41.98
916.015	42.01
916.386	41.99
916.756	41.98
917.127	41.97
917.497	41.96
917.868	41.92
918.238	41.88
918.608	41.89
918.978	41.89
919.348	41.88
919.718	41.89
920.088	41.89
920.458	41.89
920.828	41.9
921.198	41.88
921.567	41.85
921.937	41.88
922.306	41.87
922.676	41.85
923.045	41.82
923.415	41.82
923.784	41.79
924.153	41.81
924.522	41.82
924.891	41.8
925.26	41.79
925.629	41.79
925.998	41.76
926.367	41.79
926.736	41.78
927.104	41.78
927.473	41.78
927.842	41.76
928.21	41.73
928.578	41.71
928.947	41.73
929.315	41.74
929.683	41.75
930.051	41.74
930.42	41.74
930.788	41.71
931.156	41.7
931.523	41.69
931.891	41.72
932.259	41.72
932.627	41.7
932.994	41.69
933.362	41.65
933.729	41.67
934.097	41.68
934.464	41.7
934.831	41.72
935.199	41.74
935.566	41.71
935.933	41.7
936.3	41.69
936.667	41.7
937.034	41.71
937.401	41.74
937.767	41.69
938.134	41.7
938.501	41.65
938.867	41.66
939.234	41.67
939.6	41.72
939.967	41.72
940.333	41.66
940.699	41.7
941.065	41.66
941.431	41.63
941.798	41.58
942.163	41.54
942.529	41.52
942.895	41.47
943.261	41.39
943.627	41.33
943.992	41.31
944.358	41.35
944.723	41.29
945.089	41.3
945.454	41.35
945.82	41.37
946.185	41.42
946.55	41.4
946.915	41.41
947.28	41.45
947.645	41.45
948.01	41.43
948.375	41.44
948.74	41.41
949.104	41.44
949.469	41.45
949.834	41.43
950.198	41.43
950.562	41.46
950.927	41.45
951.291	41.42
951.655	41.32
952.02	41.33
952.384	41.28
952.748	41.28
953.112	41.2
953.476	41.14
953.839	41.1
954.203	41.05
954.567	40.98
954.931	40.92
955.294	40.88
955.658	40.98
956.021	40.91
956.385	40.88
956.748	40.88
957.111	40.89
957.474	40.92
957.837	40.91
958.2	40.89
958.563	40.89
958.926	40.93
959.289	40.96
959.652	40.89
960.015	40.95
960.377	40.96
960.74	41
961.102	41.01
961.465	41.03
961.827	41.03
962.189	41.07
962.552	41.06
962.914	41.04
963.276	41.04
963.638	41.04
964	41.01
964.362	41
964.724	40.93
965.085	40.91
965.447	40.86
965.809	40.86
966.17	40.86
966.532	40.89
966.893	40.89
967.255	40.86
967.616	40.87
967.977	40.92
968.338	40.92
968.699	40.94
969.061	40.97
969.421	40.94
969.782	40.94
970.143	40.91
970.504	40.92
970.865	40.93
971.225	40.91
971.586	40.88
971.946	40.8
972.307	40.75
972.667	40.77
973.027	40.74
973.388	40.79
973.748	40.76
974.108	40.76
974.468	40.73
974.828	40.76
975.188	40.79
975.548	40.81
975.907	40.85
976.267	40.91
976.627	40.91
976.986	40.87
977.346	40.82
977.705	40.87
978.064	40.9
978.424	40.88
978.783	40.78
979.142	40.76
979.501	40.76
979.86	40.79
980.219	40.73
980.578	40.7
980.937	40.74
981.296	40.73
981.654	40.68
982.013	40.63
982.371	40.67
982.73	40.67
983.088	40.7
983.447	40.64
983.805	40.6
984.163	40.59
984.521	40.55
984.879	40.46
985.237	40.46
985.595	40.54
985.953	40.56
986.311	40.51
986.669	40.54
987.026	40.51
987.384	40.57
987.741	40.58
988.099	40.63
988.456	40.61
988.814	40.68
989.171	40.75
989.528	40.7
989.885	40.67
990.242	40.63
990.599	40.67
990.956	40.7
991.313	40.7
991.67	40.64
992.027	40.8
992.383	40.89
992.74	40.89
993.096	40.83
993.453	40.78
993.809	40.78
994.165	40.86
994.522	40.85
994.878	40.9
995.234	40.88
995.59	40.96
995.946	40.84
996.302	40.83
996.658	40.79
997.013	40.78
997.369	40.8
997.725	40.9
998.08	40.9
998.436	40.91
998.791	40.9
999.147	40.91
999.502	40.96
999.857	40.95
1000.212	40.86
1000.567	40.91
1000.922	40.81
1001.277	40.78
1001.632	40.62
1001.987	40.58
1002.342	40.49
1002.696	40.39
1003.051	40.48
1003.406	40.56
1003.76	40.52
1004.114	40.58
1004.469	40.57
1004.823	40.99
1005.177	41.01
1005.531	41.23
1005.885	41.28
1006.239	41.33
1006.593	41.53
1006.947	41.4
1007.301	41.22
1007.655	41.12
1008.008	41.17
1008.362	41.3
1008.715	40.97
1009.069	41.01
1009.422	40.9
1009.776	40.86
1010.129	40.89
1010.482	40.69
1010.835	40.8
1011.188	40.93
1011.541	41.16
1011.894	41.22
1012.247	41.2
1012.6	41.24
1012.952	41.15
1013.305	41.12
1013.657	41.16
1014.01	41.23
1014.362	41.34
1014.715	41.22
1015.067	41.13
1015.419	41.02
1015.771	40.81
1016.123	40.79
1016.475	40.97
1016.827	40.99
1017.179	41.13
1017.531	41.03
1017.883	40.8
1018.234	40.75
1018.586	40.91
1018.938	40.91
1019.289	40.7
1019.64	40.99
1019.992	40.89
1020.343	40.77
1020.694	40.98
1021.045	40.89
1021.396	40.91
1021.747	41.21
1022.098	41.3
1022.449	41.21
1022.8	41.18
1023.151	41.35
1023.501	41.5
1023.852	41.57
1024.202	41.49
1024.553	41.39
1024.903	41.42
1025.253	41.64
1025.604	41.42
1025.954	41.41
1026.304	41.29
1026.654	41.48
1027.004	41.46
1027.354	41.08
1027.703	40.84
1028.053	40.78
1028.403	40.62
1028.753	40.37
1029.102	40.51
1029.452	40.73
1029.801	40.88
1030.15	40.93
1030.499	40.73
897.758	486.32
901.051	487.94
904.343	490.88
907.636	498.58
910.928	488.08
914.22	488.22
917.511	480.29
920.803	466.17
924.094	462.96
927.384	453.4
930.675	436.05
933.965	434.93
937.255	411.32
940.544	395.01
943.834	377.19
947.123	372.03
950.411	353.28
953.7	347.59
956.988	331.39
960.276	321.29
963.563	314.9
966.851	305.37
970.138	302.93
973.424	296.06
976.711	297.8
979.997	284.04
983.283	282.39
986.568	276.71
989.853	269.41
993.138	263.25
996.423	252.34
999.708	247.59
1002.992	243.22
1006.275	235.55
1009.559	231.67
1012.842	222.95
1016.125	220.48
1019.408	217.31
1022.69	215.85
1025.972	211.19
1029.254	206.95
1032.536	204.73
1035.817	200.92
1039.098	198.86
1042.379	194.33
1045.659	193.59
1048.939	190.02
1052.219	184.97
1055.498	183.55
1058.778	178.64
1062.057	175.48
1065.335	174.18
1068.614	171.06
1071.892	169.03
1075.17	166.13
1078.447	163.12
1081.724	161.89
1085.001	160.75
1088.278	158.4
1091.554	153.67
1094.83	154.61
1098.106	152.98
1101.382	152.39
1104.657	152.05
1107.932	149.79
1111.206	148.72
1114.481	146.21
1117.755	145.95
1121.029	144.64
1124.302	143.73
1127.575	142.75
1130.848	140.81
1134.121	140.16
1137.393	138.97
1140.665	137.12
1143.937	136.66
1147.208	136.02
1150.48	135.05
1153.75	132.26
1157.021	131.24
1160.291	131.03
1163.561	129.91
1166.831	129.78
1170.101	128.83
1173.37	129.59
1176.639	129.87
1179.907	128.26
1183.176	127.45
1186.444	127.44
1189.711	127.84
1192.979	127.67
1196.246	126.98
1199.513	127.95
1202.78	127.24
1206.046	127.22
1209.312	125.31
1212.578	125.25
1215.843	126.23
1219.108	125.86
1222.373	128.05
1225.638	128.76
1228.902	129.35
1232.166	130.43
1235.43	129.96
1238.693	131.61
1241.956	132.06
1245.219	133.38
1248.482	133.88
1251.744	133.92
1255.006	134.47
1258.268	132.5
1261.529	131.24
1264.79	131.25
1268.051	130.52
1271.312	129.52
1274.572	127.53
1277.832	127.5
1281.092	125.21
1284.351	124.57
1287.61	124.62
1290.869	122.91
1294.128	121.93
1297.386	121.83
1300.644	120.58
1303.902	120.24
1307.159	119.93
1310.416	120.06
1313.673	118.57
1316.93	119.4
1320.186	118.82
1323.442	119.3
1326.697	119.81
1329.953	119.88
1333.208	120.1
1336.463	121.53
1339.717	121.72
1342.972	122.24
1346.226	123
1349.479	123.74
1352.733	125.21
1355.986	126.61
1359.238	125.54
1362.491	126.25
1365.743	126.15
1368.995	125.85
1372.247	124.97
1375.498	125.07
1378.749	124.81
1382	124.07
1385.251	123.16
1388.501	121.64
1391.751	119.77
1395	119.53
1398.25	118.17
1401.499	117.01
1404.748	116.19
1407.996	114.25
1411.244	112.87
1414.492	112.59
1417.74	110.31
1420.987	109.66
1424.234	108.46
1427.481	106.99
1430.728	106.19
1433.974	106.26
1437.22	105.47
1440.465	105.28
1443.711	104.04
1446.956	102.97
1450.201	101.97
1453.445	101.87
1456.689	100.56
1459.933	99.58
1463.177	98.81
1466.42	97.43
1469.663	95.48
1472.906	94.75
1476.148	92.87
1479.391	92.3
1482.633	92.4
1485.874	90.92
1489.115	89.57
1492.356	89.5
1495.597	89.06
1498.838	88.46
1502.078	88.52
1505.318	88.9
1508.557	88.95
1511.797	88.83
1515.036	88.34
1518.274	88.77
1521.513	88.3
1524.751	88.15
1527.989	88.73
1531.227	88.87
1534.464	88.89
1537.701	88.4
1540.938	87.99
1544.174	87.7
1547.41	87.85
1550.646	87.92
1553.882	87.39
1557.117	87.28
1560.352	87.12
1563.587	86.8
1566.821	86.59
1570.055	86
1573.289	85.94
1576.523	86.04
1579.756	85.29
1582.989	85.04
1586.222	84.84
1589.454	84.52
1592.686	85.27
1595.918	84.77
1599.15	84.42
1602.381	84.53
1605.612	85.05
1608.843	84.82
1612.073	84.53
1615.303	85.27
1618.533	85.56
1621.762	86.08
1624.992	86.12
1628.221	85.77
1631.449	85.95
1634.678	85.55
1637.906	86.49
1641.134	85.97
1644.361	86.05
1647.588	86.29
1650.815	85.97
1654.042	86.18
1657.269	85.78
1660.495	86.03
1663.72	86.01
1666.946	86.2
1670.171	86.81
1673.396	85.98
1676.621	86.89
1679.845	87.07
1683.069	87.45
1686.293	87.39
1689.517	87.41
1692.74	87.83
1695.963	87.69
1699.185	87.98
1702.408	88.59
1705.63	88.79
1708.852	89.11
1712.073	88.74
1715.294	88.89
1718.515	88.74
1721.736	89.25
1724.956	89.15
1728.176	89.08
1731.396	89.26
1734.616	89.29
1737.835	89.21
1741.054	88.36
1744.272	88.98
1747.491	89.32
1750.709	89.07
1753.927	89.26
1757.144	88.89
1760.361	89.04
1763.578	88.85
1766.795	88.88
1770.011	89.41
1773.227	89.35
1776.443	90.23
1779.658	89.6
1782.874	89.76
1786.089	89.66
1789.303	89.91
1792.518	90.88
1795.732	91.06
1798.945	92.21
1802.159	92.5
1805.372	92.37
1808.585	93.5
1811.797	93.6
1815.01	94.65
1818.222	95.31
1821.434	96.29
1824.645	96.18
1827.856	97.6
1831.067	97.61
1834.278	97.56
1837.488	97.74
1840.698	98.22
1843.908	97.44
1847.117	97.91
1850.326	97.56
1853.535	96.8
1856.744	98.14
1859.952	97.51
1863.16	96.02
1866.368	95.21
1869.575	95.01
1872.782	93.36
1875.989	92.12
1879.196	91.58
1882.402	89.93
1885.608	89.57
1888.814	88.98
1892.019	86.99
1895.224	86.95
1898.429	86.04
1901.634	85.9
1904.838	85.84
1908.042	86.36
1911.246	86.17
1914.449	86.45
1917.652	86.36
1920.855	86.42
1924.058	86.31
1927.26	86.48
1930.462	86.04
1933.664	87.11
1936.865	87.48
1940.066	86.47
1943.267	85.75
1946.467	86.3
1949.668	86.25
1952.868	87.93
1956.067	87.85
1959.267	87.72
1962.466	88.03
1965.665	88.4
1968.863	88.76
1972.061	89.23
1975.259	89.91
1978.457	90.84
1981.654	91.88
1984.852	92.17
1988.048	91.52
1991.245	92.82
1994.441	93.46
1997.637	94.97
2000.833	96.86
2004.028	97.85
2007.223	98.58
2010.418	100.17
2013.613	102.61
2016.807	103.76
2020.001	104.82
2023.194	106.58
2026.388	108.5
2029.581	111.7
2032.774	112.12
2035.966	114.37
2039.158	115.54
2042.35	118.2
2045.542	118.04
2048.733	119.72
2051.924	119.32
2055.115	122.74
2058.306	123.28
2061.496	124.07
2064.686	125.37
2067.875	126.02
2071.065	125.44
2074.254	125
2077.442	126.04
2080.631	126.83
2083.819	127.95
2087.007	129.99
2090.195	129.88
2093.382	131.88
2096.569	131.66
2099.756	132.99
2102.942	134.4
2106.128	135.61
2109.314	139.66
2112.5	139.11
2115.685	142.06
2118.87	142.42
2122.055	146.46
2125.239	147.44
2128.424	147.82
2131.608	149.01
2134.791	150.68
2137.974	151.35
2141.157	152.48
2144.34	151.67
2147.523	152.28
2150.705	152.51
2153.887	154.9
2157.068	154.5
2160.25	152.4
2163.431	153.98
2166.611	154.75
2169.792	158.58
2172.972	159.78
2176.152	160.32
2179.331	161.98
2182.511	165.94
2185.69	167.12
2188.868	168.22
2192.047	168.5
2195.225	174.53
2198.403	178.41
2201.58	183.05
2204.758	184.13
2207.935	188.08
2211.111	191.52
2214.288	193.52
2217.464	194.24
2220.64	199.18
2223.815	201.51
2226.991	207.66
2230.166	208.09
2233.34	210.91
2236.515	212.33
2239.689	214.12
2242.863	215.12
2246.036	221.76
2249.209	221.37
2252.382	225.07
2255.555	229.31
2258.727	231.18
2261.9	237.15
2265.071	239.15
2268.243	242.53
2271.414	245.01
2274.585	250.04
2277.756	252.31
2280.926	255.36
2284.096	260
2287.266	263.83
2290.436	265.97
2293.605	270.97
2296.774	274.52
2299.942	280.82
2303.111	284.09
2306.279	289.06
2309.447	291.29
2312.614	302.51
2315.781	306.62
2318.948	322.11
2322.115	320.09
2325.281	335.54
2328.447	330.67
2331.613	341.46
2334.779	341.13
2337.944	352.01
2341.109	359.95
2344.274	370.38
2347.438	379.69
2350.602	380.58
2353.766	394.09
2356.929	401.41
2360.092	399.6
2363.255	425.82
2366.418	430.26
2369.58	434.36
2372.742	461.51
2375.904	472.01
2379.066	470.34
2382.227	462.98
2385.388	499.72
2388.548	494.29
2391.709	496.38
2394.869	550.78
2398.029	529.95
2401.188	545.57
2404.347	543.8
2407.506	537.91
2410.665	548.58
2413.823	581.58
2416.981	613.91
2420.139	594.41
2423.296	590.33
2426.453	620.41
2429.61	596.63
2432.767	621.5
2435.923	612.17
2439.079	674.37
2442.235	681.07
2445.391	680.25
2448.546	671.4
2451.701	656.53
2454.855	659.44
2458.009	697.29
2461.163	723.36
2464.317	753.49
2467.471	770.37
2470.624	774.66
2473.777	748.94
2476.929	730.79
2480.082	707.46
2483.234	704.15
2486.385	742.85
2489.537	746.63
2492.688	771.02
2495.839	752.31
2498.989	737.04
2502.14	742.3
2505.29	744.34
2508.439	760.08
2511.589	758.19
2514.738	826.06
2517.887	807.55
2521.035	843.81
2524.183	845.78
2527.331	857.06
2530.479	847.76
2533.627	852
