Data from N_1_DIV_IL_4n_Splice17_12-32-34-845.txt Node
Date: Sat Mar 07 12:32:34 EST 2020
User: sa697716
Spectrometer: NQ5500242
Trigger mode: 0
Integration Time (sec): 1.450000E-1
Scans to average: 20
Nonlinearity correction enabled: false
Boxcar width: 5
Storing dark spectrum: false
XAxis mode: Wavelengths
Number of Pixels in Spectrum: 512
>>>>>Begin Spectral Data<<<<<
187.83	165.68
188.298	188.45
188.766	168.67
189.233	144.83
189.701	145.65
190.169	162.16
190.636	171.64
191.104	174.09
191.571	57.27
192.039	117.86
192.506	-116.22
192.974	65.29
193.441	151.83
193.908	72.98
194.375	64.19
194.842	53.92
195.31	124.01
195.777	245.14
196.244	38.69
196.711	31.24
197.177	33.22
197.644	32.43
198.111	31.71
198.578	31.46
199.045	31.6
199.511	31.43
199.978	30.95
200.445	30.95
200.911	30.87
201.378	31.04
201.844	31.19
202.31	30.8
202.777	30.75
203.243	31.17
203.709	31.25
204.176	31.1
204.642	30.95
205.108	31.28
205.574	30.83
206.04	30.25
206.506	29.92
206.972	29.99
207.438	29.81
207.903	29.47
208.369	28.83
208.835	28.26
209.301	27.52
209.766	26.8
210.232	25.8
210.697	25.13
211.163	24.91
211.628	24.57
212.094	23.88
212.559	23.46
213.024	22.77
213.49	22.31
213.955	21.73
214.42	21.33
214.885	20.82
215.35	20.29
215.815	19.37
216.28	18.1
216.745	16.65
217.21	15.31
217.675	14.08
218.14	13.09
218.604	12.1
219.069	11.3
219.534	10.63
219.998	10.09
220.463	9.65
220.927	9.24
221.392	8.91
221.856	8.65
222.32	8.44
222.785	8.25
223.249	8.06
223.713	7.91
224.177	7.8
224.642	7.67
225.106	7.5
225.57	7.34
226.034	7.21
226.497	7.1
226.961	6.97
227.425	6.84
227.889	6.73
228.353	6.62
228.816	6.52
229.28	6.41
229.744	6.31
230.207	6.23
230.671	6.14
231.134	6.08
231.597	6.01
232.061	5.94
232.524	5.87
232.987	5.78
233.45	5.72
233.914	5.65
234.377	5.58
234.84	5.53
235.303	5.48
235.766	5.43
236.229	5.37
236.691	5.31
237.154	5.25
237.617	5.21
238.08	5.17
238.542	5.12
239.005	5.08
239.468	5.03
239.93	4.98
240.393	4.94
240.855	4.88
241.317	4.83
241.78	4.79
242.242	4.73
242.704	4.69
243.166	4.64
243.629	4.6
244.091	4.55
244.553	4.51
245.015	4.46
245.477	4.42
245.939	4.38
246.4	4.33
246.862	4.3
247.324	4.27
247.786	4.23
248.247	4.19
248.709	4.15
249.17	4.11
249.632	4.08
250.093	4.05
250.555	4.01
251.016	3.98
251.477	3.94
251.939	3.92
252.4	3.89
252.861	3.86
253.322	3.84
253.783	3.82
254.244	3.8
254.705	3.77
255.166	3.75
255.627	3.72
256.088	3.71
256.549	3.69
257.009	3.66
257.47	3.64
257.931	3.61
258.391	3.57
258.852	3.55
259.312	3.52
259.773	3.5
260.233	3.48
260.694	3.46
261.154	3.43
261.614	3.41
262.074	3.38
262.534	3.35
262.994	3.33
263.455	3.32
263.915	3.3
264.374	3.28
264.834	3.27
265.294	3.25
265.754	3.23
266.214	3.22
266.673	3.21
267.133	3.2
267.593	3.19
268.052	3.18
268.512	3.17
268.971	3.16
269.431	3.15
269.89	3.13
270.349	3.12
270.809	3.11
271.268	3.1
271.727	3.09
272.186	3.08
272.645	3.07
273.104	3.05
273.563	3.04
274.022	3.03
274.481	3.03
274.94	3.02
275.399	3.01
275.857	3
276.316	2.99
276.775	2.98
277.233	2.98
277.692	2.97
278.15	2.96
278.609	2.95
279.067	2.94
279.525	2.93
279.984	2.93
280.442	2.91
280.9	2.91
281.358	2.91
281.816	2.9
282.274	2.89
282.732	2.89
283.19	2.88
283.648	2.88
284.106	2.86
284.564	2.86
285.021	2.85
285.479	2.85
285.937	2.84
286.394	2.84
286.852	2.83
287.309	2.82
287.767	2.81
288.224	2.8
288.682	2.78
289.139	2.78
289.596	2.76
290.053	2.75
290.511	2.74
290.968	2.73
291.425	2.71
291.882	2.7
292.339	2.69
292.796	2.68
293.252	2.67
293.709	2.67
294.166	2.66
294.623	2.66
295.079	2.65
295.536	2.64
295.992	2.64
296.449	2.63
296.905	2.63
297.362	2.62
297.818	2.61
298.274	2.61
298.731	2.6
299.187	2.59
299.643	2.59
300.099	2.58
300.555	2.57
301.011	2.57
301.467	2.57
301.923	2.56
302.379	2.56
302.835	2.56
303.291	2.56
303.746	2.56
304.202	2.56
304.658	2.55
305.113	2.55
305.569	2.55
306.024	2.54
306.479	2.53
306.935	2.53
307.39	2.52
307.845	2.51
308.301	2.52
308.756	2.52
309.211	2.51
309.666	2.52
310.121	2.52
310.576	2.52
311.031	2.52
311.486	2.52
311.94	2.53
312.395	2.52
312.85	2.53
313.305	2.52
313.759	2.52
314.214	2.52
314.668	2.51
315.123	2.51
315.577	2.5
316.032	2.49
316.486	2.49
316.94	2.49
317.394	2.48
317.849	2.47
318.303	2.46
318.757	2.45
319.211	2.44
319.665	2.44
320.119	2.43
320.572	2.43
321.026	2.42
321.48	2.41
321.934	2.39
322.387	2.38
322.841	2.37
323.295	2.37
323.748	2.37
324.202	2.37
324.655	2.36
325.108	2.36
325.562	2.36
326.015	2.37
326.468	2.37
326.921	2.37
327.374	2.37
327.827	2.38
328.28	2.37
328.733	2.37
329.186	2.37
329.639	2.37
330.092	2.37
330.545	2.36
330.997	2.35
331.45	2.36
331.903	2.37
332.355	2.38
332.808	2.38
333.26	2.37
333.713	2.37
334.165	2.36
334.617	2.36
335.069	2.36
335.522	2.36
335.974	2.36
336.426	2.35
336.878	2.33
337.33	2.33
337.782	2.32
338.234	2.33
338.686	2.33
339.137	2.34
339.589	2.33
340.041	2.33
340.493	2.33
340.944	2.32
341.396	2.32
341.847	2.31
342.299	2.3
342.75	2.29
343.201	2.27
343.653	2.26
344.104	2.24
344.555	2.24
345.006	2.23
345.457	2.23
345.908	2.22
346.359	2.22
346.81	2.22
347.261	2.22
347.712	2.22
348.163	2.21
348.613	2.22
349.064	2.22
349.515	2.22
349.965	2.22
350.416	2.21
350.866	2.21
351.317	2.21
351.767	2.21
352.217	2.2
352.668	2.21
353.118	2.21
353.568	2.2
354.018	2.19
354.468	2.2
354.918	2.2
355.368	2.2
355.818	2.2
356.268	2.2
356.718	2.2
357.168	2.2
357.617	2.19
358.067	2.19
358.517	2.2
358.966	2.21
359.416	2.21
359.865	2.21
360.315	2.21
360.764	2.21
361.213	2.2
361.663	2.2
362.112	2.2
362.561	2.21
363.01	2.21
363.459	2.19
363.908	2.18
364.357	2.18
364.806	2.17
365.255	2.18
365.703	2.18
366.152	2.18
366.601	2.19
367.05	2.19
367.498	2.18
367.947	2.19
368.395	2.21
368.844	2.21
369.292	2.21
369.74	2.22
370.189	2.22
370.637	2.22
371.085	2.22
371.533	2.22
371.981	2.23
372.429	2.23
372.877	2.24
373.325	2.23
373.773	2.23
374.221	2.24
374.669	2.24
375.116	2.24
375.564	2.25
376.012	2.25
376.459	2.25
376.907	2.27
377.354	2.27
377.801	2.27
378.249	2.28
378.696	2.29
379.143	2.3
379.591	2.32
380.038	2.33
380.485	2.35
380.932	2.36
381.379	2.37
381.826	2.37
382.273	2.39
382.72	2.4
383.166	2.41
383.613	2.42
384.06	2.43
384.506	2.43
384.953	2.44
385.4	2.45
385.846	2.47
386.292	2.48
386.739	2.49
387.185	2.5
387.631	2.52
388.078	2.54
388.524	2.56
388.97	2.58
389.416	2.61
389.862	2.62
390.308	2.66
390.754	2.68
391.2	2.7
391.645	2.73
392.091	2.76
392.537	2.78
392.983	2.79
393.428	2.81
393.874	2.83
394.319	2.86
394.765	2.88
395.21	2.89
395.655	2.9
396.101	2.92
396.546	2.94
396.991	2.97
397.436	2.99
397.881	3.03
398.326	3.06
398.771	3.09
399.216	3.11
399.661	3.14
400.106	3.16
400.551	3.18
400.995	3.19
401.44	3.2
401.885	3.21
402.329	3.23
402.774	3.24
403.218	3.27
403.663	3.29
404.107	3.3
404.551	3.31
404.995	3.32
405.44	3.33
405.884	3.37
406.328	3.39
406.772	3.4
407.216	3.42
407.66	3.43
408.104	3.43
408.547	3.44
408.991	3.46
409.435	3.46
409.879	3.48
410.322	3.51
410.766	3.51
411.209	3.53
411.653	3.55
412.096	3.55
412.54	3.56
412.983	3.58
413.426	3.61
413.869	3.63
414.312	3.66
414.756	3.67
415.199	3.68
415.642	3.7
416.085	3.71
416.527	3.71
416.97	3.72
417.413	3.73
417.856	3.73
418.298	3.73
418.741	3.72
419.184	3.72
419.626	3.72
420.069	3.72
420.511	3.72
420.953	3.74
421.396	3.75
421.838	3.77
422.28	3.78
422.722	3.8
423.164	3.79
423.606	3.79
424.048	3.81
424.49	3.82
424.932	3.82
425.374	3.82
425.816	3.8
426.258	3.79
426.699	3.79
427.141	3.79
427.582	3.79
428.024	3.81
428.465	3.82
428.907	3.82
429.348	3.82
429.789	3.82
430.231	3.83
430.672	3.85
431.113	3.87
431.554	3.89
431.995	3.89
432.436	3.9
432.877	3.9
433.318	3.92
433.759	3.96
434.2	3.97
434.64	3.99
435.081	4
435.522	4.02
435.962	4.04
436.403	4.06
436.843	4.07
437.284	4.07
437.724	4.07
438.164	4.07
438.604	4.06
439.045	4.06
439.485	4.05
439.925	4.06
440.365	4.05
440.805	4.06
441.245	4.06
441.685	4.07
442.125	4.1
442.564	4.11
443.004	4.12
443.444	4.11
443.883	4.12
444.323	4.12
444.762	4.12
445.202	4.12
445.641	4.13
446.081	4.12
446.52	4.13
446.959	4.15
447.398	4.16
447.837	4.16
448.276	4.16
448.716	4.17
449.154	4.19
449.593	4.21
450.032	4.21
450.471	4.21
450.91	4.19
451.349	4.19
451.787	4.17
452.226	4.15
452.664	4.14
453.103	4.13
453.541	4.13
453.98	4.13
454.418	4.11
454.856	4.09
455.295	4.08
455.733	4.07
456.171	4.06
456.609	4.06
457.047	4.04
457.485	4.04
457.923	4.05
458.361	4.05
458.798	4.04
459.236	4.04
459.674	4.04
460.111	4.04
460.549	4.05
460.987	4.05
461.424	4.06
461.862	4.08
462.299	4.08
462.736	4.07
463.173	4.07
463.611	4.07
464.048	4.08
464.485	4.09
464.922	4.08
465.359	4.08
465.796	4.08
466.233	4.08
466.67	4.07
467.106	4.08
467.543	4.08
467.98	4.09
468.416	4.09
468.853	4.08
469.29	4.07
469.726	4.08
470.162	4.08
470.599	4.08
471.035	4.07
471.471	4.05
471.907	4.05
472.344	4.04
472.78	4.04
473.216	4.03
473.652	4.03
474.088	4.01
474.523	4.01
474.959	4
475.395	3.98
475.831	3.97
476.266	3.98
476.702	3.96
477.138	3.95
477.573	3.93
478.008	3.93
478.444	3.92
478.879	3.92
479.314	3.91
479.75	3.91
480.185	3.9
480.62	3.88
481.055	3.87
481.49	3.86
481.925	3.86
482.36	3.84
482.795	3.84
483.229	3.83
483.664	3.83
484.099	3.82
484.534	3.81
484.968	3.82
485.403	3.82
485.837	3.82
486.271	3.83
486.706	3.83
487.14	3.83
487.574	3.83
488.009	3.84
488.443	3.83
488.877	3.84
489.311	3.85
489.745	3.85
490.179	3.86
490.613	3.87
491.046	3.88
491.48	3.89
491.914	3.91
492.348	3.92
492.781	3.94
493.215	3.96
493.648	3.98
494.082	4
494.515	4.01
494.948	4.03
495.382	4.06
495.815	4.08
496.248	4.1
496.681	4.14
497.114	4.16
497.547	4.19
497.98	4.22
498.413	4.25
498.846	4.29
499.279	4.33
499.711	4.37
500.144	4.42
500.577	4.46
501.009	4.51
501.442	4.55
501.874	4.62
502.306	4.67
502.739	4.73
503.171	4.8
503.603	4.87
504.036	4.96
504.468	5.03
504.9	5.1
505.332	5.18
505.764	5.28
506.196	5.37
506.627	5.46
507.059	5.57
507.491	5.68
507.923	5.79
508.354	5.91
508.786	6.02
509.217	6.15
509.649	6.28
510.08	6.43
510.512	6.56
510.943	6.7
511.374	6.86
511.805	7.01
512.237	7.16
512.668	7.33
513.099	7.5
513.53	7.68
513.961	7.86
514.391	8.05
514.822	8.23
515.253	8.43
515.684	8.63
516.114	8.84
516.545	9.05
516.975	9.26
517.406	9.47
517.836	9.68
518.267	9.91
518.697	10.12
519.127	10.33
519.558	10.56
519.988	10.78
520.418	10.99
520.848	11.21
521.278	11.42
521.708	11.65
522.138	11.85
522.567	12.06
522.997	12.26
523.427	12.46
523.857	12.66
524.286	12.85
524.716	13.04
525.145	13.22
525.575	13.4
526.004	13.58
526.433	13.74
526.863	13.91
527.292	14.08
527.721	14.23
528.15	14.38
528.579	14.51
529.008	14.66
529.437	14.79
529.866	14.91
530.295	15.02
530.724	15.13
531.152	15.23
531.581	15.33
532.01	15.43
532.438	15.53
532.867	15.61
533.295	15.7
533.723	15.77
534.152	15.84
534.58	15.9
535.008	15.96
535.436	16.02
535.865	16.07
536.293	16.12
536.721	16.16
537.149	16.2
537.576	16.25
538.004	16.29
538.432	16.34
538.86	16.37
539.287	16.41
539.715	16.46
540.143	16.48
540.57	16.52
540.998	16.55
541.425	16.58
541.852	16.61
542.28	16.64
542.707	16.67
543.134	16.68
543.561	16.72
543.988	16.74
544.415	16.75
544.842	16.77
545.269	16.8
545.696	16.82
546.123	16.84
546.549	16.87
546.976	16.89
547.403	16.89
547.829	16.93
548.256	16.94
548.682	16.96
549.108	16.98
549.535	16.99
549.961	17
550.387	16.99
550.813	17
551.24	16.98
551.666	16.96
552.092	16.97
552.518	16.95
552.943	16.93
553.369	16.91
553.795	16.87
554.221	16.84
554.646	16.79
555.072	16.76
555.498	16.71
555.923	16.66
556.349	16.6
556.774	16.53
557.199	16.46
557.625	16.38
558.05	16.32
558.475	16.24
558.9	16.15
559.325	16.07
559.75	15.98
560.175	15.89
560.6	15.78
561.025	15.68
561.449	15.58
561.874	15.47
562.299	15.36
562.723	15.23
563.148	15.11
563.572	14.99
563.997	14.87
564.421	14.74
564.846	14.6
565.27	14.47
565.694	14.34
566.118	14.2
566.542	14.07
566.966	13.93
567.39	13.8
567.814	13.67
568.238	13.54
568.662	13.41
569.086	13.29
569.509	13.16
569.933	13.04
570.357	12.9
570.78	12.78
571.204	12.66
571.627	12.55
572.05	12.42
572.474	12.31
572.897	12.2
573.32	12.09
573.743	11.97
574.166	11.86
574.589	11.76
575.012	11.67
575.435	11.56
575.858	11.46
576.281	11.37
576.704	11.29
577.126	11.21
577.549	11.11
577.972	11.02
578.394	10.95
578.817	10.87
579.239	10.8
579.661	10.73
580.084	10.66
580.506	10.61
580.928	10.54
581.35	10.46
581.772	10.4
582.194	10.34
582.616	10.28
583.038	10.22
583.46	10.16
583.882	10.09
584.303	10.02
584.725	9.98
585.147	9.91
585.568	9.86
585.99	9.82
586.411	9.77
586.833	9.71
587.254	9.65
587.675	9.61
588.096	9.56
588.518	9.52
588.939	9.48
589.36	9.44
589.781	9.41
590.202	9.37
590.623	9.33
591.043	9.31
591.464	9.28
591.885	9.26
592.305	9.24
592.726	9.23
593.147	9.21
593.567	9.18
593.987	9.16
594.408	9.14
594.828	9.11
595.248	9.09
595.669	9.06
596.089	9.04
596.509	9.01
596.929	8.98
597.349	8.96
597.769	8.94
598.189	8.91
598.608	8.88
599.028	8.86
599.448	8.84
599.867	8.8
600.287	8.77
600.706	8.75
601.126	8.71
601.545	8.68
601.965	8.64
602.384	8.59
602.803	8.56
603.222	8.51
603.641	8.46
604.061	8.42
604.48	8.38
604.898	8.33
605.317	8.28
605.736	8.24
606.155	8.2
606.574	8.15
606.992	8.1
607.411	8.05
607.829	7.98
608.248	7.92
608.666	7.87
609.085	7.8
609.503	7.76
609.921	7.71
610.339	7.65
610.758	7.6
611.176	7.53
611.594	7.49
612.012	7.43
612.43	7.39
612.847	7.35
613.265	7.29
613.683	7.24
614.101	7.2
614.518	7.14
614.936	7.09
615.353	7.04
615.771	7
616.188	6.95
616.606	6.92
617.023	6.88
617.44	6.85
617.857	6.82
618.274	6.79
618.691	6.74
619.108	6.72
619.525	6.69
619.942	6.66
620.359	6.64
620.776	6.62
621.192	6.58
621.609	6.56
622.026	6.54
622.442	6.52
622.859	6.5
623.275	6.5
623.691	6.48
624.108	6.47
624.524	6.46
624.94	6.45
625.356	6.44
625.772	6.44
626.188	6.43
626.604	6.43
627.02	6.41
627.436	6.41
627.852	6.39
628.268	6.39
628.683	6.38
629.099	6.37
629.514	6.37
629.93	6.35
630.345	6.34
630.761	6.32
631.176	6.3
631.591	6.29
632.007	6.27
632.422	6.25
632.837	6.23
633.252	6.2
633.667	6.16
634.082	6.13
634.497	6.1
634.911	6.06
635.326	6.02
635.741	5.98
636.155	5.93
636.57	5.88
636.984	5.83
637.399	5.78
637.813	5.72
638.228	5.67
638.642	5.6
639.056	5.53
639.47	5.48
639.884	5.43
640.298	5.37
640.712	5.31
641.126	5.25
641.54	5.19
641.954	5.13
642.368	5.08
642.781	5.02
643.195	4.98
643.609	4.94
644.022	4.88
644.436	4.85
644.849	4.8
645.262	4.75
645.676	4.7
646.089	4.67
646.502	4.63
646.915	4.61
647.328	4.58
647.741	4.54
648.154	4.51
648.567	4.48
648.98	4.45
649.393	4.43
649.805	4.42
650.218	4.41
650.631	4.4
651.043	4.38
651.456	4.36
651.868	4.35
652.28	4.34
652.693	4.32
653.105	4.31
653.517	4.29
653.929	4.27
654.341	4.25
654.753	4.22
655.165	4.2
655.577	4.17
655.989	4.14
656.401	4.11
656.813	4.09
657.224	4.06
657.636	4.03
658.047	4
658.459	3.97
658.87	3.95
659.282	3.91
659.693	3.9
660.104	3.87
660.515	3.85
660.926	3.82
661.338	3.79
661.749	3.77
662.159	3.74
662.57	3.73
662.981	3.72
663.392	3.7
663.803	3.7
664.213	3.68
664.624	3.67
665.035	3.65
665.445	3.64
665.855	3.65
666.266	3.65
666.676	3.66
667.086	3.65
667.497	3.64
667.907	3.64
668.317	3.65
668.727	3.65
669.137	3.65
669.547	3.67
669.956	3.67
670.366	3.67
670.776	3.67
671.186	3.67
671.595	3.68
672.005	3.69
672.414	3.7
672.824	3.71
673.233	3.73
673.642	3.75
674.052	3.76
674.461	3.77
674.87	3.79
675.279	3.82
675.688	3.84
676.097	3.86
676.506	3.89
676.915	3.91
677.323	3.95
677.732	3.96
678.141	4
678.549	4.02
678.958	4.06
679.366	4.1
679.775	4.12
680.183	4.15
680.592	4.19
681	4.23
681.408	4.26
681.816	4.28
682.224	4.33
682.632	4.37
683.04	4.42
683.448	4.46
683.856	4.5
684.264	4.56
684.671	4.61
685.079	4.68
685.487	4.76
685.894	4.85
686.302	4.96
686.709	5.06
687.116	5.19
687.524	5.32
687.931	5.49
688.338	5.67
688.745	5.86
689.152	6.06
689.559	6.3
689.966	6.54
690.373	6.82
690.78	7.1
691.187	7.41
691.593	7.74
692	8.09
692.407	8.45
692.813	8.83
693.22	9.21
693.626	9.63
694.032	10.06
694.439	10.5
694.845	10.95
695.251	11.42
695.657	11.87
696.063	12.34
696.469	12.84
696.875	13.33
697.281	13.84
697.687	14.38
698.093	14.89
698.498	15.39
698.904	15.91
699.31	16.42
699.715	16.93
700.12	17.47
700.526	18
700.931	18.53
701.337	19.06
701.742	19.56
702.147	20.07
702.552	20.57
702.957	21.07
703.362	21.57
703.767	22.07
704.172	22.57
704.577	23.05
704.981	23.53
705.386	24
705.791	24.5
706.195	24.99
706.6	25.48
707.004	25.96
707.408	26.46
707.813	26.95
708.217	27.44
708.621	27.93
709.025	28.4
709.43	28.87
709.834	29.35
710.237	29.78
710.641	30.25
711.045	30.68
711.449	31.14
711.853	31.58
712.256	32
712.66	32.42
713.064	32.83
713.467	33.26
713.87	33.68
714.274	34.09
714.677	34.51
715.08	34.88
715.484	35.29
715.887	35.69
716.29	36.07
716.693	36.46
717.096	36.85
717.499	37.22
717.901	37.6
718.304	37.96
718.707	38.32
719.109	38.7
719.512	39.06
719.915	39.39
720.317	39.7
720.719	39.99
721.122	40.34
721.524	40.67
721.926	41
722.328	41.3
722.731	41.59
723.133	41.89
723.535	42.17
723.937	42.46
724.338	42.73
724.74	43.01
725.142	43.34
725.544	43.57
725.945	43.82
726.347	44.03
726.748	44.26
727.15	44.5
727.551	44.72
727.952	44.91
728.354	45.13
728.755	45.35
729.156	45.55
729.557	45.7
729.958	45.87
730.359	46.04
730.76	46.24
731.161	46.41
731.562	46.58
731.962	46.71
732.363	46.86
732.763	47.01
733.164	47.13
733.564	47.25
733.965	47.38
734.365	47.52
734.766	47.64
735.166	47.75
735.566	47.83
735.966	47.93
736.366	48.05
736.766	48.13
737.166	48.22
737.566	48.31
737.966	48.41
738.365	48.52
738.765	48.62
739.165	48.7
739.564	48.78
739.964	48.88
740.363	48.94
740.763	49
741.162	49.06
741.561	49.11
741.96	49.16
742.36	49.21
742.759	49.25
743.158	49.28
743.557	49.32
743.955	49.39
744.354	49.43
744.753	49.49
745.152	49.56
745.55	49.63
745.949	49.69
746.348	49.76
746.746	49.79
747.144	49.83
747.543	49.87
747.941	49.92
748.339	49.94
748.737	49.97
749.136	49.98
749.534	49.98
749.932	50.01
750.33	50.03
750.727	50.05
751.125	50.06
751.523	50.07
751.921	50.1
752.318	50.1
752.716	50.11
753.113	50.12
753.511	50.17
753.908	50.2
754.305	50.21
754.703	50.23
755.1	50.23
755.497	50.25
755.894	50.26
756.291	50.28
756.688	50.27
757.085	50.29
757.482	50.29
757.878	50.28
758.275	50.27
758.672	50.28
759.068	50.27
759.465	50.26
759.861	50.28
760.258	50.29
760.654	50.27
761.05	50.31
761.447	50.3
761.843	50.31
762.239	50.29
762.635	50.27
763.031	50.27
763.427	50.27
763.822	50.27
764.218	50.29
764.614	50.28
765.01	50.28
765.405	50.25
765.801	50.21
766.196	50.23
766.592	50.25
766.987	50.27
767.382	50.26
767.778	50.27
768.173	50.3
768.568	50.28
768.963	50.28
769.358	50.3
769.753	50.3
770.148	50.35
770.542	50.32
770.937	50.32
771.332	50.32
771.726	50.34
772.121	50.31
772.515	50.31
772.91	50.3
773.304	50.32
773.699	50.3
774.093	50.3
774.487	50.3
774.881	50.33
775.275	50.31
775.669	50.27
776.063	50.26
776.457	50.28
776.851	50.25
777.245	50.23
777.638	50.2
778.032	50.21
778.425	50.24
778.819	50.24
779.212	50.23
779.606	50.23
779.999	50.25
780.392	50.27
780.786	50.25
781.179	50.26
781.572	50.3
781.965	50.34
782.358	50.33
782.751	50.32
783.143	50.3
783.536	50.28
783.929	50.26
784.322	50.29
784.714	50.27
785.107	50.31
785.499	50.3
785.891	50.29
786.284	50.29
786.676	50.28
787.068	50.26
787.46	50.25
787.852	50.25
788.245	50.27
788.636	50.26
789.028	50.25
789.42	50.22
789.812	50.23
790.204	50.22
790.595	50.21
790.987	50.23
791.378	50.24
791.77	50.25
792.161	50.26
792.553	50.25
792.944	50.24
793.335	50.25
793.726	50.26
794.117	50.24
794.508	50.2
794.899	50.21
795.29	50.21
795.681	50.18
796.072	50.19
796.463	50.2
796.853	50.17
797.244	50.17
797.634	50.18
798.025	50.2
798.415	50.23
798.806	50.25
799.196	50.22
799.586	50.22
799.976	50.24
800.366	50.23
800.756	50.24
801.146	50.25
801.536	50.27
801.926	50.24
802.316	50.21
802.706	50.19
803.095	50.19
803.485	50.21
803.874	50.19
804.264	50.16
804.653	50.17
805.043	50.17
805.432	50.16
805.821	50.16
806.21	50.18
806.599	50.21
806.988	50.21
807.377	50.21
807.766	50.21
808.155	50.19
808.544	50.2
808.933	50.19
809.321	50.19
809.71	50.17
810.098	50.15
810.487	50.13
810.875	50.11
811.264	50.1
811.652	50.1
812.04	50.11
812.428	50.14
812.816	50.15
813.204	50.17
813.592	50.15
813.98	50.18
814.368	50.2
814.756	50.2
815.144	50.2
815.531	50.2
815.919	50.19
816.306	50.18
816.694	50.15
817.081	50.14
817.469	50.13
817.856	50.14
818.243	50.12
818.63	50.07
819.017	50.06
819.404	50.06
819.791	50.07
820.178	50.08
820.565	50.05
820.952	50.02
821.339	49.99
821.725	49.98
822.112	49.99
822.498	50.01
822.885	50.05
823.271	50.04
823.657	50.02
824.044	50.02
824.43	50.02
824.816	50.01
825.202	50.02
825.588	50.07
825.974	50.08
826.36	50.06
826.746	50.05
827.132	50.06
827.517	50.09
827.903	50.11
828.289	50.12
828.674	50.14
829.06	50.15
829.445	50.15
829.83	50.15
830.216	50.12
830.601	50.14
830.986	50.14
831.371	50.11
831.756	50.11
832.141	50.11
832.526	50.09
832.911	50.07
833.295	50.08
833.68	50.09
834.065	50.09
834.449	50.11
834.834	50.08
835.218	50.09
835.603	50.11
835.987	50.08
836.371	50.07
836.755	50.09
837.139	50.08
837.524	50.09
837.908	50.11
838.291	50.14
838.675	50.13
839.059	50.16
839.443	50.15
839.827	50.14
840.21	50.14
840.594	50.16
840.977	50.13
841.361	50.14
841.744	50.12
842.127	50.11
842.511	50.07
842.894	50.06
843.277	50.05
843.66	50.05
844.043	50.06
844.426	50.08
844.809	50.09
845.191	50.12
845.574	50.13
845.957	50.16
846.339	50.17
846.722	50.2
847.104	50.22
847.487	50.23
847.869	50.24
848.252	50.22
848.634	50.21
849.016	50.21
849.398	50.2
849.78	50.2
850.162	50.19
850.544	50.16
850.926	50.16
851.307	50.18
851.689	50.17
852.071	50.16
852.452	50.17
852.834	50.18
853.215	50.17
853.597	50.17
853.978	50.17
854.359	50.18
854.741	50.2
855.122	50.17
855.503	50.14
855.884	50.14
856.265	50.15
856.646	50.13
857.026	50.13
857.407	50.15
857.788	50.16
858.169	50.18
858.549	50.17
858.93	50.16
859.31	50.15
859.69	50.16
860.071	50.2
860.451	50.19
860.831	50.22
861.211	50.18
861.591	50.16
861.971	50.14
862.351	50.14
862.731	50.15
863.111	50.14
863.491	50.16
863.87	50.13
864.25	50.1
864.629	50.11
865.009	50.09
865.388	50.08
865.768	50.09
866.147	50.1
866.526	50.11
866.905	50.12
867.284	50.12
867.663	50.13
868.042	50.13
868.421	50.13
868.8	50.14
869.179	50.14
869.558	50.16
869.936	50.15
870.315	50.12
870.693	50.09
871.072	50.08
871.45	50.1
871.828	50.1
872.207	50.14
872.585	50.11
872.963	50.11
873.341	50.1
873.719	50.11
874.097	50.12
874.475	50.15
874.853	50.17
875.23	50.18
875.608	50.16
875.986	50.16
876.363	50.15
876.741	50.17
877.118	50.18
877.495	50.19
877.873	50.17
878.25	50.19
878.627	50.2
879.004	50.21
879.381	50.21
879.758	50.21
880.135	50.22
880.512	50.23
880.889	50.22
881.265	50.2
881.642	50.23
882.019	50.26
882.395	50.26
882.772	50.23
883.148	50.23
883.524	50.22
883.901	50.22
884.277	50.21
884.653	50.17
885.029	50.18
885.405	50.18
885.781	50.12
886.157	50.12
886.532	50.1
886.908	50.09
887.284	50.07
887.659	50.05
888.035	50.05
888.411	50.03
888.786	50.05
889.161	50.03
889.537	50.02
889.912	50.04
890.287	50.05
890.662	50.03
891.037	50.04
891.412	50.03
891.787	50.04
892.162	50.03
892.536	50.04
892.911	50.03
893.286	50.06
893.66	50.08
894.035	50.07
894.409	50.06
894.784	50.07
895.158	50.07
895.532	50.09
895.906	50.08
896.281	50.08
896.655	50.07
897.029	50.08
897.402	50.06
897.776	50.07
898.15	50.09
898.524	50.1
898.898	50.1
899.271	50.1
899.645	50.12
900.018	50.13
900.392	50.16
900.765	50.17
901.138	50.15
901.511	50.15
901.884	50.14
902.258	50.15
902.631	50.15
903.003	50.15
903.376	50.14
903.749	50.13
904.122	50.14
904.495	50.15
904.867	50.14
905.24	50.19
905.612	50.22
905.985	50.19
906.357	50.18
906.729	50.19
907.102	50.19
907.474	50.19
907.846	50.2
908.218	50.18
908.59	50.16
908.962	50.18
909.334	50.17
909.705	50.13
910.077	50.15
910.449	50.14
910.82	50.13
911.192	50.1
911.563	50.12
911.935	50.09
912.306	50.11
912.677	50.12
913.048	50.12
913.419	50.08
913.79	50.1
914.161	50.1
914.532	50.11
914.903	50.12
915.274	50.13
915.645	50.13
916.015	50.17
916.386	50.17
916.756	50.16
917.127	50.16
917.497	50.17
917.868	50.16
918.238	50.15
918.608	50.16
918.978	50.15
919.348	50.18
919.718	50.16
920.088	50.15
920.458	50.13
920.828	50.11
921.198	50.06
921.567	50.07
921.937	50.08
922.306	50.04
922.676	50.01
923.045	49.99
923.415	49.94
923.784	49.96
924.153	49.97
924.522	49.98
924.891	49.96
925.26	49.99
925.629	50
925.998	49.96
926.367	49.98
926.736	50.01
927.104	50.01
927.473	49.98
927.842	49.93
928.21	49.91
928.578	49.87
928.947	49.9
929.315	49.84
929.683	49.81
930.051	49.79
930.42	49.76
930.788	49.69
931.156	49.65
931.523	49.67
931.891	49.71
932.259	49.68
932.627	49.68
932.994	49.65
933.362	49.63
933.729	49.66
934.097	49.64
934.464	49.64
934.831	49.68
935.199	49.69
935.566	49.64
935.933	49.61
936.3	49.58
936.667	49.55
937.034	49.54
937.401	49.6
937.767	49.58
938.134	49.59
938.501	49.59
938.867	49.59
939.234	49.6
939.6	49.61
939.967	49.57
940.333	49.58
940.699	49.64
941.065	49.6
941.431	49.56
941.798	49.53
942.163	49.53
942.529	49.56
942.895	49.55
943.261	49.52
943.627	49.51
943.992	49.54
944.358	49.56
944.723	49.52
945.089	49.47
945.454	49.5
945.82	49.48
946.185	49.5
946.55	49.45
946.915	49.45
947.28	49.45
947.645	49.46
948.01	49.47
948.375	49.43
948.74	49.42
949.104	49.43
949.469	49.41
949.834	49.44
950.198	49.36
950.562	49.34
950.927	49.3
951.291	49.26
951.655	49.2
952.02	49.19
952.384	49.15
952.748	49.12
953.112	49.06
953.476	49
953.839	48.9
954.203	48.93
954.567	48.92
954.931	48.9
955.294	48.88
955.658	48.93
956.021	48.89
956.385	48.86
956.748	48.84
957.111	48.91
957.474	48.93
957.837	48.89
958.2	48.87
958.563	48.84
958.926	48.8
959.289	48.8
959.652	48.73
960.015	48.72
960.377	48.75
960.74	48.75
961.102	48.73
961.465	48.78
961.827	48.86
962.189	48.88
962.552	48.87
962.914	48.89
963.276	48.91
963.638	48.94
964	48.93
964.362	48.91
964.724	48.95
965.085	48.9
965.447	48.82
965.809	48.77
966.17	48.71
966.532	48.73
966.893	48.72
967.255	48.72
967.616	48.7
967.977	48.74
968.338	48.7
968.699	48.62
969.061	48.62
969.421	48.65
969.782	48.68
970.143	48.66
970.504	48.69
970.865	48.67
971.225	48.62
971.586	48.63
971.946	48.56
972.307	48.59
972.667	48.6
973.027	48.61
973.388	48.63
973.748	48.61
974.108	48.7
974.468	48.68
974.828	48.67
975.188	48.69
975.548	48.63
975.907	48.63
976.267	48.61
976.627	48.64
976.986	48.6
977.346	48.53
977.705	48.54
978.064	48.52
978.424	48.48
978.783	48.48
979.142	48.4
979.501	48.45
979.86	48.47
980.219	48.47
980.578	48.44
980.937	48.44
981.296	48.47
981.654	48.52
982.013	48.55
982.371	48.57
982.73	48.56
983.088	48.62
983.447	48.58
983.805	48.58
984.163	48.57
984.521	48.57
984.879	48.58
985.237	48.58
985.595	48.54
985.953	48.44
986.311	48.38
986.669	48.4
987.026	48.36
987.384	48.4
987.741	48.33
988.099	48.36
988.456	48.37
988.814	48.32
989.171	48.32
989.528	48.29
989.885	48.33
990.242	48.33
990.599	48.34
990.956	48.45
991.313	48.5
991.67	48.52
992.027	48.59
992.383	48.65
992.74	48.79
993.096	48.71
993.453	48.73
993.809	48.7
994.165	48.79
994.522	48.77
994.878	48.72
995.234	48.64
995.59	48.7
995.946	48.67
996.302	48.7
996.658	48.72
997.013	48.79
997.369	48.76
997.725	48.81
998.08	48.8
998.436	48.83
998.791	48.84
999.147	48.86
999.502	48.83
999.857	48.77
1000.212	48.63
1000.567	48.57
1000.922	48.46
1001.277	48.53
1001.632	48.51
1001.987	48.48
1002.342	48.43
1002.696	48.35
1003.051	48.36
1003.406	48.51
1003.76	48.53
1004.114	48.53
1004.469	48.53
1004.823	48.83
1005.177	48.7
1005.531	48.76
1005.885	48.71
1006.239	48.76
1006.593	48.89
1006.947	48.87
1007.301	48.65
1007.655	48.57
1008.008	48.68
1008.362	48.64
1008.715	48.36
1009.069	48.49
1009.422	48.41
1009.776	48.43
1010.129	48.43
1010.482	48.33
1010.835	48.42
1011.188	48.46
1011.541	48.54
1011.894	48.51
1012.247	48.52
1012.6	48.57
1012.952	48.43
1013.305	48.45
1013.657	48.39
1014.01	48.41
1014.362	48.48
1014.715	48.4
1015.067	48.47
1015.419	48.48
1015.771	48.45
1016.123	48.42
1016.475	48.51
1016.827	48.58
1017.179	48.51
1017.531	48.65
1017.883	48.53
1018.234	48.52
1018.586	48.52
1018.938	48.5
1019.289	48.45
1019.64	48.44
1019.992	48.29
1020.343	48.18
1020.694	48.04
1021.045	48.02
1021.396	47.92
1021.747	48.11
1022.098	48.11
1022.449	48.03
1022.8	48.08
1023.151	47.92
1023.501	48.06
1023.852	48.23
1024.202	48.04
1024.553	48.02
1024.903	48.15
1025.253	48.05
1025.604	48.08
1025.954	47.73
1026.304	47.78
1026.654	47.55
1027.004	47.55
1027.354	47.5
1027.703	47.24
1028.053	47.36
1028.403	47.37
1028.753	47.25
1029.102	47.33
1029.452	47.04
1029.801	47.23
1030.15	47.15
1030.499	47.2
897.758	687.05
901.051	696.61
904.343	695.94
907.636	710.64
910.928	689.87
914.22	689.55
917.511	680.32
920.803	649.91
924.094	650.78
927.384	631.19
930.675	608.71
933.965	607.83
937.255	571.5
940.544	549.32
943.834	522.8
947.123	520.38
950.411	491.94
953.7	483.87
956.988	458.91
960.276	441.04
963.563	435.53
966.851	423.23
970.138	420.3
973.424	408.62
976.711	410.39
979.997	392.18
983.283	389.23
986.568	382.24
989.853	371.36
993.138	366.59
996.423	353.32
999.708	343.9
1002.992	338.61
1006.275	323.05
1009.559	320.5
1012.842	309.91
1016.125	303.04
1019.408	296.65
1022.69	294.22
1025.972	287.93
1029.254	281.77
1032.536	276.86
1035.817	272.38
1039.098	269.87
1042.379	265.13
1045.659	262.38
1048.939	256.82
1052.219	251.49
1055.498	249.91
1058.778	243.35
1062.057	239.06
1065.335	236.47
1068.614	234.04
1071.892	231.16
1075.17	225.33
1078.447	222.07
1081.724	219.72
1085.001	218.81
1088.278	215.94
1091.554	211.28
1094.83	210.98
1098.106	209.68
1101.382	208.11
1104.657	207.21
1107.932	203.96
1111.206	204.18
1114.481	200.15
1117.755	199.1
1121.029	196.76
1124.302	195.31
1127.575	193.35
1130.848	191.73
1134.121	190.07
1137.393	188.75
1140.665	184.95
1143.937	183.98
1147.208	183.64
1150.48	182.37
1153.75	180.38
1157.021	179.07
1160.291	179.18
1163.561	176.22
1166.831	176.48
1170.101	174.77
1173.37	175.53
1176.639	175.98
1179.907	174.94
1183.176	172.87
1186.444	172.54
1189.711	172.07
1192.979	171.27
1196.246	170.36
1199.513	171.54
1202.78	170.62
1206.046	170.68
1209.312	168.7
1212.578	168.79
1215.843	169.48
1219.108	168.5
1222.373	172.03
1225.638	173.76
1228.902	175.09
1232.166	175.65
1235.43	176.35
1238.693	177.87
1241.956	178.72
1245.219	180.63
1248.482	181.3
1251.744	181.42
1255.006	182.11
1258.268	177.98
1261.529	175.96
1264.79	175.22
1268.051	173.78
1271.312	172.67
1274.572	170.92
1277.832	170.1
1281.092	167.12
1284.351	165.93
1287.61	166.13
1290.869	163.92
1294.128	163.47
1297.386	163.99
1300.644	162.06
1303.902	163.12
1307.159	162.33
1310.416	161.99
1313.673	161.09
1316.93	162.51
1320.186	162.12
1323.442	161.9
1326.697	163.66
1329.953	164.03
1333.208	163.2
1336.463	165.77
1339.717	165.27
1342.972	166.85
1346.226	168.25
1349.479	168.93
1352.733	170.12
1355.986	170.65
1359.238	170.38
1362.491	170.8
1365.743	171.27
1368.995	170.92
1372.247	170.47
1375.498	169.29
1378.749	169.11
1382	167.67
1385.251	166.25
1388.501	164.9
1391.751	163.79
1395	163
1398.25	161.07
1401.499	158.77
1404.748	158.46
1407.996	155.19
1411.244	154.8
1414.492	152.98
1417.74	149.78
1420.987	149.16
1424.234	147.46
1427.481	145.95
1430.728	145.28
1433.974	144.69
1437.22	143.45
1440.465	142.74
1443.711	141.48
1446.956	139.85
1450.201	139.33
1453.445	138.33
1456.689	137.45
1459.933	134.98
1463.177	134.24
1466.42	131.52
1469.663	129.9
1472.906	129.25
1476.148	126.49
1479.391	125.69
1482.633	125.18
1485.874	123.12
1489.115	122.03
1492.356	121.28
1495.597	121.41
1498.838	119.52
1502.078	119.93
1505.318	119.73
1508.557	119.4
1511.797	119.33
1515.036	118.42
1518.274	119.48
1521.513	118.33
1524.751	118.59
1527.989	118.15
1531.227	118.52
1534.464	118.93
1537.701	118.61
1540.938	118.2
1544.174	118.09
1547.41	118.51
1550.646	117.7
1553.882	117.03
1557.117	116.63
1560.352	115.93
1563.587	116.13
1566.821	115.47
1570.055	115.19
1573.289	114.72
1576.523	114.85
1579.756	114.01
1582.989	113.77
1586.222	113.7
1589.454	113.66
1592.686	115.24
1595.918	114.91
1599.15	114.61
1602.381	115.2
1605.612	115.05
1608.843	115.29
1612.073	114.82
1615.303	115.83
1618.533	115.74
1621.762	116.58
1624.992	116.24
1628.221	115.45
1631.449	115.31
1634.678	115.68
1637.906	116.02
1641.134	115.91
1644.361	115.98
1647.588	117
1650.815	116.48
1654.042	116.34
1657.269	116.62
1660.495	116.82
1663.72	116.38
1666.946	117.36
1670.171	117.27
1673.396	116.93
1676.621	117.53
1679.845	117.48
1683.069	117.1
1686.293	117.65
1689.517	117.92
1692.74	117.77
1695.963	118.35
1699.185	119.09
1702.408	119.07
1705.63	119.78
1708.852	120.01
1712.073	119.8
1715.294	120.01
1718.515	121.12
1721.736	120.95
1724.956	121.2
1728.176	121.29
1731.396	121.6
1734.616	121.45
1737.835	121.75
1741.054	120.11
1744.272	120.57
1747.491	121.28
1750.709	121.25
1753.927	120.36
1757.144	120.56
1760.361	120.5
1763.578	120.76
1766.795	120.03
1770.011	120.87
1773.227	120.55
1776.443	122.02
1779.658	121.36
1782.874	121.71
1786.089	121.96
1789.303	122.54
1792.518	122.9
1795.732	122.89
1798.945	123.56
1802.159	124.51
1805.372	124.44
1808.585	125.93
1811.797	126.48
1815.01	127.46
1818.222	128
1821.434	128.87
1824.645	128.73
1827.856	131.12
1831.067	131.76
1834.278	132.27
1837.488	132.51
1840.698	132.91
1843.908	132.35
1847.117	132.16
1850.326	132.43
1853.535	130.86
1856.744	131.95
1859.952	131.76
1863.16	129.64
1866.368	128.48
1869.575	128.18
1872.782	125.86
1875.989	124.15
1879.196	123.21
1882.402	121.74
1885.608	121.31
1888.814	121.25
1892.019	119.82
1895.224	118.64
1898.429	118.76
1901.634	118.67
1904.838	118.74
1908.042	119.54
1911.246	120.11
1914.449	120.59
1917.652	120.91
1920.855	120.45
1924.058	120.55
1927.26	120.08
1930.462	120.55
1933.664	120.52
1936.865	120.57
1940.066	119.79
1943.267	118.83
1946.467	119.2
1949.668	119.71
1952.868	120.86
1956.067	121.55
1959.267	121.2
1962.466	121.7
1965.665	121.26
1968.863	121.79
1972.061	123.48
1975.259	123.68
1978.457	125.81
1981.654	126.69
1984.852	126.9
1988.048	126.96
1991.245	127.3
1994.441	128.6
1997.637	130.51
2000.833	133.44
2004.028	134.92
2007.223	135.69
2010.418	137.8
2013.613	139.57
2016.807	141.66
2020.001	143.36
2023.194	145.44
2026.388	150
2029.581	152.95
2032.774	153.56
2035.966	155.81
2039.158	156.79
2042.35	160.15
2045.542	161.09
2048.733	162.97
2051.924	164.18
2055.115	167.19
2058.306	167.63
2061.496	168.13
2064.686	168.29
2067.875	171.24
2071.065	171.94
2074.254	171.8
2077.442	173.96
2080.631	174.41
2083.819	176.86
2087.007	178.02
2090.195	179.7
2093.382	181.77
2096.569	181.37
2099.756	185.47
2102.942	186.24
2106.128	188.25
2109.314	192.55
2112.5	191.66
2115.685	196.82
2118.87	196.97
2122.055	201.21
2125.239	202.2
2128.424	204.9
2131.608	206.36
2134.791	208.65
2137.974	209.81
2141.157	210.24
2144.34	210.79
2147.523	213.56
2150.705	212.04
2153.887	215.04
2157.068	215.31
2160.25	212.75
2163.431	214.13
2166.611	216.23
2169.792	220.56
2172.972	222.26
2176.152	223.57
2179.331	226.48
2182.511	229.93
2185.69	231.91
2188.868	235.43
2192.047	236.47
2195.225	245.07
2198.403	248.29
2201.58	252.77
2204.758	256.43
2207.935	261.5
2211.111	266.77
2214.288	269.64
2217.464	270.24
2220.64	276
2223.815	278.37
2226.991	288.79
2230.166	287.71
2233.34	293.04
2236.515	296.65
2239.689	298.33
2242.863	300.55
2246.036	309.12
2249.209	306.99
2252.382	312.42
2255.555	319.54
2258.727	321.62
2261.9	324.63
2265.071	329.29
2268.243	333.42
2271.414	339.26
2274.585	345.06
2277.756	349.12
2280.926	351.81
2284.096	358.72
2287.266	365.46
2290.436	369.18
2293.605	377.63
2296.774	385.59
2299.942	397.88
2303.111	402.1
2306.279	409.48
2309.447	415.56
2312.614	425.2
2315.781	434.26
2318.948	457.47
2322.115	452.34
2325.281	476.65
2328.447	464.81
2331.613	484.76
2334.779	478.81
2337.944	500.49
2341.109	503.92
2344.274	520.11
2347.438	535.18
2350.602	537.22
2353.766	555.43
2356.929	564.19
2360.092	555.6
2363.255	598.43
2366.418	597.91
2369.58	607.57
2372.742	639.7
2375.904	659.05
2379.066	653.38
2382.227	647.42
2385.388	696.81
2388.548	693.86
2391.709	700.48
2394.869	785.96
2398.029	752.76
2401.188	773.85
2404.347	771.22
2407.506	764.17
2410.665	780.46
2413.823	828.36
2416.981	874.34
2420.139	849.06
2423.296	840.19
2426.453	874.37
2429.61	837.35
2432.767	872.14
2435.923	860.98
2439.079	947.63
2442.235	957.38
2445.391	955.1
2448.546	942.53
2451.701	917.58
2454.855	919.65
2458.009	968.23
2461.163	1014.5
2464.317	1056.64
2467.471	1083.89
2470.624	1083.06
2473.777	1051.6
2476.929	1026.3
2480.082	994.53
2483.234	986.37
2486.385	1034.36
2489.537	1039.8
2492.688	1080.04
2495.839	1048.69
2498.989	1023.88
2502.14	1029.2
2505.29	1041.32
2508.439	1053.35
2511.589	1051.96
2514.738	1151.27
2517.887	1127.99
2521.035	1188.78
2524.183	1190.26
2527.331	1200.67
2530.479	1193.2
2533.627	1203.62
