Data from N_1_DEC_CT_2n_Splice17_12-18-45-574.txt Node
Date: Sat Mar 07 12:18:45 EST 2020
User: sa697716
Spectrometer: NQ5500242
Trigger mode: 0
Integration Time (sec): 1.450000E-1
Scans to average: 20
Nonlinearity correction enabled: false
Boxcar width: 5
Storing dark spectrum: false
XAxis mode: Wavelengths
Number of Pixels in Spectrum: 512
>>>>>Begin Spectral Data<<<<<
187.83	89.99
188.298	93.59
188.766	85.44
189.233	68.1
189.701	63.76
190.169	84.33
190.636	75.53
191.104	57.54
191.571	-117
192.039	-26.23
192.506	-43.84
192.974	90.18
193.441	120.14
193.908	30.88
194.375	6.57
194.842	-23.99
195.31	31.34
195.777	88.26
196.244	39.38
196.711	36.44
197.177	37.4
197.644	36.3
198.111	34.97
198.578	34.96
199.045	34.8
199.511	34.48
199.978	34.36
200.445	34.43
200.911	34.37
201.378	34.27
201.844	34.03
202.31	33.41
202.777	33.57
203.243	33.85
203.709	33.68
204.176	33.85
204.642	33.98
205.108	34.03
205.574	34.08
206.04	33.66
206.506	33.46
206.972	33.42
207.438	33.28
207.903	32.6
208.369	31.75
208.835	31.11
209.301	30.36
209.766	29.4
210.232	28.45
210.697	27.54
211.163	26.95
211.628	26.34
212.094	25.52
212.559	25.14
213.024	24.76
213.49	24.32
213.955	23.67
214.42	23.17
214.885	22.68
215.35	21.96
215.815	20.84
216.28	19.43
216.745	18.04
217.21	16.75
217.675	15.39
218.14	14.2
218.604	13.23
219.069	12.46
219.534	11.72
219.998	11.12
220.463	10.64
220.927	10.2
221.392	9.89
221.856	9.58
222.32	9.32
222.785	9.13
223.249	8.93
223.713	8.76
224.177	8.59
224.642	8.44
225.106	8.28
225.57	8.11
226.034	8
226.497	7.87
226.961	7.77
227.425	7.65
227.889	7.53
228.353	7.43
228.816	7.33
229.28	7.23
229.744	7.14
230.207	7.04
230.671	6.96
231.134	6.88
231.597	6.82
232.061	6.74
232.524	6.65
232.987	6.58
233.45	6.52
233.914	6.45
234.377	6.38
234.84	6.32
235.303	6.28
235.766	6.22
236.229	6.17
236.691	6.09
237.154	6.03
237.617	6
238.08	5.94
238.542	5.87
239.005	5.82
239.468	5.77
239.93	5.72
240.393	5.68
240.855	5.62
241.317	5.56
241.78	5.52
242.242	5.47
242.704	5.42
243.166	5.38
243.629	5.34
244.091	5.29
244.553	5.25
245.015	5.2
245.477	5.16
245.939	5.12
246.4	5.08
246.862	5.04
247.324	5
247.786	4.97
248.247	4.93
248.709	4.89
249.17	4.85
249.632	4.83
250.093	4.8
250.555	4.77
251.016	4.74
251.477	4.71
251.939	4.69
252.4	4.66
252.861	4.64
253.322	4.62
253.783	4.61
254.244	4.6
254.705	4.56
255.166	4.54
255.627	4.53
256.088	4.51
256.549	4.5
257.009	4.48
257.47	4.45
257.931	4.43
258.391	4.4
258.852	4.37
259.312	4.36
259.773	4.34
260.233	4.33
260.694	4.31
261.154	4.29
261.614	4.26
262.074	4.25
262.534	4.23
262.994	4.22
263.455	4.21
263.915	4.2
264.374	4.19
264.834	4.18
265.294	4.17
265.754	4.17
266.214	4.16
266.673	4.16
267.133	4.15
267.593	4.14
268.052	4.14
268.512	4.14
268.971	4.14
269.431	4.13
269.89	4.12
270.349	4.12
270.809	4.12
271.268	4.11
271.727	4.11
272.186	4.1
272.645	4.11
273.104	4.09
273.563	4.08
274.022	4.07
274.481	4.07
274.94	4.06
275.399	4.05
275.857	4.04
276.316	4.03
276.775	4.03
277.233	4.02
277.692	4.01
278.15	4
278.609	4
279.067	3.99
279.525	3.99
279.984	3.98
280.442	3.97
280.9	3.97
281.358	3.96
281.816	3.96
282.274	3.96
282.732	3.94
283.19	3.94
283.648	3.94
284.106	3.93
284.564	3.92
285.021	3.92
285.479	3.91
285.937	3.9
286.394	3.89
286.852	3.88
287.309	3.87
287.767	3.85
288.224	3.84
288.682	3.83
289.139	3.82
289.596	3.8
290.053	3.79
290.511	3.78
290.968	3.77
291.425	3.75
291.882	3.75
292.339	3.73
292.796	3.73
293.252	3.72
293.709	3.72
294.166	3.72
294.623	3.72
295.079	3.71
295.536	3.7
295.992	3.69
296.449	3.69
296.905	3.69
297.362	3.69
297.818	3.68
298.274	3.68
298.731	3.67
299.187	3.66
299.643	3.65
300.099	3.65
300.555	3.64
301.011	3.64
301.467	3.64
301.923	3.63
302.379	3.62
302.835	3.62
303.291	3.61
303.746	3.61
304.202	3.61
304.658	3.61
305.113	3.6
305.569	3.6
306.024	3.6
306.479	3.59
306.935	3.58
307.39	3.58
307.845	3.58
308.301	3.58
308.756	3.58
309.211	3.57
309.666	3.57
310.121	3.57
310.576	3.57
311.031	3.57
311.486	3.57
311.94	3.56
312.395	3.55
312.85	3.55
313.305	3.55
313.759	3.55
314.214	3.55
314.668	3.54
315.123	3.54
315.577	3.53
316.032	3.52
316.486	3.52
316.94	3.52
317.394	3.52
317.849	3.51
318.303	3.49
318.757	3.48
319.211	3.47
319.665	3.46
320.119	3.45
320.572	3.45
321.026	3.44
321.48	3.44
321.934	3.43
322.387	3.41
322.841	3.41
323.295	3.41
323.748	3.41
324.202	3.41
324.655	3.41
325.108	3.41
325.562	3.41
326.015	3.41
326.468	3.4
326.921	3.4
327.374	3.4
327.827	3.41
328.28	3.4
328.733	3.4
329.186	3.39
329.639	3.39
330.092	3.39
330.545	3.39
330.997	3.39
331.45	3.39
331.903	3.4
332.355	3.4
332.808	3.39
333.26	3.39
333.713	3.38
334.165	3.38
334.617	3.38
335.069	3.37
335.522	3.37
335.974	3.38
336.426	3.37
336.878	3.36
337.33	3.35
337.782	3.36
338.234	3.37
338.686	3.37
339.137	3.38
339.589	3.37
340.041	3.38
340.493	3.38
340.944	3.36
341.396	3.36
341.847	3.35
342.299	3.34
342.75	3.32
343.201	3.3
343.653	3.29
344.104	3.28
344.555	3.27
345.006	3.25
345.457	3.24
345.908	3.23
346.359	3.23
346.81	3.22
347.261	3.22
347.712	3.21
348.163	3.21
348.613	3.21
349.064	3.21
349.515	3.22
349.965	3.22
350.416	3.21
350.866	3.21
351.317	3.21
351.767	3.21
352.217	3.21
352.668	3.21
353.118	3.21
353.568	3.21
354.018	3.21
354.468	3.2
354.918	3.2
355.368	3.2
355.818	3.2
356.268	3.21
356.718	3.21
357.168	3.2
357.617	3.2
358.067	3.19
358.517	3.2
358.966	3.2
359.416	3.2
359.865	3.2
360.315	3.21
360.764	3.21
361.213	3.19
361.663	3.19
362.112	3.19
362.561	3.19
363.01	3.19
363.459	3.17
363.908	3.16
364.357	3.16
364.806	3.15
365.255	3.16
365.703	3.16
366.152	3.17
366.601	3.17
367.05	3.17
367.498	3.17
367.947	3.18
368.395	3.19
368.844	3.2
369.292	3.19
369.74	3.19
370.189	3.19
370.637	3.19
371.085	3.19
371.533	3.19
371.981	3.19
372.429	3.19
372.877	3.18
373.325	3.18
373.773	3.18
374.221	3.18
374.669	3.17
375.116	3.16
375.564	3.15
376.012	3.15
376.459	3.15
376.907	3.16
377.354	3.17
377.801	3.17
378.249	3.16
378.696	3.16
379.143	3.17
379.591	3.17
380.038	3.18
380.485	3.19
380.932	3.2
381.379	3.2
381.826	3.2
382.273	3.2
382.72	3.2
383.166	3.21
383.613	3.22
384.06	3.23
384.506	3.24
384.953	3.26
385.4	3.27
385.846	3.29
386.292	3.3
386.739	3.31
387.185	3.33
387.631	3.34
388.078	3.35
388.524	3.37
388.97	3.38
389.416	3.4
389.862	3.42
390.308	3.45
390.754	3.47
391.2	3.51
391.645	3.53
392.091	3.56
392.537	3.59
392.983	3.62
393.428	3.66
393.874	3.69
394.319	3.74
394.765	3.79
395.21	3.82
395.655	3.86
396.101	3.92
396.546	3.97
396.991	4.03
397.436	4.09
397.881	4.17
398.326	4.24
398.771	4.3
399.216	4.35
399.661	4.4
400.106	4.46
400.551	4.5
400.995	4.53
401.44	4.57
401.885	4.6
402.329	4.64
402.774	4.67
403.218	4.72
403.663	4.78
404.107	4.82
404.551	4.87
404.995	4.9
405.44	4.94
405.884	5
406.328	5.05
406.772	5.1
407.216	5.15
407.66	5.2
408.104	5.24
408.547	5.27
408.991	5.32
409.435	5.36
409.879	5.42
410.322	5.49
410.766	5.55
411.209	5.61
411.653	5.67
412.096	5.72
412.54	5.77
412.983	5.82
413.426	5.9
413.869	5.94
414.312	5.99
414.756	6.04
415.199	6.07
415.642	6.1
416.085	6.14
416.527	6.15
416.97	6.17
417.413	6.19
417.856	6.19
418.298	6.2
418.741	6.21
419.184	6.24
419.626	6.25
420.069	6.28
420.511	6.29
420.953	6.32
421.396	6.36
421.838	6.39
422.28	6.43
422.722	6.48
423.164	6.51
423.606	6.54
424.048	6.57
424.49	6.57
424.932	6.55
425.374	6.51
425.816	6.45
426.258	6.4
426.699	6.37
427.141	6.36
427.582	6.38
428.024	6.42
428.465	6.46
428.907	6.47
429.348	6.5
429.789	6.56
430.231	6.65
430.672	6.76
431.113	6.89
431.554	7.01
431.995	7.1
432.436	7.16
432.877	7.23
433.318	7.28
433.759	7.36
434.2	7.43
434.64	7.52
435.081	7.61
435.522	7.67
435.962	7.74
436.403	7.8
436.843	7.85
437.284	7.88
437.724	7.92
438.164	7.96
438.604	8.01
439.045	8.08
439.485	8.12
439.925	8.15
440.365	8.19
440.805	8.2
441.245	8.23
441.685	8.27
442.125	8.33
442.564	8.38
443.004	8.42
443.444	8.47
443.883	8.52
444.323	8.57
444.762	8.64
445.202	8.71
445.641	8.79
446.081	8.87
446.52	8.95
446.959	9.01
447.398	9.08
447.837	9.13
448.276	9.14
448.716	9.16
449.154	9.2
449.593	9.21
450.032	9.21
450.471	9.2
450.91	9.19
451.349	9.17
451.787	9.17
452.226	9.14
452.664	9.15
453.103	9.16
453.541	9.18
453.98	9.18
454.418	9.17
454.856	9.16
455.295	9.14
455.733	9.11
456.171	9.11
456.609	9.09
457.047	9.09
457.485	9.09
457.923	9.09
458.361	9.1
458.798	9.12
459.236	9.13
459.674	9.15
460.111	9.18
460.549	9.23
460.987	9.25
461.424	9.3
461.862	9.32
462.299	9.34
462.736	9.36
463.173	9.39
463.611	9.41
464.048	9.46
464.485	9.5
464.922	9.55
465.359	9.59
465.796	9.63
466.233	9.66
466.67	9.69
467.106	9.75
467.543	9.8
467.98	9.86
468.416	9.91
468.853	9.96
469.29	10
469.726	10.04
470.162	10.09
470.599	10.14
471.035	10.18
471.471	10.22
471.907	10.22
472.344	10.24
472.78	10.26
473.216	10.26
473.652	10.28
474.088	10.28
474.523	10.3
474.959	10.3
475.395	10.28
475.831	10.29
476.266	10.29
476.702	10.29
477.138	10.29
477.573	10.28
478.008	10.28
478.444	10.25
478.879	10.23
479.314	10.19
479.75	10.15
480.185	10.1
480.62	10.05
481.055	9.97
481.49	9.87
481.925	9.77
482.36	9.66
482.795	9.58
483.229	9.52
483.664	9.48
484.099	9.44
484.534	9.41
484.968	9.41
485.403	9.42
485.837	9.45
486.271	9.52
486.706	9.6
487.14	9.65
487.574	9.7
488.009	9.74
488.443	9.78
488.877	9.82
489.311	9.87
489.745	9.93
490.179	9.99
490.613	10.06
491.046	10.12
491.48	10.19
491.914	10.28
492.348	10.37
492.781	10.48
493.215	10.57
493.648	10.68
494.082	10.78
494.515	10.86
494.948	10.95
495.382	11.04
495.815	11.15
496.248	11.25
496.681	11.34
497.114	11.43
497.547	11.52
497.98	11.65
498.413	11.78
498.846	11.93
499.279	12.09
499.711	12.23
500.144	12.41
500.577	12.59
501.009	12.78
501.442	13
501.874	13.25
502.306	13.48
502.739	13.72
503.171	13.94
503.603	14.16
504.036	14.4
504.468	14.66
504.9	14.9
505.332	15.17
505.764	15.43
506.196	15.67
506.627	15.94
507.059	16.23
507.491	16.51
507.923	16.81
508.354	17.12
508.786	17.43
509.217	17.71
509.649	17.99
510.08	18.27
510.512	18.58
510.943	18.88
511.374	19.18
511.805	19.45
512.237	19.69
512.668	19.94
513.099	20.16
513.53	20.41
513.961	20.69
514.391	20.98
514.822	21.3
515.253	21.62
515.684	21.97
516.114	22.32
516.545	22.7
516.975	23.14
517.406	23.6
517.836	24.05
518.267	24.5
518.697	24.92
519.127	25.35
519.558	25.77
519.988	26.17
520.418	26.57
520.848	26.95
521.278	27.3
521.708	27.73
522.138	27.97
522.567	28.2
522.997	28.44
523.427	28.71
523.857	28.97
524.286	29.23
524.716	29.49
525.145	29.72
525.575	29.96
526.004	30.22
526.433	30.38
526.863	30.73
527.292	31.05
527.721	31.33
528.15	31.54
528.579	31.7
529.008	31.84
529.437	31.95
529.866	32.07
530.295	32.18
530.724	32.31
531.152	32.42
531.581	32.51
532.01	32.59
532.438	32.67
532.867	32.76
533.295	32.87
533.723	32.98
534.152	33.08
534.58	33.16
535.008	33.18
535.436	33.18
535.865	33.13
536.293	33.1
536.721	33.09
537.149	33.12
537.576	33.16
538.004	33.21
538.432	33.23
538.86	33.28
539.287	33.32
539.715	33.42
540.143	33.52
540.57	33.66
540.998	33.78
541.425	33.91
541.852	34.02
542.28	34.13
542.707	34.2
543.134	34.29
543.561	34.36
543.988	34.43
544.415	34.47
544.842	34.52
545.269	34.58
545.696	34.65
546.123	34.69
546.549	34.74
546.976	34.78
547.403	34.85
547.829	34.92
548.256	34.98
548.682	35.04
549.108	35.11
549.535	35.17
549.961	35.21
550.387	35.24
550.813	35.27
551.24	35.31
551.666	35.32
552.092	35.31
552.518	35.25
552.943	35.22
553.369	35.17
553.795	35.1
554.221	35
554.646	34.89
555.072	34.76
555.498	34.64
555.923	34.51
556.349	34.39
556.774	34.28
557.199	34.19
557.625	34.07
558.05	33.97
558.475	33.88
558.9	33.8
559.325	33.71
559.75	33.6
560.175	33.48
560.6	33.32
561.025	33.16
561.449	32.97
561.874	32.76
562.299	32.57
562.723	32.38
563.148	32.18
563.572	31.95
563.997	31.71
564.421	31.49
564.846	31.28
565.27	31.08
565.694	30.85
566.118	30.63
566.542	30.41
566.966	30.18
567.39	29.95
567.814	29.74
568.238	29.53
568.662	29.37
569.086	29.21
569.509	29.03
569.933	28.86
570.357	28.69
570.78	28.54
571.204	28.4
571.627	28.25
572.05	28.1
572.474	27.96
572.897	27.83
573.32	27.66
573.743	27.5
574.166	27.34
574.589	27.18
575.012	27.04
575.435	26.92
575.858	26.81
576.281	26.7
576.704	26.61
577.126	26.49
577.549	26.39
577.972	26.3
578.394	26.22
578.817	26.16
579.239	26.1
579.661	26.06
580.084	25.98
580.506	25.91
580.928	25.85
581.35	25.75
581.772	25.66
582.194	25.57
582.616	25.48
583.038	25.39
583.46	25.3
583.882	25.19
584.303	25.06
584.725	24.92
585.147	24.76
585.568	24.63
585.99	24.53
586.411	24.45
586.833	24.35
587.254	24.28
587.675	24.22
588.096	24.15
588.518	24.11
588.939	24.1
589.36	24.09
589.781	24.1
590.202	24.09
590.623	24.06
591.043	24.04
591.464	24.02
591.885	23.99
592.305	23.95
592.726	23.92
593.147	23.88
593.567	23.83
593.987	23.78
594.408	23.72
594.828	23.69
595.248	23.68
595.669	23.63
596.089	23.59
596.509	23.53
596.929	23.47
597.349	23.4
597.769	23.3
598.189	23.24
598.608	23.2
599.028	23.16
599.448	23.11
599.867	23.07
600.287	23.03
600.706	22.98
601.126	22.93
601.545	22.9
601.965	22.87
602.384	22.86
602.803	22.8
603.222	22.74
603.641	22.68
604.061	22.61
604.48	22.53
604.898	22.44
605.317	22.35
605.736	22.27
606.155	22.18
606.574	22.09
606.992	21.99
607.411	21.9
607.829	21.78
608.248	21.67
608.666	21.55
609.085	21.45
609.503	21.35
609.921	21.24
610.339	21.15
610.758	21.06
611.176	20.95
611.594	20.83
612.012	20.72
612.43	20.63
612.847	20.52
613.265	20.44
613.683	20.36
614.101	20.28
614.518	20.19
614.936	20.09
615.353	19.99
615.771	19.92
616.188	19.86
616.606	19.81
617.023	19.77
617.44	19.72
617.857	19.65
618.274	19.58
618.691	19.5
619.108	19.43
619.525	19.36
619.942	19.29
620.359	19.22
620.776	19.13
621.192	19.07
621.609	18.99
622.026	18.92
622.442	18.88
622.859	18.82
623.275	18.77
623.691	18.72
624.108	18.67
624.524	18.63
624.94	18.6
625.356	18.58
625.772	18.54
626.188	18.53
626.604	18.5
627.02	18.46
627.436	18.44
627.852	18.43
628.268	18.41
628.683	18.4
629.099	18.38
629.514	18.37
629.93	18.34
630.345	18.31
630.761	18.26
631.176	18.23
631.591	18.18
632.007	18.12
632.422	18.06
632.837	17.99
633.252	17.93
633.667	17.86
634.082	17.78
634.497	17.69
634.911	17.6
635.326	17.5
635.741	17.37
636.155	17.24
636.57	17.12
636.984	16.99
637.399	16.83
637.813	16.67
638.228	16.51
638.642	16.34
639.056	16.16
639.47	16
639.884	15.83
640.298	15.66
640.712	15.5
641.126	15.32
641.54	15.14
641.954	14.98
642.368	14.82
642.781	14.66
643.195	14.48
643.609	14.31
644.022	14.16
644.436	14
644.849	13.85
645.262	13.7
645.676	13.55
646.089	13.43
646.502	13.32
646.915	13.21
647.328	13.12
647.741	13.04
648.154	12.97
648.567	12.89
648.98	12.83
649.393	12.78
649.805	12.74
650.218	12.68
650.631	12.63
651.043	12.55
651.456	12.47
651.868	12.36
652.28	12.24
652.693	12.14
653.105	12.04
653.517	11.95
653.929	11.88
654.341	11.8
654.753	11.74
655.165	11.68
655.577	11.63
655.989	11.59
656.401	11.57
656.813	11.56
657.224	11.52
657.636	11.47
658.047	11.42
658.459	11.34
658.87	11.26
659.282	11.17
659.693	11.08
660.104	10.98
660.515	10.88
660.926	10.78
661.338	10.67
661.749	10.57
662.159	10.48
662.57	10.38
662.981	10.28
663.392	10.18
663.803	10.11
664.213	10.02
664.624	9.93
665.035	9.86
665.445	9.8
665.855	9.73
666.266	9.67
666.676	9.62
667.086	9.55
667.497	9.49
667.907	9.44
668.317	9.39
668.727	9.35
669.137	9.32
669.547	9.28
669.956	9.25
670.366	9.23
670.776	9.2
671.186	9.19
671.595	9.18
672.005	9.17
672.414	9.16
672.824	9.16
673.233	9.16
673.642	9.15
674.052	9.16
674.461	9.18
674.87	9.19
675.279	9.22
675.688	9.25
676.097	9.28
676.506	9.32
676.915	9.36
677.323	9.41
677.732	9.46
678.141	9.53
678.549	9.59
678.958	9.65
679.366	9.73
679.775	9.8
680.183	9.9
680.592	10
681	10.12
681.408	10.25
681.816	10.39
682.224	10.52
682.632	10.63
683.04	10.74
683.448	10.87
683.856	11.01
684.264	11.18
684.671	11.37
685.079	11.58
685.487	11.82
685.894	12.08
686.302	12.38
686.709	12.73
687.116	13.12
687.524	13.57
687.931	14.05
688.338	14.54
688.745	15.06
689.152	15.58
689.559	16.15
689.966	16.7
690.373	17.27
690.78	17.84
691.187	18.42
691.593	19.01
692	19.59
692.407	20.17
692.813	20.77
693.22	21.34
693.626	21.91
694.032	22.47
694.439	23.03
694.845	23.62
695.251	24.18
695.657	24.71
696.063	25.25
696.469	25.78
696.875	26.3
697.281	26.78
697.687	27.28
698.093	27.78
698.498	28.26
698.904	28.74
699.31	29.18
699.715	29.63
700.12	30.08
700.526	30.52
700.931	30.96
701.337	31.4
701.742	31.82
702.147	32.25
702.552	32.64
702.957	33.02
703.362	33.4
703.767	33.77
704.172	34.12
704.577	34.48
704.981	34.81
705.386	35.13
705.791	35.43
706.195	35.74
706.6	36.05
707.004	36.35
707.408	36.64
707.813	36.93
708.217	37.19
708.621	37.45
709.025	37.71
709.43	37.99
709.834	38.27
710.237	38.52
710.641	38.76
711.045	38.98
711.449	39.21
711.853	39.44
712.256	39.63
712.66	39.81
713.064	39.94
713.467	40.05
713.87	40.11
714.274	40.16
714.677	40.21
715.08	40.23
715.484	40.27
715.887	40.31
716.29	40.34
716.693	40.43
717.096	40.56
717.499	40.75
717.901	40.95
718.304	41.19
718.707	41.42
719.109	41.68
719.512	41.88
719.915	42.1
720.317	42.25
720.719	42.4
721.122	42.55
721.524	42.65
721.926	42.75
722.328	42.82
722.731	42.88
723.133	42.95
723.535	43.01
723.937	43.12
724.338	43.2
724.74	43.33
725.142	43.5
725.544	43.59
725.945	43.7
726.347	43.75
726.748	43.82
727.15	43.9
727.551	44
727.952	44.08
728.354	44.19
728.755	44.29
729.156	44.38
729.557	44.44
729.958	44.55
730.359	44.66
730.76	44.79
731.161	44.9
731.562	45.01
731.962	45.06
732.363	45.11
732.763	45.16
733.164	45.21
733.564	45.26
733.965	45.29
734.365	45.31
734.766	45.32
735.166	45.3
735.566	45.3
735.966	45.3
736.366	45.32
736.766	45.35
737.166	45.36
737.566	45.35
737.966	45.36
738.365	45.36
738.765	45.38
739.165	45.39
739.564	45.44
739.964	45.46
740.363	45.46
740.763	45.45
741.162	45.47
741.561	45.47
741.96	45.49
742.36	45.51
742.759	45.52
743.158	45.52
743.557	45.48
743.955	45.48
744.354	45.47
744.753	45.47
745.152	45.49
745.55	45.49
745.949	45.48
746.348	45.47
746.746	45.43
747.144	45.41
747.543	45.39
747.941	45.38
748.339	45.32
748.737	45.28
749.136	45.25
749.534	45.2
749.932	45.15
750.33	45.14
750.727	45.12
751.125	45.12
751.523	45.09
751.921	45.05
752.318	45.03
752.716	45.03
753.113	45.03
753.511	45.01
753.908	45.02
754.305	45.01
754.703	44.88
755.1	44.64
755.497	44.25
755.894	43.72
756.291	43.07
756.688	42.37
757.085	41.71
757.482	41.1
757.878	40.52
758.275	39.95
758.672	39.35
759.068	38.86
759.465	38.47
759.861	38.29
760.258	38.29
760.654	38.46
761.05	38.7
761.447	38.98
761.843	39.2
762.239	39.43
762.635	39.71
763.031	40.06
763.427	40.44
763.822	40.87
764.218	41.28
764.614	41.66
765.01	41.98
765.405	42.34
765.801	42.61
766.196	42.88
766.592	43.11
766.987	43.31
767.382	43.43
767.778	43.53
768.173	43.58
768.568	43.62
768.963	43.63
769.358	43.7
769.753	43.7
770.148	43.72
770.542	43.69
770.937	43.67
771.332	43.63
771.726	43.64
772.121	43.59
772.515	43.56
772.91	43.53
773.304	43.53
773.699	43.47
774.093	43.42
774.487	43.36
774.881	43.35
775.275	43.31
775.669	43.27
776.063	43.22
776.457	43.21
776.851	43.14
777.245	43.08
777.638	43.03
778.032	42.99
778.425	43
778.819	42.96
779.212	42.94
779.606	42.91
779.999	42.89
780.392	42.87
780.786	42.84
781.179	42.85
781.572	42.87
781.965	42.85
782.358	42.81
782.751	42.73
783.143	42.71
783.536	42.68
783.929	42.61
784.322	42.56
784.714	42.52
785.107	42.49
785.499	42.42
785.891	42.34
786.284	42.31
786.676	42.26
787.068	42.23
787.46	42.19
787.852	42.11
788.245	42.08
788.636	42.02
789.028	41.96
789.42	41.91
789.812	41.85
790.204	41.8
790.595	41.71
790.987	41.65
791.378	41.61
791.77	41.56
792.161	41.53
792.553	41.47
792.944	41.43
793.335	41.4
793.726	41.35
794.117	41.3
794.508	41.24
794.899	41.2
795.29	41.16
795.681	41.1
796.072	41.07
796.463	41.04
796.853	40.99
797.244	40.93
797.634	40.88
798.025	40.85
798.415	40.8
798.806	40.73
799.196	40.69
799.586	40.67
799.976	40.63
800.366	40.55
800.756	40.47
801.146	40.42
801.536	40.39
801.926	40.33
802.316	40.28
802.706	40.25
803.095	40.24
803.485	40.2
803.874	40.15
804.264	40.09
804.653	40.04
805.043	39.99
805.432	39.95
805.821	39.87
806.21	39.81
806.599	39.73
806.988	39.68
807.377	39.58
807.766	39.5
808.155	39.41
808.544	39.33
808.933	39.25
809.321	39.17
809.71	39.09
810.098	39.01
810.487	38.92
810.875	38.82
811.264	38.71
811.652	38.6
812.04	38.5
812.428	38.4
812.816	38.28
813.204	38.21
813.592	38.1
813.98	38.01
814.368	37.93
814.756	37.84
815.144	37.77
815.531	37.71
815.919	37.69
816.306	37.67
816.694	37.65
817.081	37.64
817.469	37.61
817.856	37.59
818.243	37.53
818.63	37.46
819.017	37.4
819.404	37.34
819.791	37.31
820.178	37.26
820.565	37.21
820.952	37.15
821.339	37.09
821.725	37.05
822.112	37.03
822.498	37.03
822.885	37.03
823.271	37.04
823.657	37
824.044	36.98
824.43	36.96
824.816	36.9
825.202	36.87
825.588	36.86
825.974	36.8
826.36	36.76
826.746	36.7
827.132	36.68
827.517	36.64
827.903	36.64
828.289	36.61
828.674	36.58
829.06	36.54
829.445	36.5
829.83	36.46
830.216	36.42
830.601	36.4
830.986	36.38
831.371	36.34
831.756	36.32
832.141	36.3
832.526	36.27
832.911	36.26
833.295	36.26
833.68	36.26
834.065	36.25
834.449	36.26
834.834	36.24
835.218	36.25
835.603	36.24
835.987	36.22
836.371	36.18
836.755	36.16
837.139	36.12
837.524	36.1
837.908	36.1
838.291	36.1
838.675	36.07
839.059	36.06
839.443	36.03
839.827	35.99
840.21	35.98
840.594	35.97
840.977	35.96
841.361	35.96
841.744	35.95
842.127	35.92
842.511	35.89
842.894	35.87
843.277	35.84
843.66	35.81
844.043	35.83
844.426	35.81
844.809	35.81
845.191	35.8
845.574	35.77
845.957	35.75
846.339	35.73
846.722	35.68
847.104	35.68
847.487	35.65
847.869	35.64
848.252	35.59
848.634	35.59
849.016	35.57
849.398	35.55
849.78	35.52
850.162	35.47
850.544	35.43
850.926	35.42
851.307	35.36
851.689	35.34
852.071	35.31
852.452	35.31
852.834	35.28
853.215	35.27
853.597	35.28
853.978	35.28
854.359	35.3
854.741	35.34
855.122	35.34
855.503	35.35
855.884	35.36
856.265	35.36
856.646	35.33
857.026	35.33
857.407	35.32
857.788	35.29
858.169	35.29
858.549	35.26
858.93	35.24
859.31	35.22
859.69	35.24
860.071	35.24
860.451	35.22
860.831	35.23
861.211	35.2
861.591	35.17
861.971	35.14
862.351	35.12
862.731	35.11
863.111	35.07
863.491	35.05
863.87	35.02
864.25	34.97
864.629	34.96
865.009	34.95
865.388	34.93
865.768	34.91
866.147	34.91
866.526	34.89
866.905	34.89
867.284	34.91
867.663	34.92
868.042	34.92
868.421	34.95
868.8	34.94
869.179	34.94
869.558	34.94
869.936	34.95
870.315	34.95
870.693	34.94
871.072	34.95
871.45	34.93
871.828	34.92
872.207	34.93
872.585	34.91
872.963	34.9
873.341	34.89
873.719	34.87
874.097	34.86
874.475	34.86
874.853	34.87
875.23	34.88
875.608	34.88
875.986	34.88
876.363	34.87
876.741	34.88
877.118	34.87
877.495	34.88
877.873	34.89
878.25	34.91
878.627	34.91
879.004	34.9
879.381	34.88
879.758	34.87
880.135	34.85
880.512	34.84
880.889	34.81
881.265	34.81
881.642	34.8
882.019	34.8
882.395	34.76
882.772	34.74
883.148	34.72
883.524	34.7
883.901	34.69
884.277	34.69
884.653	34.67
885.029	34.68
885.405	34.69
885.781	34.67
886.157	34.67
886.532	34.68
886.908	34.67
887.284	34.67
887.659	34.64
888.035	34.64
888.411	34.64
888.786	34.65
889.161	34.65
889.537	34.61
889.912	34.61
890.287	34.59
890.662	34.57
891.037	34.57
891.412	34.56
891.787	34.56
892.162	34.56
892.536	34.53
892.911	34.49
893.286	34.49
893.66	34.48
894.035	34.49
894.409	34.47
894.784	34.44
895.158	34.41
895.532	34.41
895.906	34.39
896.281	34.37
896.655	34.37
897.029	34.35
897.402	34.32
897.776	34.3
898.15	34.28
898.524	34.28
898.898	34.28
899.271	34.29
899.645	34.29
900.018	34.3
900.392	34.31
900.765	34.3
901.138	34.31
901.511	34.31
901.884	34.31
902.258	34.33
902.631	34.35
903.003	34.37
903.376	34.35
903.749	34.33
904.122	34.35
904.495	34.34
904.867	34.34
905.24	34.36
905.612	34.38
905.985	34.37
906.357	34.35
906.729	34.3
907.102	34.29
907.474	34.3
907.846	34.32
908.218	34.29
908.59	34.3
908.962	34.29
909.334	34.3
909.705	34.25
910.077	34.27
910.449	34.27
910.82	34.27
911.192	34.26
911.563	34.23
911.935	34.2
912.306	34.18
912.677	34.18
913.048	34.18
913.419	34.15
913.79	34.18
914.161	34.16
914.532	34.15
914.903	34.19
915.274	34.19
915.645	34.21
916.015	34.23
916.386	34.25
916.756	34.24
917.127	34.22
917.497	34.22
917.868	34.21
918.238	34.2
918.608	34.22
918.978	34.18
919.348	34.19
919.718	34.17
920.088	34.19
920.458	34.18
920.828	34.17
921.198	34.17
921.567	34.16
921.937	34.18
922.306	34.17
922.676	34.14
923.045	34.13
923.415	34.09
923.784	34.08
924.153	34.07
924.522	34.06
924.891	34.09
925.26	34.07
925.629	34.08
925.998	34.06
926.367	34.06
926.736	34.05
927.104	34.05
927.473	34.03
927.842	33.99
928.21	34
928.578	33.98
928.947	33.95
929.315	33.92
929.683	33.86
930.051	33.82
930.42	33.8
930.788	33.76
931.156	33.71
931.523	33.72
931.891	33.73
932.259	33.69
932.627	33.67
932.994	33.65
933.362	33.66
933.729	33.69
934.097	33.71
934.464	33.72
934.831	33.72
935.199	33.75
935.566	33.76
935.933	33.74
936.3	33.75
936.667	33.72
937.034	33.75
937.401	33.76
937.767	33.78
938.134	33.75
938.501	33.76
938.867	33.82
939.234	33.81
939.6	33.83
939.967	33.84
940.333	33.82
940.699	33.86
941.065	33.81
941.431	33.76
941.798	33.7
942.163	33.7
942.529	33.7
942.895	33.64
943.261	33.62
943.627	33.59
943.992	33.64
944.358	33.63
944.723	33.61
945.089	33.61
945.454	33.67
945.82	33.71
946.185	33.71
946.55	33.69
946.915	33.7
947.28	33.68
947.645	33.65
948.01	33.62
948.375	33.64
948.74	33.61
949.104	33.64
949.469	33.62
949.834	33.6
950.198	33.59
950.562	33.6
950.927	33.58
951.291	33.56
951.655	33.55
952.02	33.54
952.384	33.47
952.748	33.45
953.112	33.37
953.476	33.31
953.839	33.29
954.203	33.29
954.567	33.26
954.931	33.24
955.294	33.23
955.658	33.26
956.021	33.23
956.385	33.24
956.748	33.24
957.111	33.24
957.474	33.25
957.837	33.23
958.2	33.22
958.563	33.21
958.926	33.21
959.289	33.21
959.652	33.2
960.015	33.24
960.377	33.27
960.74	33.28
961.102	33.28
961.465	33.29
961.827	33.33
962.189	33.33
962.552	33.34
962.914	33.37
963.276	33.37
963.638	33.36
964	33.31
964.362	33.31
964.724	33.3
965.085	33.33
965.447	33.32
965.809	33.28
966.17	33.27
966.532	33.25
966.893	33.23
967.255	33.26
967.616	33.29
967.977	33.35
968.338	33.37
968.699	33.36
969.061	33.36
969.421	33.39
969.782	33.45
970.143	33.46
970.504	33.53
970.865	33.53
971.225	33.49
971.586	33.44
971.946	33.36
972.307	33.28
972.667	33.33
973.027	33.37
973.388	33.34
973.748	33.32
974.108	33.36
974.468	33.38
974.828	33.39
975.188	33.43
975.548	33.44
975.907	33.46
976.267	33.49
976.627	33.42
976.986	33.4
977.346	33.41
977.705	33.36
978.064	33.29
978.424	33.26
978.783	33.24
979.142	33.21
979.501	33.25
979.86	33.28
980.219	33.29
980.578	33.42
980.937	33.41
981.296	33.41
981.654	33.45
982.013	33.49
982.371	33.46
982.73	33.49
983.088	33.51
983.447	33.54
983.805	33.57
984.163	33.6
984.521	33.52
984.879	33.47
985.237	33.55
985.595	33.59
985.953	33.55
986.311	33.49
986.669	33.5
987.026	33.5
987.384	33.49
987.741	33.46
988.099	33.5
988.456	33.54
988.814	33.62
989.171	33.59
989.528	33.6
989.885	33.62
990.242	33.72
990.599	33.8
990.956	33.79
991.313	33.78
991.67	33.8
992.027	33.78
992.383	33.73
992.74	33.77
993.096	33.71
993.453	33.64
993.809	33.77
994.165	33.75
994.522	33.69
994.878	33.76
995.234	33.71
995.59	33.68
995.946	33.71
996.302	33.82
996.658	33.85
997.013	33.9
997.369	34
997.725	33.96
998.08	34.01
998.436	34.03
998.791	34.01
999.147	34.07
999.502	34.16
999.857	34.16
1000.212	34.05
1000.567	34.03
1000.922	34.05
1001.277	33.96
1001.632	33.8
1001.987	33.69
1002.342	33.7
1002.696	33.72
1003.051	33.85
1003.406	33.87
1003.76	33.84
1004.114	33.82
1004.469	33.77
1004.823	34.04
1005.177	34.09
1005.531	34.26
1005.885	34.29
1006.239	34.28
1006.593	34.35
1006.947	34.24
1007.301	34.06
1007.655	34.04
1008.008	34.13
1008.362	34.25
1008.715	34
1009.069	34.09
1009.422	34.17
1009.776	34.26
1010.129	34.37
1010.482	34.36
1010.835	34.46
1011.188	34.65
1011.541	34.72
1011.894	34.84
1012.247	34.72
1012.6	34.71
1012.952	34.69
1013.305	34.65
1013.657	34.79
1014.01	34.83
1014.362	34.71
1014.715	34.69
1015.067	34.88
1015.419	35.04
1015.771	34.94
1016.123	35.2
1016.475	35.31
1016.827	35.28
1017.179	35.36
1017.531	35.27
1017.883	35.25
1018.234	35.44
1018.586	35.3
1018.938	35.21
1019.289	35.14
1019.64	35.26
1019.992	35.07
1020.343	35.08
1020.694	35.2
1021.045	35.28
1021.396	35.45
1021.747	35.54
1022.098	35.65
1022.449	36.02
1022.8	35.98
1023.151	36.1
1023.501	36.13
1023.852	36.28
1024.202	36.29
1024.553	36.08
1024.903	36.23
1025.253	36.37
1025.604	36.33
1025.954	36.16
1026.304	36.03
1026.654	36.26
1027.004	36.17
1027.354	36.06
1027.703	35.99
1028.053	36.11
1028.403	36.61
1028.753	36.36
1029.102	36.2
1029.452	36.22
1029.801	36.35
1030.15	36.41
1030.499	36.18
897.758	414.67
901.051	416.56
904.343	414.85
907.636	421.36
910.928	410.24
914.22	412.67
917.511	406.52
920.803	389.83
924.094	388.91
927.384	379.8
930.675	365.72
933.965	365.5
937.255	344.93
940.544	332.87
943.834	321.18
947.123	318.9
950.411	300.5
953.7	295.04
956.988	282.96
960.276	271.13
963.563	266.36
966.851	259.19
970.138	255.1
973.424	250.3
976.711	251.93
979.997	237.9
983.283	237.97
986.568	234.13
989.853	228.13
993.138	223.23
996.423	215.74
999.708	210.8
1002.992	207.3
1006.275	199.83
1009.559	197.02
1012.842	190.69
1016.125	187.3
1019.408	182.94
1022.69	181.58
1025.972	177.07
1029.254	174.77
1032.536	172.98
1035.817	169.77
1039.098	168.24
1042.379	165.2
1045.659	164.57
1048.939	161.2
1052.219	158.09
1055.498	155.9
1058.778	151.88
1062.057	149.31
1065.335	147.04
1068.614	145.64
1071.892	144.23
1075.17	142.09
1078.447	140.15
1081.724	138.44
1085.001	137.07
1088.278	135.19
1091.554	133.39
1094.83	134.08
1098.106	133.29
1101.382	132.65
1104.657	131.99
1107.932	129.96
1111.206	129.48
1114.481	126.78
1117.755	125.74
1121.029	125.23
1124.302	124.62
1127.575	123.22
1130.848	121.63
1134.121	120.35
1137.393	119.53
1140.665	117.88
1143.937	117.76
1147.208	116.66
1150.48	116.45
1153.75	115.62
1157.021	115.35
1160.291	115.15
1163.561	113.38
1166.831	113.84
1170.101	113.65
1173.37	114.13
1176.639	114.16
1179.907	112.94
1183.176	112.42
1186.444	112.96
1189.711	112.25
1192.979	111.05
1196.246	110.77
1199.513	112.43
1202.78	111.19
1206.046	111.19
1209.312	108.69
1212.578	108.84
1215.843	109.44
1219.108	109.22
1222.373	110.17
1225.638	111.45
1228.902	112.18
1232.166	112.76
1235.43	112.21
1238.693	113.86
1241.956	114.48
1245.219	116.47
1248.482	116.65
1251.744	116.59
1255.006	116.81
1258.268	115.8
1261.529	114.64
1264.79	114.19
1268.051	113.62
1271.312	112.68
1274.572	110.98
1277.832	110.29
1281.092	109.18
1284.351	108.41
1287.61	108.86
1290.869	107.44
1294.128	106.36
1297.386	106.03
1300.644	105.28
1303.902	104.63
1307.159	104.58
1310.416	104.25
1313.673	103.58
1316.93	104.82
1320.186	104
1323.442	104.24
1326.697	105.16
1329.953	105.42
1333.208	105.32
1336.463	106.87
1339.717	107.43
1342.972	107.92
1346.226	108.86
1349.479	109.63
1352.733	109.85
1355.986	111.25
1359.238	110.49
1362.491	110.67
1365.743	110.23
1368.995	110.79
1372.247	109.17
1375.498	109.12
1378.749	109.31
1382	108.57
1385.251	107.72
1388.501	106.12
1391.751	104.93
1395	105.03
1398.25	103.69
1401.499	102.7
1404.748	101.94
1407.996	101.05
1411.244	100.18
1414.492	99.34
1417.74	97.12
1420.987	96.77
1424.234	95.99
1427.481	94.61
1430.728	93.88
1433.974	93.68
1437.22	92.75
1440.465	92.86
1443.711	91.48
1446.956	90.1
1450.201	89.35
1453.445	89.29
1456.689	88.24
1459.933	87.11
1463.177	87.17
1466.42	85.76
1469.663	84.88
1472.906	84.61
1476.148	83
1479.391	82.61
1482.633	83.01
1485.874	81.49
1489.115	80.95
1492.356	81.16
1495.597	80.83
1498.838	80.3
1502.078	80.19
1505.318	80.16
1508.557	80.61
1511.797	80.01
1515.036	79.78
1518.274	80.15
1521.513	80.25
1524.751	79.91
1527.989	79.88
1531.227	80.61
1534.464	80.42
1537.701	79.95
1540.938	79.79
1544.174	79.08
1547.41	79.55
1550.646	79.42
1553.882	79.41
1557.117	79.35
1560.352	78.85
1563.587	78.56
1566.821	77.78
1570.055	77.51
1573.289	77.58
1576.523	77.69
1579.756	77.15
1582.989	77.14
1586.222	77.07
1589.454	76
1592.686	76.75
1595.918	76.79
1599.15	76.36
1602.381	76.53
1605.612	76.53
1608.843	76.65
1612.073	76.14
1615.303	77.04
1618.533	77.05
1621.762	77.51
1624.992	78.19
1628.221	77.64
1631.449	77.96
1634.678	77.74
1637.906	78.12
1641.134	78.38
1644.361	78.3
1647.588	78.71
1650.815	78.32
1654.042	78.12
1657.269	77.87
1660.495	78.2
1663.72	77.97
1666.946	78.04
1670.171	78.48
1673.396	78.61
1676.621	78.34
1679.845	78.51
1683.069	79.08
1686.293	79
1689.517	79.39
1692.74	79.66
1695.963	79.5
1699.185	79.71
1702.408	79.93
1705.63	79.9
1708.852	80.2
1712.073	80.16
1715.294	80.29
1718.515	80.48
1721.736	80.82
1724.956	80.97
1728.176	80.92
1731.396	81.14
1734.616	81.45
1737.835	81.78
1741.054	81.1
1744.272	81.1
1747.491	81.44
1750.709	81.79
1753.927	81.11
1757.144	81.11
1760.361	81.15
1763.578	80.91
1766.795	80.67
1770.011	80.98
1773.227	80.26
1776.443	81.39
1779.658	80.94
1782.874	81.73
1786.089	80.61
1789.303	81.26
1792.518	81.09
1795.732	81.39
1798.945	82.3
1802.159	82.78
1805.372	82.56
1808.585	83.95
1811.797	83.89
1815.01	84.38
1818.222	84.38
1821.434	85.39
1824.645	85.01
1827.856	87.01
1831.067	86.55
1834.278	86.94
1837.488	87.01
1840.698	87.36
1843.908	87.15
1847.117	87.05
1850.326	87.5
1853.535	86.75
1856.744	87.6
1859.952	87.24
1863.16	85.69
1866.368	84.92
1869.575	84.01
1872.782	83.52
1875.989	81.53
1879.196	80.41
1882.402	79.12
1885.608	78.28
1888.814	77.54
1892.019	75.64
1895.224	75.01
1898.429	74.22
1901.634	74.2
1904.838	74.46
1908.042	73.26
1911.246	74.18
1914.449	74.49
1917.652	74.71
1920.855	74.54
1924.058	74.03
1927.26	74.62
1930.462	74.12
1933.664	75.26
1936.865	74.58
1940.066	73.44
1943.267	73.44
1946.467	73.14
1949.668	73.4
1952.868	74.5
1956.067	74.46
1959.267	75.23
1962.466	75.48
1965.665	75.69
1968.863	75.65
1972.061	76.09
1975.259	77
1978.457	77.56
1981.654	79.07
1984.852	78.99
1988.048	78.51
1991.245	80.03
1994.441	80.37
1997.637	81.44
2000.833	83
2004.028	83.91
2007.223	85.57
2010.418	86.33
2013.613	88.26
2016.807	89.08
2020.001	90.57
2023.194	91.84
2026.388	94.06
2029.581	96.33
2032.774	96.97
2035.966	99.04
2039.158	99.78
2042.35	101.29
2045.542	101.6
2048.733	104.05
2051.924	104.02
2055.115	105.42
2058.306	106.47
2061.496	106.48
2064.686	106.82
2067.875	108.16
2071.065	108.01
2074.254	107.91
2077.442	109.54
2080.631	110.55
2083.819	110.41
2087.007	111.62
2090.195	113.22
2093.382	113.86
2096.569	113.95
2099.756	115.52
2102.942	116.49
2106.128	118.32
2109.314	121.46
2112.5	121.02
2115.685	123.52
2118.87	123.86
2122.055	126.93
2125.239	127.7
2128.424	129
2131.608	130.31
2134.791	131.45
2137.974	131.97
2141.157	132.11
2144.34	131.79
2147.523	132.51
2150.705	132.47
2153.887	134.19
2157.068	133.85
2160.25	132.91
2163.431	134.66
2166.611	134.95
2169.792	137.52
2172.972	138.39
2176.152	140.06
2179.331	141.19
2182.511	144.55
2185.69	145.08
2188.868	147.2
2192.047	147.86
2195.225	151.81
2198.403	154.68
2201.58	156.82
2204.758	159.96
2207.935	162.65
2211.111	164.75
2214.288	166.79
2217.464	167.07
2220.64	169.65
2223.815	170.82
2226.991	176.68
2230.166	176.41
2233.34	176.73
2236.515	181.34
2239.689	181.84
2242.863	182.83
2246.036	187.95
2249.209	186.11
2252.382	189.49
2255.555	193.83
2258.727	196.08
2261.9	199.2
2265.071	201.54
2268.243	206.02
2271.414	206.58
2274.585	210.62
2277.756	212.64
2280.926	215.11
2284.096	222.17
2287.266	224.42
2290.436	227.46
2293.605	230.5
2296.774	236.05
2299.942	241.9
2303.111	243.45
2306.279	248.92
2309.447	251.7
2312.614	260
2315.781	264.01
2318.948	273.13
2322.115	271.53
2325.281	288.31
2328.447	283.09
2331.613	290.53
2334.779	289.15
2337.944	299.39
2341.109	302.18
2344.274	311.62
2347.438	318.54
2350.602	319.69
2353.766	331.35
2356.929	337.12
2360.092	332.43
2363.255	355.73
2366.418	359.63
2369.58	364.55
2372.742	385.61
2375.904	395.54
2379.066	394.25
2382.227	392.07
2385.388	421.62
2388.548	421.62
2391.709	423.71
2394.869	469.66
2398.029	452.12
2401.188	462.85
2404.347	459.51
2407.506	454.97
2410.665	469.74
2413.823	492.52
2416.981	518.28
2420.139	502.44
2423.296	498.33
2426.453	523.15
2429.61	506.67
2432.767	525.58
2435.923	519.73
2439.079	568.8
2442.235	576.94
2445.391	567.17
2448.546	563.1
2451.701	547.11
2454.855	547.18
2458.009	574.93
2461.163	594.38
2464.317	609.26
2467.471	629.64
2470.624	633.58
2473.777	614.02
2476.929	600.98
2480.082	584.25
2483.234	581.48
2486.385	611.38
2489.537	617.01
2492.688	639.39
2495.839	624.01
2498.989	612.97
2502.14	615.87
2505.29	616.15
2508.439	627.93
2511.589	625.82
2514.738	681.07
2517.887	664.11
2521.035	699.89
2524.183	704.45
2527.331	711.15
2530.479	707.8
2533.627	711.66
