Data from N_1_DIV_WI_4n_Splice17_12-20-57-310.txt Node
Date: Sat Mar 07 12:20:57 EST 2020
User: sa697716
Spectrometer: NQ5500242
Trigger mode: 0
Integration Time (sec): 1.450000E-1
Scans to average: 20
Nonlinearity correction enabled: false
Boxcar width: 5
Storing dark spectrum: false
XAxis mode: Wavelengths
Number of Pixels in Spectrum: 512
>>>>>Begin Spectral Data<<<<<
187.83	93.58
188.298	105.45
188.766	78.35
189.233	61.02
189.701	50.14
190.169	62.8
190.636	42.52
191.104	-28.05
191.571	-196.67
192.039	-139.07
192.506	-541
192.974	92.64
193.441	76.04
193.908	-25.05
194.375	3.71
194.842	-85.36
195.31	-77.32
195.777	-363.26
196.244	7.97
196.711	24.72
197.177	26.96
197.644	27.93
198.111	28.54
198.578	28.66
199.045	29.21
199.511	29.09
199.978	29.23
200.445	29.41
200.911	29.4
201.378	29.15
201.844	28.95
202.31	28.69
202.777	28.84
203.243	28.65
203.709	28.55
204.176	28.05
204.642	27.96
205.108	28.07
205.574	27.7
206.04	27.38
206.506	27.12
206.972	27.13
207.438	26.89
207.903	26.51
208.369	25.89
208.835	25.2
209.301	24.54
209.766	23.44
210.232	22.62
210.697	21.87
211.163	21.25
211.628	20.77
212.094	20.21
212.559	19.74
213.024	19.11
213.49	18.52
213.955	18.09
214.42	17.58
214.885	17.22
215.35	16.43
215.815	15.33
216.28	13.98
216.745	12.5
217.21	11.04
217.675	9.69
218.14	8.56
218.604	7.6
219.069	6.79
219.534	6.12
219.998	5.52
220.463	5.07
220.927	4.66
221.392	4.36
221.856	4.09
222.32	3.86
222.785	3.67
223.249	3.49
223.713	3.34
224.177	3.21
224.642	3.08
225.106	2.95
225.57	2.82
226.034	2.77
226.497	2.68
226.961	2.62
227.425	2.53
227.889	2.47
228.353	2.41
228.816	2.34
229.28	2.29
229.744	2.23
230.207	2.18
230.671	2.15
231.134	2.09
231.597	2.05
232.061	2
232.524	1.98
232.987	1.94
233.45	1.92
233.914	1.89
234.377	1.86
234.84	1.84
235.303	1.83
235.766	1.8
236.229	1.78
236.691	1.76
237.154	1.74
237.617	1.72
238.08	1.7
238.542	1.68
239.005	1.67
239.468	1.65
239.93	1.64
240.393	1.63
240.855	1.6
241.317	1.58
241.78	1.57
242.242	1.54
242.704	1.54
243.166	1.52
243.629	1.51
244.091	1.49
244.553	1.47
245.015	1.45
245.477	1.44
245.939	1.43
246.4	1.42
246.862	1.42
247.324	1.41
247.786	1.39
248.247	1.38
248.709	1.36
249.17	1.34
249.632	1.34
250.093	1.33
250.555	1.32
251.016	1.32
251.477	1.3
251.939	1.3
252.4	1.29
252.861	1.29
253.322	1.29
253.783	1.28
254.244	1.29
254.705	1.28
255.166	1.27
255.627	1.26
256.088	1.26
256.549	1.25
257.009	1.24
257.47	1.23
257.931	1.22
258.391	1.2
258.852	1.19
259.312	1.18
259.773	1.17
260.233	1.17
260.694	1.16
261.154	1.15
261.614	1.14
262.074	1.12
262.534	1.12
262.994	1.11
263.455	1.11
263.915	1.1
264.374	1.09
264.834	1.09
265.294	1.07
265.754	1.07
266.214	1.06
266.673	1.06
267.133	1.06
267.593	1.06
268.052	1.05
268.512	1.05
268.971	1.05
269.431	1.05
269.89	1.04
270.349	1.04
270.809	1.04
271.268	1.04
271.727	1.03
272.186	1.03
272.645	1.03
273.104	1.03
273.563	1.03
274.022	1.03
274.481	1.03
274.94	1.03
275.399	1.03
275.857	1.03
276.316	1.03
276.775	1.03
277.233	1.04
277.692	1.04
278.15	1.03
278.609	1.04
279.067	1.04
279.525	1.04
279.984	1.04
280.442	1.05
280.9	1.05
281.358	1.05
281.816	1.06
282.274	1.06
282.732	1.06
283.19	1.06
283.648	1.06
284.106	1.05
284.564	1.06
285.021	1.06
285.479	1.06
285.937	1.06
286.394	1.06
286.852	1.06
287.309	1.06
287.767	1.05
288.224	1.05
288.682	1.04
289.139	1.04
289.596	1.04
290.053	1.03
290.511	1.02
290.968	1.01
291.425	1.01
291.882	1
292.339	0.99
292.796	0.99
293.252	0.99
293.709	0.99
294.166	0.99
294.623	0.99
295.079	0.99
295.536	0.99
295.992	0.99
296.449	0.98
296.905	0.99
297.362	0.99
297.818	0.99
298.274	0.99
298.731	0.98
299.187	0.98
299.643	0.97
300.099	0.98
300.555	0.97
301.011	0.97
301.467	0.97
301.923	0.97
302.379	0.96
302.835	0.97
303.291	0.97
303.746	0.97
304.202	0.97
304.658	0.98
305.113	0.98
305.569	0.98
306.024	0.98
306.479	0.98
306.935	0.97
307.39	0.97
307.845	0.98
308.301	0.98
308.756	0.98
309.211	0.98
309.666	0.99
310.121	0.99
310.576	0.99
311.031	1
311.486	1.01
311.94	1.01
312.395	1.01
312.85	1.02
313.305	1.02
313.759	1.03
314.214	1.02
314.668	1.01
315.123	1.01
315.577	1.01
316.032	1.01
316.486	1
316.94	1
317.394	1
317.849	0.99
318.303	0.99
318.757	0.99
319.211	0.99
319.665	0.99
320.119	0.98
320.572	0.98
321.026	0.97
321.48	0.97
321.934	0.97
322.387	0.97
322.841	0.97
323.295	0.97
323.748	0.97
324.202	0.97
324.655	0.98
325.108	0.98
325.562	0.98
326.015	0.99
326.468	1
326.921	1
327.374	1
327.827	1
328.28	1
328.733	1
329.186	1
329.639	1
330.092	1
330.545	1.01
330.997	1
331.45	1.01
331.903	1.02
332.355	1.02
332.808	1.02
333.26	1.03
333.713	1.02
334.165	1.03
334.617	1.03
335.069	1.03
335.522	1.03
335.974	1.04
336.426	1.03
336.878	1.03
337.33	1.03
337.782	1.03
338.234	1.04
338.686	1.04
339.137	1.05
339.589	1.04
340.041	1.05
340.493	1.05
340.944	1.03
341.396	1.03
341.847	1.03
342.299	1.02
342.75	1.01
343.201	1
343.653	1
344.104	0.99
344.555	0.98
345.006	0.97
345.457	0.97
345.908	0.97
346.359	0.98
346.81	0.98
347.261	0.99
347.712	0.99
348.163	0.98
348.613	0.99
349.064	1
349.515	1
349.965	0.99
350.416	0.99
350.866	0.99
351.317	0.98
351.767	0.98
352.217	0.98
352.668	0.98
353.118	0.98
353.568	0.97
354.018	0.97
354.468	0.98
354.918	0.99
355.368	1
355.818	1
356.268	1
356.718	1
357.168	1
357.617	0.99
358.067	0.99
358.517	1.01
358.966	1.01
359.416	1.01
359.865	1.01
360.315	1.01
360.764	1.02
361.213	1.02
361.663	1.02
362.112	1.03
362.561	1.03
363.01	1.03
363.459	1.01
363.908	1.01
364.357	1.02
364.806	1.01
365.255	1.01
365.703	1.03
366.152	1.04
366.601	1.05
367.05	1.05
367.498	1.06
367.947	1.07
368.395	1.09
368.844	1.1
369.292	1.1
369.74	1.11
370.189	1.11
370.637	1.1
371.085	1.11
371.533	1.11
371.981	1.12
372.429	1.13
372.877	1.13
373.325	1.13
373.773	1.14
374.221	1.14
374.669	1.14
375.116	1.15
375.564	1.15
376.012	1.16
376.459	1.16
376.907	1.17
377.354	1.18
377.801	1.19
378.249	1.19
378.696	1.2
379.143	1.2
379.591	1.22
380.038	1.24
380.485	1.25
380.932	1.26
381.379	1.28
381.826	1.3
382.273	1.31
382.72	1.32
383.166	1.35
383.613	1.37
384.06	1.4
384.506	1.43
384.953	1.47
385.4	1.52
385.846	1.57
386.292	1.62
386.739	1.68
387.185	1.75
387.631	1.82
388.078	1.87
388.524	1.92
388.97	1.97
389.416	2.02
389.862	2.1
390.308	2.2
390.754	2.31
391.2	2.42
391.645	2.51
392.091	2.59
392.537	2.68
392.983	2.8
393.428	2.97
393.874	3.19
394.319	3.44
394.765	3.67
395.21	3.91
395.655	4.15
396.101	4.42
396.546	4.72
396.991	5.07
397.436	5.42
397.881	5.79
398.326	6.13
398.771	6.44
399.216	6.72
399.661	6.97
400.106	7.2
400.551	7.4
400.995	7.56
401.44	7.71
401.885	7.85
402.329	7.99
402.774	8.16
403.218	8.35
403.663	8.56
404.107	8.77
404.551	9
404.995	9.21
405.44	9.4
405.884	9.63
406.328	9.9
406.772	10.17
407.216	10.48
407.66	10.75
408.104	10.98
408.547	11.2
408.991	11.41
409.435	11.64
409.879	11.89
410.322	12.2
410.766	12.49
411.209	12.78
411.653	13.06
412.096	13.29
412.54	13.52
412.983	13.74
413.426	13.98
413.869	14.23
414.312	14.46
414.756	14.68
415.199	14.84
415.642	14.99
416.085	15.13
416.527	15.2
416.97	15.26
417.413	15.26
417.856	15.25
418.298	15.24
418.741	15.25
419.184	15.3
419.626	15.37
420.069	15.46
420.511	15.56
420.953	15.66
421.396	15.8
421.838	15.99
422.28	16.21
422.722	16.45
423.164	16.67
423.606	16.84
424.048	16.98
424.49	17.01
424.932	16.93
425.374	16.68
425.816	16.33
426.258	15.97
426.699	15.73
427.141	15.69
427.582	15.84
428.024	16.08
428.465	16.33
428.907	16.52
429.348	16.73
429.789	17.04
430.231	17.58
430.672	18.31
431.113	19.12
431.554	19.86
431.995	20.43
432.436	20.82
432.877	21.1
433.318	21.35
433.759	21.65
434.2	22.02
434.64	22.43
435.081	22.81
435.522	23.12
435.962	23.39
436.403	23.6
436.843	23.76
437.284	23.93
437.724	24.2
438.164	24.49
438.604	24.85
439.045	25.21
439.485	25.53
439.925	25.79
440.365	26.03
440.805	26.18
441.245	26.33
441.685	26.48
442.125	26.69
442.564	26.87
443.004	27.11
443.444	27.37
443.883	27.64
444.323	27.92
444.762	28.22
445.202	28.54
445.641	28.94
446.081	29.41
446.52	29.88
446.959	30.31
447.398	30.64
447.837	30.82
448.276	30.87
448.716	30.94
449.154	31.01
449.593	31.04
450.032	31.01
450.471	30.92
450.91	30.77
451.349	30.63
451.787	30.53
452.226	30.45
452.664	30.44
453.103	30.46
453.541	30.43
453.98	30.36
454.418	30.26
454.856	30.17
455.295	30.07
455.733	29.97
456.171	29.91
456.609	29.84
457.047	29.79
457.485	29.77
457.923	29.81
458.361	29.88
458.798	29.99
459.236	30.08
459.674	30.2
460.111	30.32
460.549	30.47
460.987	30.62
461.424	30.76
461.862	30.89
462.299	31.02
462.736	31.13
463.173	31.27
463.611	31.46
464.048	31.72
464.485	32.02
464.922	32.34
465.359	32.67
465.796	32.95
466.233	33.21
466.67	33.54
467.106	33.92
467.543	34.34
467.98	34.8
468.416	35.17
468.853	35.52
469.29	35.83
469.726	36.17
470.162	36.51
470.599	36.86
471.035	37.19
471.471	37.42
471.907	37.56
472.344	37.66
472.78	37.74
473.216	37.86
473.652	37.98
474.088	38.08
474.523	38.14
474.959	38.16
475.395	38.18
475.831	38.18
476.266	38.21
476.702	38.26
477.138	38.28
477.573	38.26
478.008	38.15
478.444	38.01
478.879	37.83
479.314	37.61
479.75	37.36
480.185	37.05
480.62	36.69
481.055	36.12
481.49	35.39
481.925	34.61
482.36	33.88
482.795	33.29
483.229	32.83
483.664	32.46
484.099	32.15
484.534	31.91
484.968	31.73
485.403	31.7
485.837	31.87
486.271	32.16
486.706	32.49
487.14	32.72
487.574	32.85
488.009	32.92
488.443	32.98
488.877	33.05
489.311	33.15
489.745	33.25
490.179	33.35
490.613	33.43
491.046	33.53
491.48	33.67
491.914	33.89
492.348	34.18
492.781	34.48
493.215	34.74
493.648	34.95
494.082	35.12
494.515	35.27
494.948	35.41
495.382	35.54
495.815	35.69
496.248	35.82
496.681	35.89
497.114	35.94
497.547	36
497.98	36.14
498.413	36.38
498.846	36.67
499.279	36.96
499.711	37.23
500.144	37.56
500.577	37.97
501.009	38.47
501.442	39.08
501.874	39.74
502.306	40.38
502.739	40.97
503.171	41.49
503.603	41.99
504.036	42.55
504.468	43.17
504.9	43.81
505.332	44.42
505.764	44.96
506.196	45.47
506.627	46.03
507.059	46.67
507.491	47.34
507.923	48.01
508.354	48.72
508.786	49.36
509.217	49.94
509.649	50.5
510.08	51.08
510.512	51.71
510.943	52.38
511.374	53
511.805	53.46
512.237	53.78
512.668	54.06
513.099	54.35
513.53	54.75
513.961	55.21
514.391	55.75
514.822	56.36
515.253	57.03
515.684	57.69
516.114	58.42
516.545	59.25
516.975	60.29
517.406	61.39
517.836	62.47
518.267	63.44
518.697	64.33
519.127	65.15
519.558	65.9
519.988	66.6
520.418	67.24
520.848	67.74
521.278	68.21
521.708	68.58
522.138	68.89
522.567	69.14
522.997	69.4
523.427	69.72
523.857	70.01
524.286	70.3
524.716	70.57
525.145	70.77
525.575	71.06
526.004	71.34
526.433	71.68
526.863	72.07
527.292	72.45
527.721	72.75
528.15	72.97
528.579	73.13
529.008	73.31
529.437	73.4
529.866	73.54
530.295	73.67
530.724	73.82
531.152	73.93
531.581	74.03
532.01	74.12
532.438	74.21
532.867	74.35
533.295	74.51
533.723	74.64
534.152	74.79
534.58	74.88
535.008	74.93
535.436	74.95
535.865	74.94
536.293	74.91
536.721	74.96
537.149	75.07
537.576	75.23
538.004	75.41
538.432	75.51
538.86	75.65
539.287	75.8
539.715	76.02
540.143	76.29
540.57	76.61
540.998	76.95
541.425	77.21
541.852	77.54
542.28	77.82
542.707	78.09
543.134	78.39
543.561	78.64
543.988	78.9
544.415	79.15
544.842	79.41
545.269	79.65
545.696	79.89
546.123	80.22
546.549	80.43
546.976	80.62
547.403	80.83
547.829	81.04
548.256	81.29
548.682	81.49
549.108	81.73
549.535	81.94
549.961	82.08
550.387	82.22
550.813	82.36
551.24	82.5
551.666	82.58
552.092	82.64
552.518	82.71
552.943	82.71
553.369	82.78
553.795	82.77
554.221	82.68
554.646	82.61
555.072	82.42
555.498	82.23
555.923	82.06
556.349	81.9
556.774	81.72
557.199	81.51
557.625	81.36
558.05	81.11
558.475	80.86
558.9	80.64
559.325	80.4
559.75	80.18
560.175	79.91
560.6	79.59
561.025	79.2
561.449	78.81
561.874	78.36
562.299	77.87
562.723	77.42
563.148	76.88
563.572	76.3
563.997	75.73
564.421	75.09
564.846	74.52
565.27	73.9
565.694	73.35
566.118	72.7
566.542	72.13
566.966	71.54
567.39	70.96
567.814	70.47
568.238	70.06
568.662	69.65
569.086	69.33
569.509	69.03
569.933	68.8
570.357	68.61
570.78	68.47
571.204	68.38
571.627	68.33
572.05	68.32
572.474	68.33
572.897	68.38
573.32	68.42
573.743	68.49
574.166	68.53
574.589	68.57
575.012	68.63
575.435	68.78
575.858	68.87
576.281	69
576.704	69.11
577.126	69.21
577.549	69.24
577.972	69.35
578.394	69.46
578.817	69.56
579.239	69.69
579.661	69.8
580.084	69.83
580.506	69.88
580.928	69.85
581.35	69.81
581.772	69.71
582.194	69.65
582.616	69.59
583.038	69.51
583.46	69.38
583.882	69.15
584.303	68.81
584.725	68.41
585.147	67.94
585.568	67.53
585.99	67.19
586.411	66.95
586.833	66.68
587.254	66.39
587.675	66.12
588.096	65.91
588.518	65.75
588.939	65.69
589.36	65.69
589.781	65.75
590.202	65.74
590.623	65.67
591.043	65.47
591.464	65.29
591.885	65.07
592.305	64.88
592.726	64.62
593.147	64.33
593.567	64.02
593.987	63.68
594.408	63.34
594.828	63
595.248	62.66
595.669	62.31
596.089	61.91
596.509	61.51
596.929	61.06
597.349	60.6
597.769	60.15
598.189	59.71
598.608	59.36
599.028	59.03
599.448	58.71
599.867	58.4
600.287	58.15
600.706	57.88
601.126	57.61
601.545	57.38
601.965	57.19
602.384	57
602.803	56.81
603.222	56.58
603.641	56.33
604.061	56.08
604.48	55.79
604.898	55.5
605.317	55.22
605.736	54.93
606.155	54.62
606.574	54.31
606.992	54.02
607.411	53.73
607.829	53.41
608.248	53.11
608.666	52.78
609.085	52.47
609.503	52.14
609.921	51.8
610.339	51.48
610.758	51.2
611.176	50.86
611.594	50.48
612.012	50.08
612.43	49.68
612.847	49.28
613.265	48.94
613.683	48.65
614.101	48.39
614.518	48.13
614.936	47.88
615.353	47.62
615.771	47.42
616.188	47.25
616.606	47.12
617.023	47.01
617.44	46.89
617.857	46.7
618.274	46.47
618.691	46.21
619.108	45.94
619.525	45.66
619.942	45.37
620.359	45.04
620.776	44.71
621.192	44.36
621.609	44.05
622.026	43.77
622.442	43.54
622.859	43.33
623.275	43.1
623.691	42.89
624.108	42.69
624.524	42.51
624.94	42.34
625.356	42.19
625.772	42.04
626.188	41.9
626.604	41.73
627.02	41.55
627.436	41.37
627.852	41.24
628.268	41.14
628.683	41.06
629.099	40.97
629.514	40.9
629.93	40.84
630.345	40.79
630.761	40.72
631.176	40.66
631.591	40.58
632.007	40.5
632.422	40.43
632.837	40.35
633.252	40.24
633.667	40.14
634.082	40.02
634.497	39.9
634.911	39.76
635.326	39.59
635.741	39.39
636.155	39.17
636.57	38.93
636.984	38.65
637.399	38.35
637.813	38.06
638.228	37.76
638.642	37.48
639.056	37.17
639.47	36.88
639.884	36.59
640.298	36.31
640.712	36.06
641.126	35.8
641.54	35.55
641.954	35.29
642.368	34.99
642.781	34.72
643.195	34.44
643.609	34.15
644.022	33.87
644.436	33.61
644.849	33.32
645.262	33.02
645.676	32.74
646.089	32.5
646.502	32.3
646.915	32.16
647.328	32
647.741	31.83
648.154	31.69
648.567	31.55
648.98	31.44
649.393	31.35
649.805	31.29
650.218	31.2
650.631	31.08
651.043	30.85
651.456	30.48
651.868	30.01
652.28	29.52
652.693	29.07
653.105	28.69
653.517	28.37
653.929	28.11
654.341	27.86
654.753	27.67
655.165	27.49
655.577	27.41
655.989	27.42
656.401	27.55
656.813	27.73
657.224	27.84
657.636	27.87
658.047	27.84
658.459	27.72
658.87	27.59
659.282	27.4
659.693	27.19
660.104	26.96
660.515	26.76
660.926	26.52
661.338	26.29
661.749	26.02
662.159	25.76
662.57	25.5
662.981	25.25
663.392	25
663.803	24.77
664.213	24.55
664.624	24.36
665.035	24.15
665.445	23.95
665.855	23.74
666.266	23.56
666.676	23.39
667.086	23.2
667.497	23.03
667.907	22.86
668.317	22.7
668.727	22.56
669.137	22.4
669.547	22.26
669.956	22.12
670.366	22.01
670.776	21.89
671.186	21.79
671.595	21.7
672.005	21.63
672.414	21.58
672.824	21.52
673.233	21.47
673.642	21.43
674.052	21.4
674.461	21.38
674.87	21.34
675.279	21.34
675.688	21.34
676.097	21.34
676.506	21.36
676.915	21.39
677.323	21.42
677.732	21.46
678.141	21.52
678.549	21.58
678.958	21.66
679.366	21.75
679.775	21.83
680.183	21.93
680.592	22.06
681	22.2
681.408	22.33
681.816	22.47
682.224	22.51
682.632	22.45
683.04	22.33
683.448	22.22
683.856	22.17
684.264	22.2
684.671	22.24
685.079	22.32
685.487	22.43
685.894	22.62
686.302	22.91
686.709	23.36
687.116	23.99
687.524	24.76
687.931	25.61
688.338	26.5
688.745	27.41
689.152	28.34
689.559	29.33
689.966	30.33
690.373	31.35
690.78	32.37
691.187	33.41
691.593	34.46
692	35.53
692.407	36.62
692.813	37.73
693.22	38.82
693.626	39.92
694.032	41.01
694.439	42.13
694.845	43.25
695.251	44.35
695.657	45.41
696.063	46.47
696.469	47.49
696.875	48.5
697.281	49.45
697.687	50.4
698.093	51.36
698.498	52.35
698.904	53.32
699.31	54.3
699.715	55.29
700.12	56.34
700.526	57.38
700.931	58.45
701.337	59.49
701.742	60.48
702.147	61.53
702.552	62.57
702.957	63.53
703.362	64.48
703.767	65.38
704.172	66.27
704.577	67.1
704.981	67.89
705.386	68.65
705.791	69.45
706.195	70.27
706.6	71.03
707.004	71.74
707.408	72.45
707.813	73.15
708.217	73.81
708.621	74.45
709.025	75.07
709.43	75.7
709.834	76.34
710.237	76.9
710.641	77.43
711.045	77.95
711.449	78.47
711.853	78.97
712.256	79.34
712.66	79.61
713.064	79.79
713.467	79.85
713.87	79.77
714.274	79.55
714.677	79.27
715.08	78.98
715.484	78.69
715.887	78.43
716.29	78.23
716.693	78.26
717.096	78.56
717.499	79.07
717.901	79.77
718.304	80.58
718.707	81.46
719.109	82.34
719.512	83.12
719.915	83.85
720.317	84.52
720.719	85.1
721.122	85.56
721.524	85.85
721.926	86.03
722.328	86.18
722.731	86.28
723.133	86.42
723.535	86.58
723.937	86.85
724.338	87.09
724.74	87.34
725.142	87.63
725.544	87.91
725.945	88.22
726.347	88.45
726.748	88.66
727.15	88.88
727.551	89.16
727.952	89.49
728.354	89.88
728.755	90.32
729.156	90.81
729.557	91.26
729.958	91.73
730.359	92.2
730.76	92.64
731.161	93.02
731.562	93.42
731.962	93.68
732.363	93.95
732.763	94.16
733.164	94.36
733.564	94.52
733.965	94.6
734.365	94.62
734.766	94.58
735.166	94.56
735.566	94.57
735.966	94.57
736.366	94.62
736.766	94.59
737.166	94.53
737.566	94.45
737.966	94.35
738.365	94.35
738.765	94.42
739.165	94.53
739.564	94.65
739.964	94.71
740.363	94.75
740.763	94.79
741.162	94.9
741.561	95.01
741.96	95.12
742.36	95.24
742.759	95.32
743.158	95.36
743.557	95.35
743.955	95.36
744.354	95.34
744.753	95.36
745.152	95.32
745.55	95.23
745.949	95.12
746.348	94.96
746.746	94.78
747.144	94.59
747.543	94.35
747.941	94.14
748.339	93.86
748.737	93.63
749.136	93.37
749.534	93.14
749.932	92.97
750.33	92.79
750.727	92.63
751.125	92.46
751.523	92.22
751.921	92.04
752.318	91.83
752.716	91.67
753.113	91.52
753.511	91.33
753.908	91.17
754.305	90.86
754.703	90.2
755.1	88.85
755.497	86.35
755.894	82.7
756.291	78.19
756.688	73.37
757.085	68.79
757.482	64.64
757.878	60.81
758.275	57
758.672	53.12
759.068	49.57
759.465	46.8
759.861	45.47
760.258	45.62
760.654	46.93
761.05	48.9
761.447	50.91
761.843	52.75
762.239	54.61
762.635	56.78
763.031	59.39
763.427	62.29
763.822	65.33
764.218	68.3
764.614	71.07
765.01	73.6
765.405	75.86
765.801	77.89
766.196	79.7
766.592	81.19
766.987	82.39
767.382	83.28
767.778	83.95
768.173	84.45
768.568	84.75
768.963	85
769.358	85.19
769.753	85.33
770.148	85.38
770.542	85.31
770.937	85.23
771.332	85.14
771.726	85.08
772.121	84.98
772.515	84.84
772.91	84.71
773.304	84.54
773.699	84.33
774.093	84.07
774.487	83.9
774.881	83.8
775.275	83.61
775.669	83.4
776.063	83.16
776.457	82.9
776.851	82.62
777.245	82.34
777.638	82.14
778.032	82.01
778.425	81.89
778.819	81.66
779.212	81.36
779.606	81.12
779.999	80.87
780.392	80.66
780.786	80.44
781.179	80.23
781.572	80.04
781.965	79.74
782.358	79.41
782.751	79.1
783.143	78.82
783.536	78.57
783.929	78.27
784.322	78.03
784.714	77.73
785.107	77.4
785.499	77.04
785.891	76.68
786.284	76.36
786.676	75.99
787.068	75.57
787.46	75.16
787.852	74.76
788.245	74.37
788.636	73.92
789.028	73.49
789.42	73.05
789.812	72.65
790.204	72.2
790.595	71.76
790.987	71.37
791.378	71.06
791.77	70.75
792.161	70.41
792.553	70.13
792.944	69.83
793.335	69.6
793.726	69.38
794.117	69.15
794.508	68.93
794.899	68.71
795.29	68.45
795.681	68.07
796.072	67.7
796.463	67.36
796.853	67
797.244	66.62
797.634	66.23
798.025	65.86
798.415	65.43
798.806	65
799.196	64.58
799.586	64.17
799.976	63.84
800.366	63.46
800.756	63.11
801.146	62.71
801.536	62.35
801.926	61.98
802.316	61.63
802.706	61.29
803.095	60.95
803.485	60.59
803.874	60.22
804.264	59.82
804.653	59.44
805.043	59.02
805.432	58.62
805.821	58.19
806.21	57.75
806.599	57.23
806.988	56.76
807.377	56.29
807.766	55.81
808.155	55.31
808.544	54.79
808.933	54.26
809.321	53.66
809.71	53.05
810.098	52.41
810.487	51.69
810.875	51.01
811.264	50.24
811.652	49.47
812.04	48.61
812.428	47.8
812.816	47.02
813.204	46.26
813.592	45.56
813.98	44.89
814.368	44.29
814.756	43.75
815.144	43.23
815.531	42.78
815.919	42.41
816.306	42.19
816.694	42
817.081	41.84
817.469	41.69
817.856	41.45
818.243	41.12
818.63	40.67
819.017	40.21
819.404	39.84
819.791	39.55
820.178	39.29
820.565	38.97
820.952	38.64
821.339	38.3
821.725	37.98
822.112	37.8
822.498	37.69
822.885	37.67
823.271	37.61
823.657	37.46
824.044	37.23
824.43	36.92
824.816	36.61
825.202	36.28
825.588	35.95
825.974	35.64
826.36	35.3
826.746	34.96
827.132	34.63
827.517	34.38
827.903	34.12
828.289	33.86
828.674	33.62
829.06	33.38
829.445	33.16
829.83	32.94
830.216	32.71
830.601	32.53
830.986	32.36
831.371	32.19
831.756	32.04
832.141	31.92
832.526	31.79
832.911	31.68
833.295	31.59
833.68	31.5
834.065	31.39
834.449	31.28
834.834	31.13
835.218	31
835.603	30.87
835.987	30.73
836.371	30.58
836.755	30.45
837.139	30.3
837.524	30.16
837.908	30.01
838.291	29.86
838.675	29.71
839.059	29.59
839.443	29.42
839.827	29.26
840.21	29.08
840.594	28.93
840.977	28.79
841.361	28.67
841.744	28.51
842.127	28.36
842.511	28.24
842.894	28.11
843.277	27.97
843.66	27.86
844.043	27.74
844.426	27.64
844.809	27.52
845.191	27.34
845.574	27.14
845.957	26.95
846.339	26.75
846.722	26.58
847.104	26.42
847.487	26.26
847.869	26.09
848.252	25.93
848.634	25.76
849.016	25.59
849.398	25.43
849.78	25.2
850.162	24.96
850.544	24.72
850.926	24.51
851.307	24.32
851.689	24.16
852.071	24.03
852.452	23.9
852.834	23.79
853.215	23.68
853.597	23.66
853.978	23.71
854.359	23.8
854.741	23.87
855.122	23.91
855.503	23.92
855.884	23.91
856.265	23.88
856.646	23.81
857.026	23.75
857.407	23.69
857.788	23.59
858.169	23.5
858.549	23.42
858.93	23.34
859.31	23.25
859.69	23.16
860.071	23.07
860.451	22.97
860.831	22.87
861.211	22.73
861.591	22.57
861.971	22.38
862.351	22.17
862.731	21.97
863.111	21.77
863.491	21.58
863.87	21.43
864.25	21.27
864.629	21.12
865.009	21
865.388	20.92
865.768	20.87
866.147	20.87
866.526	20.89
866.905	20.91
867.284	20.9
867.663	20.89
868.042	20.86
868.421	20.84
868.8	20.81
869.179	20.79
869.558	20.73
869.936	20.68
870.315	20.62
870.693	20.55
871.072	20.48
871.45	20.41
871.828	20.35
872.207	20.29
872.585	20.2
872.963	20.14
873.341	20.07
873.719	20.02
874.097	19.97
874.475	19.93
874.853	19.89
875.23	19.84
875.608	19.78
875.986	19.72
876.363	19.65
876.741	19.6
877.118	19.53
877.495	19.47
877.873	19.42
878.25	19.37
878.627	19.3
879.004	19.23
879.381	19.17
879.758	19.12
880.135	19.07
880.512	19.03
880.889	18.99
881.265	18.93
881.642	18.89
882.019	18.82
882.395	18.76
882.772	18.71
883.148	18.66
883.524	18.61
883.901	18.55
884.277	18.49
884.653	18.44
885.029	18.39
885.405	18.35
885.781	18.31
886.157	18.27
886.532	18.22
886.908	18.17
887.284	18.12
887.659	18.07
888.035	18.03
888.411	17.99
888.786	17.95
889.161	17.9
889.537	17.84
889.912	17.78
890.287	17.71
890.662	17.63
891.037	17.56
891.412	17.47
891.787	17.38
892.162	17.28
892.536	17.16
892.911	17.04
893.286	16.91
893.66	16.79
894.035	16.67
894.409	16.54
894.784	16.4
895.158	16.26
895.532	16.14
895.906	16.01
896.281	15.89
896.655	15.79
897.029	15.68
897.402	15.58
897.776	15.5
898.15	15.41
898.524	15.36
898.898	15.32
899.271	15.31
899.645	15.32
900.018	15.36
900.392	15.39
900.765	15.45
901.138	15.5
901.511	15.56
901.884	15.6
902.258	15.67
902.631	15.71
903.003	15.75
903.376	15.75
903.749	15.73
904.122	15.69
904.495	15.63
904.867	15.55
905.24	15.47
905.612	15.39
905.985	15.31
906.357	15.21
906.729	15.14
907.102	15.06
907.474	15.01
907.846	14.96
908.218	14.92
908.59	14.9
908.962	14.88
909.334	14.86
909.705	14.84
910.077	14.82
910.449	14.81
910.82	14.81
911.192	14.79
911.563	14.76
911.935	14.72
912.306	14.69
912.677	14.64
913.048	14.62
913.419	14.59
913.79	14.57
914.161	14.55
914.532	14.53
914.903	14.51
915.274	14.5
915.645	14.5
916.015	14.5
916.386	14.5
916.756	14.53
917.127	14.55
917.497	14.57
917.868	14.59
918.238	14.6
918.608	14.6
918.978	14.6
919.348	14.6
919.718	14.6
920.088	14.62
920.458	14.61
920.828	14.57
921.198	14.54
921.567	14.52
921.937	14.51
922.306	14.47
922.676	14.45
923.045	14.43
923.415	14.4
923.784	14.37
924.153	14.32
924.522	14.27
924.891	14.22
925.26	14.16
925.629	14.1
925.998	14.01
926.367	13.93
926.736	13.84
927.104	13.74
927.473	13.6
927.842	13.44
928.21	13.3
928.578	13.14
928.947	12.98
929.315	12.79
929.683	12.6
930.051	12.4
930.42	12.22
930.788	12.01
931.156	11.84
931.523	11.7
931.891	11.59
932.259	11.46
932.627	11.37
932.994	11.27
933.362	11.22
933.729	11.16
934.097	11.14
934.464	11.11
934.831	11.13
935.199	11.13
935.566	11.18
935.933	11.24
936.3	11.32
936.667	11.38
937.034	11.49
937.401	11.58
937.767	11.72
938.134	11.84
938.501	11.96
938.867	12.1
939.234	12.2
939.6	12.29
939.967	12.34
940.333	12.31
940.699	12.33
941.065	12.29
941.431	12.27
941.798	12.2
942.163	12.17
942.529	12.15
942.895	12.09
943.261	12.04
943.627	11.98
943.992	11.94
944.358	11.97
944.723	11.95
945.089	11.92
945.454	11.92
945.82	11.92
946.185	11.95
946.55	11.93
946.915	11.9
947.28	11.93
947.645	11.93
948.01	11.92
948.375	11.9
948.74	11.91
949.104	11.89
949.469	11.88
949.834	11.84
950.198	11.82
950.562	11.79
950.927	11.81
951.291	11.75
951.655	11.7
952.02	11.64
952.384	11.63
952.748	11.61
953.112	11.63
953.476	11.6
953.839	11.58
954.203	11.54
954.567	11.54
954.931	11.52
955.294	11.54
955.658	11.57
956.021	11.6
956.385	11.59
956.748	11.6
957.111	11.59
957.474	11.61
957.837	11.61
958.2	11.63
958.563	11.61
958.926	11.58
959.289	11.6
959.652	11.58
960.015	11.58
960.377	11.63
960.74	11.64
961.102	11.66
961.465	11.72
961.827	11.79
962.189	11.84
962.552	11.86
962.914	11.91
963.276	11.93
963.638	11.93
964	11.93
964.362	11.95
964.724	11.93
965.085	11.97
965.447	11.97
965.809	11.99
966.17	12.02
966.532	12.06
966.893	12.13
967.255	12.18
967.616	12.3
967.977	12.39
968.338	12.43
968.699	12.49
969.061	12.53
969.421	12.56
969.782	12.57
970.143	12.58
970.504	12.62
970.865	12.58
971.225	12.59
971.586	12.56
971.946	12.51
972.307	12.51
972.667	12.52
973.027	12.56
973.388	12.54
973.748	12.55
974.108	12.6
974.468	12.57
974.828	12.59
975.188	12.61
975.548	12.55
975.907	12.55
976.267	12.53
976.627	12.53
976.986	12.49
977.346	12.51
977.705	12.51
978.064	12.53
978.424	12.58
978.783	12.57
979.142	12.55
979.501	12.67
979.86	12.73
980.219	12.78
980.578	12.88
980.937	12.9
981.296	12.9
981.654	12.93
982.013	12.94
982.371	12.96
982.73	13.02
983.088	13.11
983.447	13.1
983.805	13.11
984.163	13.09
984.521	13.03
984.879	13
985.237	13.06
985.595	13.12
985.953	13.12
986.311	13.1
986.669	13.11
987.026	13.07
987.384	13.14
987.741	13.12
988.099	13.19
988.456	13.18
988.814	13.21
989.171	13.22
989.528	13.18
989.885	13.21
990.242	13.19
990.599	13.15
990.956	13.21
991.313	13.2
991.67	13.31
992.027	13.34
992.383	13.47
992.74	13.6
993.096	13.59
993.453	13.6
993.809	13.63
994.165	13.76
994.522	13.85
994.878	13.95
995.234	13.97
995.59	14.01
995.946	14.01
996.302	13.91
996.658	13.95
997.013	14.05
997.369	14.19
997.725	14.13
998.08	14.12
998.436	14.16
998.791	14.11
999.147	14.07
999.502	14.09
999.857	14.14
1000.212	14.16
1000.567	14.1
1000.922	14.03
1001.277	13.89
1001.632	13.87
1001.987	13.95
1002.342	13.91
1002.696	13.92
1003.051	14.04
1003.406	14.04
1003.76	14.09
1004.114	14.09
1004.469	14.18
1004.823	14.42
1005.177	14.58
1005.531	14.66
1005.885	14.54
1006.239	14.63
1006.593	14.69
1006.947	14.72
1007.301	14.53
1007.655	14.45
1008.008	14.52
1008.362	14.63
1008.715	14.45
1009.069	14.43
1009.422	14.48
1009.776	14.49
1010.129	14.49
1010.482	14.49
1010.835	14.48
1011.188	14.79
1011.541	14.89
1011.894	15.09
1012.247	15.06
1012.6	15.25
1012.952	15.24
1013.305	15.41
1013.657	15.67
1014.01	15.88
1014.362	15.92
1014.715	16.01
1015.067	15.97
1015.419	16.17
1015.771	16.15
1016.123	16.1
1016.475	16.02
1016.827	16.12
1017.179	16.07
1017.531	16.11
1017.883	16.03
1018.234	16.21
1018.586	16.17
1018.938	16.31
1019.289	16.28
1019.64	16.35
1019.992	16.49
1020.343	16.41
1020.694	16.6
1021.045	16.67
1021.396	16.54
1021.747	16.72
1022.098	16.71
1022.449	16.94
1022.8	16.93
1023.151	16.94
1023.501	17.15
1023.852	17.31
1024.202	17.61
1024.553	17.55
1024.903	17.85
1025.253	18.18
1025.604	18.36
1025.954	18.37
1026.304	18.34
1026.654	18.7
1027.004	18.88
1027.354	18.84
1027.703	18.71
1028.053	18.59
1028.403	18.72
1028.753	18.59
1029.102	18.96
1029.452	19.07
1029.801	19.48
1030.15	19.59
1030.499	19.37
897.758	460.39
901.051	462.65
904.343	464.31
907.636	468.99
910.928	457.38
914.22	461.52
917.511	455.85
920.803	440.66
924.094	436.6
927.384	427.37
930.675	408.89
933.965	406.58
937.255	384
940.544	370.21
943.834	354.69
947.123	351.65
950.411	331.81
953.7	324.39
956.988	310.35
960.276	301.87
963.563	297.37
966.851	288.24
970.138	285.46
973.424	279.08
976.711	278.58
979.997	266.39
983.283	265.62
986.568	260.38
989.853	254.81
993.138	248.99
996.423	239.23
999.708	233.37
1002.992	231.37
1006.275	222.22
1009.559	219.6
1012.842	213.35
1016.125	209.96
1019.408	205.87
1022.69	205.05
1025.972	199.12
1029.254	195.91
1032.536	193.7
1035.817	191.35
1039.098	189.08
1042.379	186.13
1045.659	184.88
1048.939	180.94
1052.219	176.45
1055.498	174.87
1058.778	169.52
1062.057	168.48
1065.335	166.3
1068.614	164.03
1071.892	161.7
1075.17	159.19
1078.447	156.92
1081.724	155.75
1085.001	155.04
1088.278	153.63
1091.554	150.88
1094.83	151.58
1098.106	149.86
1101.382	149.42
1104.657	148.53
1107.932	146.38
1111.206	146.8
1114.481	143.9
1117.755	143.34
1121.029	142
1124.302	141.35
1127.575	139.42
1130.848	137.83
1134.121	137.52
1137.393	136.08
1140.665	133.54
1143.937	132.91
1147.208	132.33
1150.48	131.63
1153.75	129.3
1157.021	129.14
1160.291	128.6
1163.561	127.04
1166.831	127.25
1170.101	125.9
1173.37	127.36
1176.639	127.88
1179.907	126.48
1183.176	124.62
1186.444	124.59
1189.711	125.08
1192.979	123.8
1196.246	123.86
1199.513	124.7
1202.78	123.85
1206.046	123.55
1209.312	121.25
1212.578	121.09
1215.843	122.72
1219.108	122.44
1222.373	124.31
1225.638	124.54
1228.902	125.36
1232.166	125.76
1235.43	125.72
1238.693	127.52
1241.956	127.98
1245.219	129.77
1248.482	130.7
1251.744	130
1255.006	130.08
1258.268	128.37
1261.529	127.5
1264.79	126.66
1268.051	125.63
1271.312	125.41
1274.572	123.68
1277.832	123.47
1281.092	121.1
1284.351	120.17
1287.61	120.23
1290.869	119.16
1294.128	118.46
1297.386	118.32
1300.644	117.54
1303.902	117.3
1307.159	116.5
1310.416	116.25
1313.673	115.58
1316.93	116.46
1320.186	116.21
1323.442	116.6
1326.697	117.35
1329.953	117.26
1333.208	117.26
1336.463	118.42
1339.717	119.05
1342.972	119.84
1346.226	120.76
1349.479	120.95
1352.733	121.94
1355.986	122.96
1359.238	122.12
1362.491	122.29
1365.743	122.42
1368.995	121.65
1372.247	121.07
1375.498	120.36
1378.749	120.02
1382	118.11
1385.251	117.73
1388.501	116.04
1391.751	114.2
1395	113.67
1398.25	112.3
1401.499	110.55
1404.748	110.12
1407.996	108.6
1411.244	107.66
1414.492	106.76
1417.74	104.9
1420.987	103.46
1424.234	102.67
1427.481	101.42
1430.728	101.06
1433.974	99.76
1437.22	98.71
1440.465	98.79
1443.711	97.1
1446.956	96.17
1450.201	95.72
1453.445	95.44
1456.689	95.02
1459.933	93.19
1463.177	92.94
1466.42	91.7
1469.663	90.81
1472.906	90.39
1476.148	88.63
1479.391	87.82
1482.633	87.72
1485.874	85.98
1489.115	85.19
1492.356	84.58
1495.597	84.96
1498.838	84.25
1502.078	84.02
1505.318	84.25
1508.557	84.5
1511.797	84.33
1515.036	84.43
1518.274	84.52
1521.513	84.6
1524.751	84.19
1527.989	84.55
1531.227	84.74
1534.464	84.21
1537.701	84.43
1540.938	84.33
1544.174	84.4
1547.41	84.6
1550.646	84.27
1553.882	84.27
1557.117	83.88
1560.352	83.69
1563.587	83.8
1566.821	83.34
1570.055	83.83
1573.289	83.05
1576.523	83.4
1579.756	82.1
1582.989	81.94
1586.222	82.23
1589.454	82.16
1592.686	83.32
1595.918	82.98
1599.15	82.77
1602.381	83.04
1605.612	82.66
1608.843	83.24
1612.073	82.72
1615.303	84.04
1618.533	84.22
1621.762	84.56
1624.992	84.36
1628.221	83.7
1631.449	84.21
1634.678	83.72
1637.906	84.06
1641.134	84.21
1644.361	84.09
1647.588	84.17
1650.815	83.79
1654.042	84.18
1657.269	83.75
1660.495	84.21
1663.72	84.41
1666.946	84.65
1670.171	85.43
1673.396	85.09
1676.621	85.46
1679.845	85.3
1683.069	86.11
1686.293	86.04
1689.517	85.95
1692.74	86.49
1695.963	86.45
1699.185	86.24
1702.408	86.25
1705.63	86.39
1708.852	86.9
1712.073	86.41
1715.294	86.8
1718.515	86.61
1721.736	86.89
1724.956	86.96
1728.176	86.72
1731.396	86.83
1734.616	87.41
1737.835	87.45
1741.054	86.99
1744.272	86.97
1747.491	87.43
1750.709	87.73
1753.927	87.46
1757.144	87.3
1760.361	87.41
1763.578	87.46
1766.795	87.23
1770.011	87.32
1773.227	87.36
1776.443	87.94
1779.658	87.58
1782.874	87.88
1786.089	87.37
1789.303	87.87
1792.518	88.04
1795.732	88.09
1798.945	88.89
1802.159	89.01
1805.372	89.24
1808.585	90.13
1811.797	90.25
1815.01	91.02
1818.222	91.28
1821.434	92.42
1824.645	92.04
1827.856	94.05
1831.067	94.49
1834.278	94.45
1837.488	95.21
1840.698	95.35
1843.908	94.66
1847.117	94.88
1850.326	94.84
1853.535	94.28
1856.744	94.34
1859.952	94.22
1863.16	92.63
1866.368	91.28
1869.575	90.52
1872.782	88.6
1875.989	87.24
1879.196	87
1882.402	85.08
1885.608	84.27
1888.814	83.2
1892.019	81.58
1895.224	80.87
1898.429	80.38
1901.634	80.28
1904.838	80.33
1908.042	80.18
1911.246	79.63
1914.449	79.16
1917.652	79.71
1920.855	80.16
1924.058	79.59
1927.26	79.9
1930.462	79.87
1933.664	80.24
1936.865	80.13
1940.066	79.15
1943.267	79.15
1946.467	79.82
1949.668	80.05
1952.868	80.86
1956.067	80.8
1959.267	81.5
1962.466	81.67
1965.665	80.96
1968.863	81.12
1972.061	82.2
1975.259	82.27
1978.457	83.24
1981.654	84.13
1984.852	84.45
1988.048	84.17
1991.245	85.08
1994.441	85.4
1997.637	87.18
2000.833	89.27
2004.028	90.22
2007.223	91.02
2010.418	93.13
2013.613	94.33
2016.807	95.27
2020.001	96.13
2023.194	98
2026.388	100.84
2029.581	103.23
2032.774	103.35
2035.966	105.41
2039.158	106.61
2042.35	108.54
2045.542	107.93
2048.733	109.46
2051.924	110.79
2055.115	113.04
2058.306	113.39
2061.496	113.45
2064.686	114.1
2067.875	115.46
2071.065	115.48
2074.254	115.24
2077.442	116.24
2080.631	117.69
2083.819	119.25
2087.007	120.05
2090.195	121.27
2093.382	122.06
2096.569	122.03
2099.756	124.12
2102.942	124.68
2106.128	125.63
2109.314	128.7
2112.5	128.49
2115.685	132.01
2118.87	132.12
2122.055	134.45
2125.239	135.27
2128.424	137.06
2131.608	137.99
2134.791	140.09
2137.974	140.78
2141.157	142.12
2144.34	141.92
2147.523	142.5
2150.705	142.13
2153.887	143.68
2157.068	143.95
2160.25	142.62
2163.431	144.49
2166.611	144.89
2169.792	147.05
2172.972	148.75
2176.152	149.29
2179.331	151.29
2182.511	154.64
2185.69	154.8
2188.868	157.51
2192.047	157.85
2195.225	162.74
2198.403	164.78
2201.58	169.31
2204.758	172.56
2207.935	175.75
2211.111	179.64
2214.288	181.74
2217.464	182.29
2220.64	186.95
2223.815	188.4
2226.991	194.8
2230.166	194.69
2233.34	198.13
2236.515	200.92
2239.689	200.49
2242.863	200.35
2246.036	206.37
2249.209	203.61
2252.382	207.41
2255.555	209.33
2258.727	211.92
2261.9	217.06
2265.071	219.35
2268.243	222.38
2271.414	223.99
2274.585	228.81
2277.756	231.39
2280.926	233.95
2284.096	241.07
2287.266	244.22
2290.436	248.91
2293.605	252.82
2296.774	256.61
2299.942	262.98
2303.111	265.78
2306.279	271.61
2309.447	272.72
2312.614	283.71
2315.781	285.24
2318.948	298.29
2322.115	295.32
2325.281	311.64
2328.447	306.98
2331.613	317.06
2334.779	314.7
2337.944	326.48
2341.109	329.86
2344.274	342.05
2347.438	349.37
2350.602	353.23
2353.766	363.56
2356.929	371.32
2360.092	367.63
2363.255	391.44
2366.418	394.64
2369.58	399.6
2372.742	423.66
2375.904	435.57
2379.066	434.71
2382.227	426.8
2385.388	460.91
2388.548	461.38
2391.709	465.13
2394.869	516.28
2398.029	496.78
2401.188	506.01
2404.347	507.05
2407.506	500.3
2410.665	511.09
2413.823	535.13
2416.981	568.96
2420.139	549.47
2423.296	541.46
2426.453	565.6
2429.61	549.9
2432.767	568.61
2435.923	566.03
2439.079	617.94
2442.235	633.06
2445.391	626.99
2448.546	626.37
2451.701	605.28
2454.855	607.78
2458.009	645.79
2461.163	672.45
2464.317	693.65
2467.471	714.69
2470.624	714.43
2473.777	695.41
2476.929	672.35
2480.082	656.01
2483.234	650.97
2486.385	686.15
2489.537	691.03
2492.688	711.39
2495.839	688.56
2498.989	674.65
2502.14	677.24
2505.29	679.62
2508.439	688.62
2511.589	686.95
2514.738	744.47
2517.887	725.58
2521.035	769.28
2524.183	766.96
2527.331	775.76
2530.479	772.25
2533.627	772.71
