Data from N_1_DEC_CT_2n_Splice17_12-18-52-640.txt Node
Date: Sat Mar 07 12:18:52 EST 2020
User: sa697716
Spectrometer: NQ5500242
Trigger mode: 0
Integration Time (sec): 1.450000E-1
Scans to average: 20
Nonlinearity correction enabled: false
Boxcar width: 5
Storing dark spectrum: false
XAxis mode: Wavelengths
Number of Pixels in Spectrum: 512
>>>>>Begin Spectral Data<<<<<
187.83	91.99
188.298	100.1
188.766	65.2
189.233	72.05
189.701	62.45
190.169	78.88
190.636	86.82
191.104	85.56
191.571	15.18
192.039	-22.6
192.506	-192.63
192.974	72.16
193.441	114.14
193.908	-81.5
194.375	11.5
194.842	-21.58
195.31	1.25
195.777	95.77
196.244	33.16
196.711	35.56
197.177	37.34
197.644	36.81
198.111	36.96
198.578	36.71
199.045	36.75
199.511	35.96
199.978	35.82
200.445	35.91
200.911	35.76
201.378	35.82
201.844	35.53
202.31	34.99
202.777	34.93
203.243	34.64
203.709	34.5
204.176	34.68
204.642	34.94
205.108	34.97
205.574	34.94
206.04	34.56
206.506	34.51
206.972	34.69
207.438	34.67
207.903	34.19
208.369	33.68
208.835	33.09
209.301	32.38
209.766	31.48
210.232	30.65
210.697	29.86
211.163	29.28
211.628	28.57
212.094	27.78
212.559	27.24
213.024	26.68
213.49	26.27
213.955	25.61
214.42	25.06
214.885	24.37
215.35	23.67
215.815	22.56
216.28	21.25
216.745	19.84
217.21	18.45
217.675	17.16
218.14	16.06
218.604	15.13
219.069	14.35
219.534	13.66
219.998	13.13
220.463	12.64
220.927	12.18
221.392	11.9
221.856	11.6
222.32	11.37
222.785	11.16
223.249	10.94
223.713	10.73
224.177	10.6
224.642	10.43
225.106	10.25
225.57	10.08
226.034	9.98
226.497	9.82
226.961	9.69
227.425	9.58
227.889	9.46
228.353	9.35
228.816	9.24
229.28	9.11
229.744	9
230.207	8.9
230.671	8.79
231.134	8.69
231.597	8.63
232.061	8.54
232.524	8.44
232.987	8.35
233.45	8.28
233.914	8.19
234.377	8.11
234.84	8.04
235.303	7.98
235.766	7.91
236.229	7.83
236.691	7.74
237.154	7.68
237.617	7.62
238.08	7.56
238.542	7.48
239.005	7.44
239.468	7.37
239.93	7.31
240.393	7.25
240.855	7.19
241.317	7.14
241.78	7.08
242.242	7.01
242.704	6.95
243.166	6.9
243.629	6.85
244.091	6.78
244.553	6.74
245.015	6.69
245.477	6.63
245.939	6.59
246.4	6.53
246.862	6.5
247.324	6.46
247.786	6.41
248.247	6.37
248.709	6.33
249.17	6.3
249.632	6.27
250.093	6.23
250.555	6.19
251.016	6.16
251.477	6.13
251.939	6.11
252.4	6.08
252.861	6.06
253.322	6.03
253.783	6
254.244	5.99
254.705	5.96
255.166	5.94
255.627	5.92
256.088	5.91
256.549	5.89
257.009	5.87
257.47	5.85
257.931	5.82
258.391	5.8
258.852	5.78
259.312	5.76
259.773	5.75
260.233	5.74
260.694	5.72
261.154	5.7
261.614	5.69
262.074	5.67
262.534	5.65
262.994	5.65
263.455	5.65
263.915	5.64
264.374	5.63
264.834	5.63
265.294	5.61
265.754	5.61
266.214	5.61
266.673	5.6
267.133	5.6
267.593	5.61
268.052	5.61
268.512	5.61
268.971	5.61
269.431	5.6
269.89	5.6
270.349	5.6
270.809	5.6
271.268	5.6
271.727	5.6
272.186	5.59
272.645	5.58
273.104	5.57
273.563	5.56
274.022	5.55
274.481	5.55
274.94	5.54
275.399	5.53
275.857	5.53
276.316	5.52
276.775	5.52
277.233	5.51
277.692	5.51
278.15	5.51
278.609	5.51
279.067	5.5
279.525	5.49
279.984	5.48
280.442	5.48
280.9	5.47
281.358	5.47
281.816	5.46
282.274	5.44
282.732	5.44
283.19	5.42
283.648	5.41
284.106	5.4
284.564	5.39
285.021	5.4
285.479	5.39
285.937	5.37
286.394	5.36
286.852	5.35
287.309	5.35
287.767	5.34
288.224	5.33
288.682	5.32
289.139	5.31
289.596	5.31
290.053	5.29
290.511	5.27
290.968	5.27
291.425	5.26
291.882	5.25
292.339	5.24
292.796	5.23
293.252	5.23
293.709	5.22
294.166	5.21
294.623	5.21
295.079	5.21
295.536	5.2
295.992	5.2
296.449	5.19
296.905	5.19
297.362	5.19
297.818	5.18
298.274	5.19
298.731	5.18
299.187	5.17
299.643	5.16
300.099	5.16
300.555	5.15
301.011	5.14
301.467	5.14
301.923	5.13
302.379	5.12
302.835	5.11
303.291	5.1
303.746	5.1
304.202	5.09
304.658	5.09
305.113	5.09
305.569	5.08
306.024	5.08
306.479	5.07
306.935	5.07
307.39	5.07
307.845	5.07
308.301	5.07
308.756	5.07
309.211	5.07
309.666	5.07
310.121	5.07
310.576	5.07
311.031	5.06
311.486	5.07
311.94	5.06
312.395	5.05
312.85	5.05
313.305	5.05
313.759	5.05
314.214	5.03
314.668	5.02
315.123	5.01
315.577	5
316.032	5
316.486	4.99
316.94	4.99
317.394	4.98
317.849	4.97
318.303	4.96
318.757	4.95
319.211	4.95
319.665	4.94
320.119	4.93
320.572	4.93
321.026	4.92
321.48	4.91
321.934	4.9
322.387	4.89
322.841	4.89
323.295	4.89
323.748	4.89
324.202	4.89
324.655	4.89
325.108	4.9
325.562	4.9
326.015	4.9
326.468	4.9
326.921	4.89
327.374	4.89
327.827	4.9
328.28	4.89
328.733	4.88
329.186	4.87
329.639	4.86
330.092	4.85
330.545	4.84
330.997	4.83
331.45	4.83
331.903	4.84
332.355	4.84
332.808	4.83
333.26	4.83
333.713	4.83
334.165	4.83
334.617	4.83
335.069	4.83
335.522	4.83
335.974	4.83
336.426	4.82
336.878	4.81
337.33	4.81
337.782	4.8
338.234	4.8
338.686	4.79
339.137	4.8
339.589	4.8
340.041	4.79
340.493	4.78
340.944	4.77
341.396	4.77
341.847	4.75
342.299	4.74
342.75	4.73
343.201	4.72
343.653	4.72
344.104	4.69
344.555	4.68
345.006	4.68
345.457	4.67
345.908	4.67
346.359	4.67
346.81	4.67
347.261	4.66
347.712	4.66
348.163	4.65
348.613	4.64
349.064	4.65
349.515	4.65
349.965	4.65
350.416	4.64
350.866	4.63
351.317	4.63
351.767	4.63
352.217	4.63
352.668	4.63
353.118	4.63
353.568	4.63
354.018	4.63
354.468	4.63
354.918	4.62
355.368	4.62
355.818	4.63
356.268	4.62
356.718	4.61
357.168	4.6
357.617	4.6
358.067	4.6
358.517	4.6
358.966	4.59
359.416	4.6
359.865	4.6
360.315	4.6
360.764	4.6
361.213	4.59
361.663	4.58
362.112	4.6
362.561	4.61
363.01	4.61
363.459	4.6
363.908	4.61
364.357	4.62
364.806	4.61
365.255	4.62
365.703	4.62
366.152	4.64
366.601	4.65
367.05	4.64
367.498	4.62
367.947	4.62
368.395	4.63
368.844	4.62
369.292	4.61
369.74	4.61
370.189	4.6
370.637	4.59
371.085	4.58
371.533	4.58
371.981	4.58
372.429	4.58
372.877	4.58
373.325	4.58
373.773	4.57
374.221	4.57
374.669	4.56
375.116	4.55
375.564	4.55
376.012	4.55
376.459	4.55
376.907	4.55
377.354	4.55
377.801	4.55
378.249	4.56
378.696	4.56
379.143	4.56
379.591	4.56
380.038	4.57
380.485	4.58
380.932	4.59
381.379	4.59
381.826	4.6
382.273	4.6
382.72	4.6
383.166	4.61
383.613	4.62
384.06	4.62
384.506	4.63
384.953	4.64
385.4	4.65
385.846	4.67
386.292	4.68
386.739	4.69
387.185	4.69
387.631	4.71
388.078	4.71
388.524	4.72
388.97	4.74
389.416	4.76
389.862	4.77
390.308	4.79
390.754	4.81
391.2	4.83
391.645	4.85
392.091	4.87
392.537	4.89
392.983	4.92
393.428	4.95
393.874	4.96
394.319	4.98
394.765	4.99
395.21	5
395.655	5.02
396.101	5.04
396.546	5.06
396.991	5.09
397.436	5.12
397.881	5.16
398.326	5.19
398.771	5.24
399.216	5.26
399.661	5.3
400.106	5.33
400.551	5.36
400.995	5.37
401.44	5.4
401.885	5.43
402.329	5.45
402.774	5.46
403.218	5.49
403.663	5.51
404.107	5.54
404.551	5.57
404.995	5.58
405.44	5.61
405.884	5.64
406.328	5.66
406.772	5.68
407.216	5.71
407.66	5.73
408.104	5.74
408.547	5.77
408.991	5.79
409.435	5.81
409.879	5.84
410.322	5.87
410.766	5.89
411.209	5.93
411.653	5.96
412.096	5.99
412.54	6.02
412.983	6.04
413.426	6.09
413.869	6.12
414.312	6.16
414.756	6.18
415.199	6.19
415.642	6.21
416.085	6.23
416.527	6.23
416.97	6.23
417.413	6.24
417.856	6.27
418.298	6.26
418.741	6.27
419.184	6.28
419.626	6.28
420.069	6.3
420.511	6.31
420.953	6.34
421.396	6.37
421.838	6.41
422.28	6.42
422.722	6.44
423.164	6.45
423.606	6.46
424.048	6.48
424.49	6.49
424.932	6.49
425.374	6.5
425.816	6.47
426.258	6.47
426.699	6.46
427.141	6.46
427.582	6.47
428.024	6.48
428.465	6.49
428.907	6.47
429.348	6.48
429.789	6.48
430.231	6.51
430.672	6.53
431.113	6.54
431.554	6.55
431.995	6.56
432.436	6.57
432.877	6.57
433.318	6.6
433.759	6.63
434.2	6.65
434.64	6.68
435.081	6.7
435.522	6.72
435.962	6.73
436.403	6.75
436.843	6.77
437.284	6.77
437.724	6.8
438.164	6.8
438.604	6.83
439.045	6.85
439.485	6.87
439.925	6.88
440.365	6.89
440.805	6.91
441.245	6.94
441.685	6.98
442.125	7.02
442.564	7.03
443.004	7.05
443.444	7.07
443.883	7.09
444.323	7.1
444.762	7.13
445.202	7.16
445.641	7.21
446.081	7.24
446.52	7.25
446.959	7.28
447.398	7.31
447.837	7.34
448.276	7.36
448.716	7.38
449.154	7.43
449.593	7.46
450.032	7.48
450.471	7.49
450.91	7.5
451.349	7.53
451.787	7.55
452.226	7.57
452.664	7.59
453.103	7.6
453.541	7.61
453.98	7.62
454.418	7.61
454.856	7.6
455.295	7.6
455.733	7.58
456.171	7.57
456.609	7.56
457.047	7.56
457.485	7.56
457.923	7.57
458.361	7.57
458.798	7.58
459.236	7.59
459.674	7.6
460.111	7.62
460.549	7.64
460.987	7.66
461.424	7.67
461.862	7.68
462.299	7.69
462.736	7.69
463.173	7.7
463.611	7.71
464.048	7.71
464.485	7.72
464.922	7.71
465.359	7.72
465.796	7.71
466.233	7.7
466.67	7.7
467.106	7.7
467.543	7.69
467.98	7.68
468.416	7.68
468.853	7.67
469.29	7.66
469.726	7.65
470.162	7.65
470.599	7.65
471.035	7.63
471.471	7.63
471.907	7.61
472.344	7.62
472.78	7.62
473.216	7.61
473.652	7.6
474.088	7.6
474.523	7.61
474.959	7.61
475.395	7.6
475.831	7.6
476.266	7.61
476.702	7.61
477.138	7.61
477.573	7.61
478.008	7.62
478.444	7.61
478.879	7.61
479.314	7.6
479.75	7.6
480.185	7.6
480.62	7.6
481.055	7.6
481.49	7.6
481.925	7.6
482.36	7.6
482.795	7.61
483.229	7.63
483.664	7.64
484.099	7.66
484.534	7.68
484.968	7.72
485.403	7.74
485.837	7.77
486.271	7.81
486.706	7.84
487.14	7.88
487.574	7.92
488.009	7.97
488.443	8.01
488.877	8.05
489.311	8.11
489.745	8.14
490.179	8.21
490.613	8.27
491.046	8.33
491.48	8.4
491.914	8.47
492.348	8.54
492.781	8.61
493.215	8.69
493.648	8.78
494.082	8.86
494.515	8.95
494.948	9.05
495.382	9.14
495.815	9.24
496.248	9.34
496.681	9.45
497.114	9.57
497.547	9.69
497.98	9.81
498.413	9.94
498.846	10.07
499.279	10.2
499.711	10.33
500.144	10.48
500.577	10.64
501.009	10.79
501.442	10.95
501.874	11.12
502.306	11.28
502.739	11.46
503.171	11.64
503.603	11.82
504.036	12.02
504.468	12.21
504.9	12.39
505.332	12.58
505.764	12.78
506.196	12.98
506.627	13.18
507.059	13.39
507.491	13.6
507.923	13.81
508.354	14.05
508.786	14.28
509.217	14.5
509.649	14.74
510.08	14.97
510.512	15.2
510.943	15.45
511.374	15.7
511.805	15.94
512.237	16.18
512.668	16.42
513.099	16.66
513.53	16.91
513.961	17.16
514.391	17.43
514.822	17.69
515.253	17.94
515.684	18.17
516.114	18.42
516.545	18.67
516.975	18.91
517.406	19.16
517.836	19.41
518.267	19.65
518.697	19.89
519.127	20.11
519.558	20.34
519.988	20.58
520.418	20.83
520.848	21.05
521.278	21.27
521.708	21.64
522.138	21.85
522.567	22.05
522.997	22.24
523.427	22.43
523.857	22.62
524.286	22.8
524.716	22.97
525.145	23.12
525.575	23.3
526.004	23.46
526.433	23.44
526.863	23.58
527.292	23.74
527.721	23.87
528.15	23.99
528.579	24.09
529.008	24.21
529.437	24.32
529.866	24.43
530.295	24.52
530.724	24.62
531.152	24.72
531.581	24.81
532.01	24.88
532.438	24.96
532.867	25.03
533.295	25.11
533.723	25.16
534.152	25.22
534.58	25.29
535.008	25.34
535.436	25.4
535.865	25.45
536.293	25.5
536.721	25.55
537.149	25.61
537.576	25.64
538.004	25.7
538.432	25.75
538.86	25.78
539.287	25.81
539.715	25.87
540.143	25.9
540.57	25.95
540.998	25.96
541.425	26
541.852	26.03
542.28	26.06
542.707	26.1
543.134	26.12
543.561	26.15
543.988	26.18
544.415	26.19
544.842	26.19
545.269	26.19
545.696	26.22
546.123	26.23
546.549	26.24
546.976	26.24
547.403	26.25
547.829	26.27
548.256	26.28
548.682	26.28
549.108	26.3
549.535	26.31
549.961	26.32
550.387	26.33
550.813	26.35
551.24	26.34
551.666	26.34
552.092	26.33
552.518	26.32
552.943	26.31
553.369	26.3
553.795	26.28
554.221	26.27
554.646	26.23
555.072	26.2
555.498	26.16
555.923	26.14
556.349	26.1
556.774	26.06
557.199	26.01
557.625	25.94
558.05	25.89
558.475	25.82
558.9	25.77
559.325	25.72
559.75	25.66
560.175	25.6
560.6	25.52
561.025	25.45
561.449	25.37
561.874	25.29
562.299	25.22
562.723	25.14
563.148	25.05
563.572	24.94
563.997	24.85
564.421	24.73
564.846	24.63
565.27	24.52
565.694	24.43
566.118	24.32
566.542	24.22
566.966	24.11
567.39	24.01
567.814	23.91
568.238	23.8
568.662	23.69
569.086	23.6
569.509	23.5
569.933	23.41
570.357	23.31
570.78	23.21
571.204	23.11
571.627	23.02
572.05	22.91
572.474	22.83
572.897	22.75
573.32	22.65
573.743	22.55
574.166	22.46
574.589	22.36
575.012	22.26
575.435	22.18
575.858	22.1
576.281	22
576.704	21.92
577.126	21.83
577.549	21.75
577.972	21.68
578.394	21.6
578.817	21.52
579.239	21.46
579.661	21.38
580.084	21.3
580.506	21.23
580.928	21.16
581.35	21.1
581.772	21.03
582.194	20.96
582.616	20.89
583.038	20.83
583.46	20.76
583.882	20.7
584.303	20.65
584.725	20.6
585.147	20.55
585.568	20.49
585.99	20.44
586.411	20.37
586.833	20.33
587.254	20.27
587.675	20.22
588.096	20.17
588.518	20.11
588.939	20.08
589.36	20.03
589.781	19.98
590.202	19.94
590.623	19.89
591.043	19.85
591.464	19.8
591.885	19.76
592.305	19.74
592.726	19.71
593.147	19.66
593.567	19.6
593.987	19.56
594.408	19.52
594.828	19.49
595.248	19.46
595.669	19.44
596.089	19.4
596.509	19.38
596.929	19.34
597.349	19.3
597.769	19.27
598.189	19.23
598.608	19.2
599.028	19.17
599.448	19.13
599.867	19.09
600.287	19.06
600.706	19.03
601.126	19
601.545	18.95
601.965	18.93
602.384	18.89
602.803	18.86
603.222	18.81
603.641	18.76
604.061	18.7
604.48	18.64
604.898	18.59
605.317	18.54
605.736	18.48
606.155	18.43
606.574	18.36
606.992	18.32
607.411	18.25
607.829	18.18
608.248	18.13
608.666	18.07
609.085	18.01
609.503	17.95
609.921	17.88
610.339	17.82
610.758	17.75
611.176	17.68
611.594	17.61
612.012	17.55
612.43	17.5
612.847	17.45
613.265	17.39
613.683	17.34
614.101	17.27
614.518	17.21
614.936	17.14
615.353	17.09
615.771	17.05
616.188	16.99
616.606	16.93
617.023	16.89
617.44	16.85
617.857	16.79
618.274	16.74
618.691	16.69
619.108	16.66
619.525	16.62
619.942	16.58
620.359	16.55
620.776	16.51
621.192	16.5
621.609	16.46
622.026	16.42
622.442	16.41
622.859	16.4
623.275	16.38
623.691	16.37
624.108	16.35
624.524	16.34
624.94	16.33
625.356	16.32
625.772	16.32
626.188	16.31
626.604	16.31
627.02	16.3
627.436	16.29
627.852	16.29
628.268	16.27
628.683	16.27
629.099	16.27
629.514	16.27
629.93	16.25
630.345	16.22
630.761	16.19
631.176	16.17
631.591	16.14
632.007	16.08
632.422	16.03
632.837	15.98
633.252	15.91
633.667	15.83
634.082	15.74
634.497	15.67
634.911	15.58
635.326	15.48
635.741	15.38
636.155	15.27
636.57	15.16
636.984	15.05
637.399	14.91
637.813	14.78
638.228	14.65
638.642	14.49
639.056	14.33
639.47	14.18
639.884	14.02
640.298	13.86
640.712	13.72
641.126	13.57
641.54	13.4
641.954	13.25
642.368	13.09
642.781	12.94
643.195	12.8
643.609	12.66
644.022	12.54
644.436	12.4
644.849	12.26
645.262	12.12
645.676	12.01
646.089	11.89
646.502	11.79
646.915	11.71
647.328	11.61
647.741	11.54
648.154	11.47
648.567	11.38
648.98	11.33
649.393	11.28
649.805	11.23
650.218	11.18
650.631	11.14
651.043	11.1
651.456	11.05
651.868	11.02
652.28	10.97
652.693	10.94
653.105	10.91
653.517	10.87
653.929	10.82
654.341	10.78
654.753	10.73
655.165	10.68
655.577	10.63
655.989	10.56
656.401	10.5
656.813	10.44
657.224	10.35
657.636	10.26
658.047	10.18
658.459	10.1
658.87	10
659.282	9.9
659.693	9.81
660.104	9.71
660.515	9.61
660.926	9.52
661.338	9.41
661.749	9.32
662.159	9.23
662.57	9.13
662.981	9.05
663.392	8.96
663.803	8.89
664.213	8.8
664.624	8.72
665.035	8.65
665.445	8.59
665.855	8.53
666.266	8.48
666.676	8.44
667.086	8.37
667.497	8.32
667.907	8.29
668.317	8.25
668.727	8.21
669.137	8.19
669.547	8.17
669.956	8.15
670.366	8.14
670.776	8.12
671.186	8.1
671.595	8.1
672.005	8.1
672.414	8.11
672.824	8.12
673.233	8.14
673.642	8.14
674.052	8.15
674.461	8.16
674.87	8.18
675.279	8.21
675.688	8.27
676.097	8.31
676.506	8.36
676.915	8.39
677.323	8.45
677.732	8.51
678.141	8.6
678.549	8.68
678.958	8.77
679.366	8.88
679.775	8.99
680.183	9.1
680.592	9.22
681	9.36
681.408	9.53
681.816	9.69
682.224	9.88
682.632	10.08
683.04	10.3
683.448	10.53
683.856	10.76
684.264	11.02
684.671	11.31
685.079	11.62
685.487	11.94
685.894	12.3
686.302	12.67
686.709	13.06
687.116	13.46
687.524	13.89
687.931	14.33
688.338	14.8
688.745	15.28
689.152	15.76
689.559	16.27
689.966	16.79
690.373	17.31
690.78	17.83
691.187	18.35
691.593	18.86
692	19.39
692.407	19.9
692.813	20.4
693.22	20.91
693.626	21.41
694.032	21.91
694.439	22.39
694.845	22.87
695.251	23.34
695.657	23.79
696.063	24.26
696.469	24.71
696.875	25.16
697.281	25.62
697.687	26.04
698.093	26.44
698.498	26.84
698.904	27.23
699.31	27.61
699.715	27.97
700.12	28.35
700.526	28.7
700.931	29.04
701.337	29.37
701.742	29.67
702.147	29.98
702.552	30.3
702.957	30.59
703.362	30.86
703.767	31.11
704.172	31.39
704.577	31.64
704.981	31.89
705.386	32.12
705.791	32.35
706.195	32.56
706.6	32.8
707.004	33.02
707.408	33.23
707.813	33.47
708.217	33.71
708.621	33.92
709.025	34.12
709.43	34.31
709.834	34.51
710.237	34.69
710.641	34.88
711.045	35.02
711.449	35.19
711.853	35.37
712.256	35.52
712.66	35.66
713.064	35.8
713.467	35.95
713.87	36.09
714.274	36.23
714.677	36.38
715.08	36.52
715.484	36.67
715.887	36.81
716.29	36.91
716.693	37.04
717.096	37.18
717.499	37.31
717.901	37.42
718.304	37.54
718.707	37.64
719.109	37.76
719.512	37.84
719.915	37.95
720.317	38.02
720.719	38.11
721.122	38.21
721.524	38.28
721.926	38.35
722.328	38.43
722.731	38.49
723.133	38.59
723.535	38.66
723.937	38.78
724.338	38.85
724.74	38.95
725.142	39.07
725.544	39.12
725.945	39.19
726.347	39.26
726.748	39.33
727.15	39.38
727.551	39.44
727.952	39.47
728.354	39.5
728.755	39.52
729.156	39.56
729.557	39.56
729.958	39.61
730.359	39.64
730.76	39.67
731.161	39.71
731.562	39.78
731.962	39.8
732.363	39.84
732.763	39.86
733.164	39.91
733.564	39.93
733.965	39.96
734.365	40
734.766	40.04
735.166	40.06
735.566	40.09
735.966	40.11
736.366	40.11
736.766	40.13
737.166	40.17
737.566	40.2
737.966	40.23
738.365	40.24
738.765	40.27
739.165	40.27
739.564	40.3
739.964	40.32
740.363	40.32
740.763	40.35
741.162	40.37
741.561	40.39
741.96	40.37
742.36	40.37
742.759	40.4
743.158	40.38
743.557	40.37
743.955	40.38
744.354	40.36
744.753	40.41
745.152	40.42
745.55	40.42
745.949	40.43
746.348	40.46
746.746	40.47
747.144	40.47
747.543	40.46
747.941	40.47
748.339	40.46
748.737	40.46
749.136	40.42
749.534	40.39
749.932	40.39
750.33	40.35
750.727	40.34
751.125	40.34
751.523	40.33
751.921	40.34
752.318	40.36
752.716	40.37
753.113	40.41
753.511	40.44
753.908	40.45
754.305	40.45
754.703	40.48
755.1	40.49
755.497	40.49
755.894	40.51
756.291	40.51
756.688	40.48
757.085	40.47
757.482	40.44
757.878	40.43
758.275	40.44
758.672	40.44
759.068	40.43
759.465	40.42
759.861	40.43
760.258	40.42
760.654	40.43
761.05	40.46
761.447	40.46
761.843	40.49
762.239	40.48
762.635	40.47
763.031	40.45
763.427	40.47
763.822	40.47
764.218	40.47
764.614	40.45
765.01	40.43
765.405	40.43
765.801	40.4
766.196	40.41
766.592	40.39
766.987	40.38
767.382	40.4
767.778	40.37
768.173	40.37
768.568	40.37
768.963	40.37
769.358	40.37
769.753	40.37
770.148	40.39
770.542	40.38
770.937	40.39
771.332	40.38
771.726	40.37
772.121	40.37
772.515	40.36
772.91	40.35
773.304	40.36
773.699	40.37
774.093	40.36
774.487	40.37
774.881	40.37
775.275	40.35
775.669	40.36
776.063	40.35
776.457	40.37
776.851	40.37
777.245	40.37
777.638	40.36
778.032	40.37
778.425	40.4
778.819	40.41
779.212	40.41
779.606	40.45
779.999	40.45
780.392	40.46
780.786	40.44
781.179	40.45
781.572	40.47
781.965	40.49
782.358	40.48
782.751	40.46
783.143	40.44
783.536	40.45
783.929	40.42
784.322	40.44
784.714	40.46
785.107	40.49
785.499	40.49
785.891	40.49
786.284	40.49
786.676	40.49
787.068	40.48
787.46	40.49
787.852	40.48
788.245	40.48
788.636	40.46
789.028	40.46
789.42	40.43
789.812	40.42
790.204	40.41
790.595	40.39
790.987	40.39
791.378	40.42
791.77	40.43
792.161	40.41
792.553	40.44
792.944	40.43
793.335	40.43
793.726	40.46
794.117	40.47
794.508	40.44
794.899	40.44
795.29	40.43
795.681	40.4
796.072	40.38
796.463	40.41
796.853	40.4
797.244	40.39
797.634	40.38
798.025	40.4
798.415	40.38
798.806	40.38
799.196	40.4
799.586	40.4
799.976	40.42
800.366	40.44
800.756	40.42
801.146	40.42
801.536	40.42
801.926	40.42
802.316	40.39
802.706	40.43
803.095	40.45
803.485	40.44
803.874	40.44
804.264	40.42
804.653	40.41
805.043	40.43
805.432	40.41
805.821	40.43
806.21	40.42
806.599	40.43
806.988	40.41
807.377	40.39
807.766	40.39
808.155	40.39
808.544	40.39
808.933	40.36
809.321	40.34
809.71	40.38
810.098	40.37
810.487	40.36
810.875	40.37
811.264	40.39
811.652	40.4
812.04	40.4
812.428	40.44
812.816	40.42
813.204	40.44
813.592	40.42
813.98	40.42
814.368	40.42
814.756	40.43
815.144	40.4
815.531	40.38
815.919	40.38
816.306	40.36
816.694	40.32
817.081	40.36
817.469	40.37
817.856	40.38
818.243	40.33
818.63	40.33
819.017	40.31
819.404	40.33
819.791	40.34
820.178	40.33
820.565	40.32
820.952	40.33
821.339	40.31
821.725	40.3
822.112	40.33
822.498	40.36
822.885	40.37
823.271	40.37
823.657	40.35
824.044	40.35
824.43	40.36
824.816	40.37
825.202	40.37
825.588	40.37
825.974	40.37
826.36	40.35
826.746	40.34
827.132	40.33
827.517	40.35
827.903	40.4
828.289	40.39
828.674	40.38
829.06	40.41
829.445	40.4
829.83	40.41
830.216	40.41
830.601	40.42
830.986	40.41
831.371	40.44
831.756	40.43
832.141	40.39
832.526	40.4
832.911	40.41
833.295	40.4
833.68	40.42
834.065	40.43
834.449	40.43
834.834	40.43
835.218	40.45
835.603	40.44
835.987	40.41
836.371	40.44
836.755	40.45
837.139	40.43
837.524	40.43
837.908	40.45
838.291	40.45
838.675	40.44
839.059	40.46
839.443	40.45
839.827	40.44
840.21	40.45
840.594	40.46
840.977	40.44
841.361	40.45
841.744	40.42
842.127	40.39
842.511	40.4
842.894	40.41
843.277	40.4
843.66	40.4
844.043	40.43
844.426	40.44
844.809	40.43
845.191	40.46
845.574	40.46
845.957	40.5
846.339	40.51
846.722	40.51
847.104	40.5
847.487	40.52
847.869	40.52
848.252	40.51
848.634	40.51
849.016	40.51
849.398	40.51
849.78	40.51
850.162	40.5
850.544	40.51
850.926	40.51
851.307	40.54
851.689	40.54
852.071	40.54
852.452	40.54
852.834	40.54
853.215	40.55
853.597	40.55
853.978	40.54
854.359	40.54
854.741	40.52
855.122	40.51
855.503	40.49
855.884	40.46
856.265	40.48
856.646	40.47
857.026	40.48
857.407	40.49
857.788	40.47
858.169	40.5
858.549	40.51
858.93	40.53
859.31	40.55
859.69	40.56
860.071	40.6
860.451	40.6
860.831	40.61
861.211	40.58
861.591	40.57
861.971	40.57
862.351	40.57
862.731	40.57
863.111	40.54
863.491	40.54
863.87	40.52
864.25	40.49
864.629	40.48
865.009	40.49
865.388	40.48
865.768	40.48
866.147	40.49
866.526	40.5
866.905	40.51
867.284	40.54
867.663	40.55
868.042	40.55
868.421	40.58
868.8	40.59
869.179	40.57
869.558	40.6
869.936	40.59
870.315	40.6
870.693	40.59
871.072	40.61
871.45	40.63
871.828	40.63
872.207	40.65
872.585	40.64
872.963	40.64
873.341	40.65
873.719	40.67
874.097	40.67
874.475	40.67
874.853	40.66
875.23	40.69
875.608	40.68
875.986	40.69
876.363	40.69
876.741	40.7
877.118	40.72
877.495	40.74
877.873	40.73
878.25	40.75
878.627	40.77
879.004	40.77
879.381	40.76
879.758	40.75
880.135	40.77
880.512	40.75
880.889	40.75
881.265	40.73
881.642	40.73
882.019	40.73
882.395	40.72
882.772	40.7
883.148	40.7
883.524	40.7
883.901	40.69
884.277	40.65
884.653	40.65
885.029	40.63
885.405	40.63
885.781	40.63
886.157	40.63
886.532	40.62
886.908	40.61
887.284	40.61
887.659	40.6
888.035	40.6
888.411	40.61
888.786	40.62
889.161	40.65
889.537	40.65
889.912	40.65
890.287	40.66
890.662	40.68
891.037	40.7
891.412	40.71
891.787	40.7
892.162	40.7
892.536	40.72
892.911	40.72
893.286	40.72
893.66	40.73
894.035	40.73
894.409	40.73
894.784	40.74
895.158	40.74
895.532	40.76
895.906	40.77
896.281	40.77
896.655	40.76
897.029	40.75
897.402	40.75
897.776	40.77
898.15	40.78
898.524	40.79
898.898	40.75
899.271	40.75
899.645	40.73
900.018	40.73
900.392	40.74
900.765	40.76
901.138	40.75
901.511	40.73
901.884	40.72
902.258	40.69
902.631	40.69
903.003	40.73
903.376	40.73
903.749	40.72
904.122	40.72
904.495	40.73
904.867	40.73
905.24	40.74
905.612	40.75
905.985	40.76
906.357	40.75
906.729	40.75
907.102	40.72
907.474	40.71
907.846	40.72
908.218	40.71
908.59	40.72
908.962	40.72
909.334	40.71
909.705	40.7
910.077	40.7
910.449	40.73
910.82	40.73
911.192	40.74
911.563	40.74
911.935	40.73
912.306	40.75
912.677	40.73
913.048	40.72
913.419	40.7
913.79	40.72
914.161	40.72
914.532	40.7
914.903	40.71
915.274	40.69
915.645	40.71
916.015	40.71
916.386	40.69
916.756	40.68
917.127	40.69
917.497	40.69
917.868	40.68
918.238	40.66
918.608	40.66
918.978	40.65
919.348	40.66
919.718	40.63
920.088	40.64
920.458	40.66
920.828	40.65
921.198	40.63
921.567	40.67
921.937	40.66
922.306	40.66
922.676	40.66
923.045	40.68
923.415	40.64
923.784	40.62
924.153	40.62
924.522	40.62
924.891	40.59
925.26	40.61
925.629	40.59
925.998	40.58
926.367	40.58
926.736	40.56
927.104	40.56
927.473	40.55
927.842	40.55
928.21	40.53
928.578	40.5
928.947	40.54
929.315	40.55
929.683	40.57
930.051	40.58
930.42	40.57
930.788	40.58
931.156	40.55
931.523	40.57
931.891	40.61
932.259	40.63
932.627	40.64
932.994	40.64
933.362	40.58
933.729	40.56
934.097	40.53
934.464	40.56
934.831	40.52
935.199	40.51
935.566	40.51
935.933	40.46
936.3	40.41
936.667	40.4
937.034	40.37
937.401	40.43
937.767	40.48
938.134	40.51
938.501	40.5
938.867	40.53
939.234	40.54
939.6	40.57
939.967	40.58
940.333	40.62
940.699	40.63
941.065	40.61
941.431	40.6
941.798	40.51
942.163	40.48
942.529	40.46
942.895	40.41
943.261	40.46
943.627	40.45
943.992	40.49
944.358	40.49
944.723	40.5
945.089	40.46
945.454	40.45
945.82	40.47
946.185	40.46
946.55	40.42
946.915	40.45
947.28	40.44
947.645	40.38
948.01	40.4
948.375	40.39
948.74	40.36
949.104	40.41
949.469	40.37
949.834	40.31
950.198	40.33
950.562	40.3
950.927	40.3
951.291	40.2
951.655	40.19
952.02	40.15
952.384	40.09
952.748	40.03
953.112	40
953.476	39.97
953.839	39.98
954.203	39.95
954.567	39.99
954.931	39.97
955.294	39.96
955.658	40.01
956.021	40.01
956.385	39.99
956.748	40.03
957.111	40.05
957.474	40.07
957.837	40.05
958.2	40.03
958.563	39.98
958.926	39.98
959.289	39.99
959.652	39.91
960.015	39.87
960.377	39.87
960.74	39.86
961.102	39.79
961.465	39.82
961.827	39.83
962.189	39.83
962.552	39.82
962.914	39.82
963.276	39.86
963.638	39.89
964	39.9
964.362	39.89
964.724	39.91
965.085	39.89
965.447	39.88
965.809	39.87
966.17	39.85
966.532	39.88
966.893	39.85
967.255	39.79
967.616	39.75
967.977	39.76
968.338	39.75
968.699	39.71
969.061	39.78
969.421	39.77
969.782	39.81
970.143	39.8
970.504	39.8
970.865	39.81
971.225	39.8
971.586	39.81
971.946	39.77
972.307	39.8
972.667	39.81
973.027	39.8
973.388	39.79
973.748	39.77
974.108	39.83
974.468	39.79
974.828	39.85
975.188	39.92
975.548	39.94
975.907	39.94
976.267	39.92
976.627	39.91
976.986	39.88
977.346	39.85
977.705	39.83
978.064	39.81
978.424	39.88
978.783	39.81
979.142	39.73
979.501	39.71
979.86	39.78
980.219	39.77
980.578	39.8
980.937	39.76
981.296	39.75
981.654	39.71
982.013	39.73
982.371	39.67
982.73	39.66
983.088	39.66
983.447	39.65
983.805	39.63
984.163	39.57
984.521	39.52
984.879	39.47
985.237	39.49
985.595	39.55
985.953	39.5
986.311	39.54
986.669	39.53
987.026	39.58
987.384	39.61
987.741	39.55
988.099	39.59
988.456	39.63
988.814	39.72
989.171	39.67
989.528	39.61
989.885	39.63
990.242	39.63
990.599	39.72
990.956	39.78
991.313	39.79
991.67	39.82
992.027	39.95
992.383	39.94
992.74	39.97
993.096	40.02
993.453	40.08
993.809	40.11
994.165	40.13
994.522	40.04
994.878	40.01
995.234	39.93
995.59	39.91
995.946	39.84
996.302	39.89
996.658	39.95
997.013	39.97
997.369	40
997.725	39.96
998.08	39.92
998.436	39.93
998.791	39.87
999.147	39.98
999.502	40.03
999.857	40.03
1000.212	39.92
1000.567	39.86
1000.922	39.88
1001.277	39.83
1001.632	39.8
1001.987	39.81
1002.342	39.84
1002.696	39.96
1003.051	40.02
1003.406	40.09
1003.76	40.11
1004.114	40.18
1004.469	40.13
1004.823	40.29
1005.177	40.26
1005.531	40.29
1005.885	40.27
1006.239	40.35
1006.593	40.32
1006.947	40.2
1007.301	40.07
1007.655	40.06
1008.008	40.06
1008.362	40.18
1008.715	40.05
1009.069	40.24
1009.422	40.22
1009.776	40.2
1010.129	40.2
1010.482	40.15
1010.835	40.08
1011.188	40.08
1011.541	40.05
1011.894	40.02
1012.247	40.05
1012.6	40.01
1012.952	39.86
1013.305	40
1013.657	40.18
1014.01	40.06
1014.362	40.03
1014.715	40.35
1015.067	40.47
1015.419	40.63
1015.771	40.75
1016.123	40.81
1016.475	40.81
1016.827	40.79
1017.179	40.83
1017.531	40.74
1017.883	40.87
1018.234	40.87
1018.586	40.68
1018.938	40.74
1019.289	40.67
1019.64	40.73
1019.992	40.58
1020.343	40.66
1020.694	40.76
1021.045	40.73
1021.396	40.7
1021.747	40.92
1022.098	41.16
1022.449	41.28
1022.8	41.42
1023.151	41.31
1023.501	41.26
1023.852	41.26
1024.202	41.28
1024.553	41.13
1024.903	41.08
1025.253	41.24
1025.604	41.08
1025.954	40.79
1026.304	40.75
1026.654	40.61
1027.004	40.79
1027.354	40.81
1027.703	40.78
1028.053	40.61
1028.403	40.83
1028.753	40.78
1029.102	40.8
1029.452	40.81
1029.801	41.08
1030.15	41
1030.499	40.93
897.758	412.43
901.051	414.63
904.343	411.38
907.636	420.23
910.928	409.33
914.22	411.06
917.511	407.61
920.803	390.3
924.094	386.3
927.384	378.61
930.675	362.54
933.965	361.95
937.255	343.51
940.544	332.95
943.834	316.83
947.123	314.31
950.411	297.4
953.7	290.99
956.988	278.56
960.276	268.1
963.563	262.36
966.851	257.19
970.138	254.06
973.424	246.79
976.711	249.49
979.997	237.45
983.283	237.53
986.568	233.03
989.853	227.17
993.138	221.93
996.423	215.11
999.708	211.44
1002.992	207.37
1006.275	199.15
1009.559	196.9
1012.842	188.53
1016.125	186.04
1019.408	182.04
1022.69	180.96
1025.972	176.19
1029.254	174.09
1032.536	171.84
1035.817	169.27
1039.098	167.37
1042.379	164.66
1045.659	163.27
1048.939	161.4
1052.219	157.45
1055.498	154.45
1058.778	149.9
1062.057	148.94
1065.335	146.38
1068.614	145.07
1071.892	142.52
1075.17	140.49
1078.447	138.33
1081.724	137.13
1085.001	135.45
1088.278	134.19
1091.554	132.28
1094.83	132.88
1098.106	130.68
1101.382	130.79
1104.657	129.53
1107.932	128.06
1111.206	127.38
1114.481	124.92
1117.755	124.15
1121.029	123.27
1124.302	122.29
1127.575	121.28
1130.848	120.12
1134.121	119.24
1137.393	117.72
1140.665	116.28
1143.937	115.86
1147.208	115.7
1150.48	115.37
1153.75	114.3
1157.021	113.61
1160.291	113.31
1163.561	111.86
1166.831	111.79
1170.101	111.57
1173.37	112.19
1176.639	112.56
1179.907	111.05
1183.176	110.03
1186.444	110.57
1189.711	110.01
1192.979	109.33
1196.246	109.37
1199.513	110.45
1202.78	109.44
1206.046	109.44
1209.312	107.53
1212.578	107.01
1215.843	108.28
1219.108	107.82
1222.373	108.66
1225.638	110
1228.902	110.5
1232.166	111.36
1235.43	111.16
1238.693	112.67
1241.956	113.16
1245.219	114.66
1248.482	115.51
1251.744	114.92
1255.006	115.75
1258.268	114.18
1261.529	113.09
1264.79	112.43
1268.051	111.36
1271.312	110.47
1274.572	108.9
1277.832	108.16
1281.092	106.97
1284.351	106.12
1287.61	106.92
1290.869	104.94
1294.128	104.5
1297.386	103.57
1300.644	103.38
1303.902	103.07
1307.159	102.48
1310.416	102.41
1313.673	101.76
1316.93	102.59
1320.186	102.06
1323.442	102.13
1326.697	103.28
1329.953	103.44
1333.208	104.2
1336.463	104.93
1339.717	105.17
1342.972	106.02
1346.226	106.43
1349.479	106.94
1352.733	107.63
1355.986	108.66
1359.238	108.22
1362.491	108.02
1365.743	107.3
1368.995	108.15
1372.247	107.51
1375.498	107.12
1378.749	107.73
1382	107.42
1385.251	106.72
1388.501	104.81
1391.751	103.96
1395	103.4
1398.25	102.37
1401.499	101.76
1404.748	100.2
1407.996	99.28
1411.244	98.8
1414.492	97.65
1417.74	95.24
1420.987	94.51
1424.234	94.08
1427.481	92.77
1430.728	92.23
1433.974	91.9
1437.22	91.39
1440.465	91.37
1443.711	89.67
1446.956	88.44
1450.201	87.8
1453.445	87.89
1456.689	87.28
1459.933	85.88
1463.177	85.73
1466.42	84.56
1469.663	83.52
1472.906	82.81
1476.148	81.49
1479.391	80.85
1482.633	81
1485.874	79.77
1489.115	79.34
1492.356	79.01
1495.597	78.95
1498.838	77.98
1502.078	77.77
1505.318	77.88
1508.557	78.01
1511.797	77.37
1515.036	77.38
1518.274	77.1
1521.513	77.11
1524.751	76.65
1527.989	77.03
1531.227	77.4
1534.464	77.54
1537.701	76.82
1540.938	76.7
1544.174	76.48
1547.41	76.43
1550.646	76.42
1553.882	76.9
1557.117	76.87
1560.352	76.59
1563.587	76.19
1566.821	75.76
1570.055	75.5
1573.289	75.72
1576.523	75.69
1579.756	75.1
1582.989	75.73
1586.222	75.43
1589.454	74.35
1592.686	74.94
1595.918	74.71
1599.15	74.43
1602.381	74.34
1605.612	74.37
1608.843	74.58
1612.073	74.17
1615.303	74.64
1618.533	74.37
1621.762	75.07
1624.992	76.01
1628.221	75.39
1631.449	75.54
1634.678	75.52
1637.906	75.75
1641.134	75.82
1644.361	75.77
1647.588	76.19
1650.815	76.2
1654.042	75.85
1657.269	75.53
1660.495	75.47
1663.72	75.44
1666.946	75.9
1670.171	76.07
1673.396	76.19
1676.621	76.24
1679.845	76.29
1683.069	76.46
1686.293	76.37
1689.517	76.85
1692.74	77.1
1695.963	77.06
1699.185	77.23
1702.408	77.56
1705.63	77.44
1708.852	77.9
1712.073	77.63
1715.294	77.81
1718.515	78.55
1721.736	78.71
1724.956	78.49
1728.176	78.29
1731.396	78.37
1734.616	78.82
1737.835	78.82
1741.054	77.9
1744.272	78.4
1747.491	78.85
1750.709	79.01
1753.927	78.11
1757.144	78.22
1760.361	78.57
1763.578	78.47
1766.795	78.35
1770.011	78.42
1773.227	77.98
1776.443	79.31
1779.658	78.59
1782.874	78.68
1786.089	78.09
1789.303	78.72
1792.518	79.05
1795.732	78.99
1798.945	79.78
1802.159	80.08
1805.372	79.89
1808.585	81.23
1811.797	81.37
1815.01	81.47
1818.222	82.14
1821.434	83.14
1824.645	82.5
1827.856	83.92
1831.067	84.11
1834.278	85.11
1837.488	85.39
1840.698	85.52
1843.908	85.13
1847.117	85.04
1850.326	85.61
1853.535	85.12
1856.744	85.52
1859.952	85.51
1863.16	83.98
1866.368	83.28
1869.575	81.9
1872.782	81.34
1875.989	80.13
1879.196	79.06
1882.402	77.78
1885.608	77.36
1888.814	76.72
1892.019	74.87
1895.224	74.47
1898.429	73.94
1901.634	73.65
1904.838	73.94
1908.042	73.21
1911.246	73.21
1914.449	73.55
1917.652	74.01
1920.855	73.43
1924.058	73.02
1927.26	73.74
1930.462	73.2
1933.664	74.33
1936.865	74.11
1940.066	72.88
1943.267	72.72
1946.467	72.72
1949.668	73.22
1952.868	74.04
1956.067	74.54
1959.267	74.73
1962.466	75.19
1965.665	75.37
1968.863	75.89
1972.061	75.73
1975.259	76.52
1978.457	77.27
1981.654	78.38
1984.852	78.24
1988.048	78.26
1991.245	79.02
1994.441	80.19
1997.637	80.76
2000.833	82.42
2004.028	82.74
2007.223	84.89
2010.418	86
2013.613	87.7
2016.807	89.24
2020.001	89.79
2023.194	91.26
2026.388	93.45
2029.581	94.81
2032.774	96.1
2035.966	98.21
2039.158	98.8
2042.35	100.36
2045.542	100.33
2048.733	101.99
2051.924	102.39
2055.115	104.69
2058.306	105.11
2061.496	105.75
2064.686	106.3
2067.875	107.57
2071.065	107.36
2074.254	106.48
2077.442	108.39
2080.631	109.22
2083.819	109.86
2087.007	110.68
2090.195	112.01
2093.382	112.47
2096.569	112.49
2099.756	114.52
2102.942	114.87
2106.128	116.22
2109.314	120.01
2112.5	119.16
2115.685	122.48
2118.87	122.78
2122.055	125.56
2125.239	126.36
2128.424	128.13
2131.608	128.16
2134.791	129.46
2137.974	130.59
2141.157	130.88
2144.34	130.55
2147.523	130.92
2150.705	130.37
2153.887	132.43
2157.068	132.53
2160.25	130.83
2163.431	132.11
2166.611	133.26
2169.792	135.54
2172.972	136.15
2176.152	137.49
2179.331	139.34
2182.511	142.8
2185.69	142.91
2188.868	144.97
2192.047	145.13
2195.225	150.28
2198.403	151.92
2201.58	154.97
2204.758	157.71
2207.935	160.28
2211.111	163.84
2214.288	165.4
2217.464	165.3
2220.64	168.67
2223.815	169.46
2226.991	175.43
2230.166	175.21
2233.34	178.6
2236.515	181.41
2239.689	182.14
2242.863	183.03
2246.036	187.39
2249.209	184.67
2252.382	188.03
2255.555	192.3
2258.727	194.42
2261.9	197.72
2265.071	199.39
2268.243	201.82
2271.414	204.14
2274.585	207.91
2277.756	210.49
2280.926	212.58
2284.096	219.77
2287.266	222.75
2290.436	224.86
2293.605	228.8
2296.774	233.82
2299.942	239.19
2303.111	241.89
2306.279	246.95
2309.447	249
2312.614	257.22
2315.781	263.06
2318.948	272.72
2322.115	270.71
2325.281	287.63
2328.447	282.27
2331.613	291.28
2334.779	290.28
2337.944	298.27
2341.109	301.24
2344.274	311.79
2347.438	318.33
2350.602	317.36
2353.766	329.93
2356.929	335.87
2360.092	331.1
2363.255	353.18
2366.418	356.23
2369.58	361.61
2372.742	385.83
2375.904	396.04
2379.066	394.01
2382.227	391.09
2385.388	419.85
2388.548	418.75
2391.709	419.96
2394.869	466.66
2398.029	450.27
2401.188	457.38
2404.347	454.91
2407.506	449.7
2410.665	458.56
2413.823	482.36
2416.981	507.77
2420.139	498.17
2423.296	492.13
2426.453	515.95
2429.61	504.42
2432.767	520.26
2435.923	517.69
2439.079	564.92
2442.235	571.05
2445.391	568.32
2448.546	564.4
2451.701	546.65
2454.855	542.85
2458.009	570.46
2461.163	593.26
2464.317	604.69
2467.471	628.88
2470.624	636.92
2473.777	615.43
2476.929	602.69
2480.082	587.28
2483.234	585.15
2486.385	614.99
2489.537	620.89
2492.688	646.49
2495.839	628.11
2498.989	616.67
2502.14	614.95
2505.29	617.55
2508.439	629.54
2511.589	630.77
2514.738	681.35
2517.887	665.32
2521.035	705.01
2524.183	705.41
2527.331	710.6
2530.479	708.86
2533.627	711.08
