Data from N_1_DEC_NC_4n_Splice17_12-17-22-887.txt Node
Date: Sat Mar 07 12:17:22 EST 2020
User: sa697716
Spectrometer: NQ5500242
Trigger mode: 0
Integration Time (sec): 1.450000E-1
Scans to average: 20
Nonlinearity correction enabled: false
Boxcar width: 5
Storing dark spectrum: false
XAxis mode: Wavelengths
Number of Pixels in Spectrum: 512
>>>>>Begin Spectral Data<<<<<
187.83	40.72
188.298	29.8
188.766	15.52
189.233	15.65
189.701	6.78
190.169	21.8
190.636	-14.43
191.104	-123.02
191.571	-242.14
192.039	-136.12
192.506	-362.56
192.974	208.87
193.441	119.34
193.908	31.31
194.375	9.15
194.842	-41.36
195.31	-5.3
195.777	-166.7
196.244	0.62
196.711	21.55
197.177	25.35
197.644	24.85
198.111	25.02
198.578	25.41
199.045	25.83
199.511	26.01
199.978	26.23
200.445	26.26
200.911	26.15
201.378	26.66
201.844	26.66
202.31	26.32
202.777	26.66
203.243	26.51
203.709	26.43
204.176	25.97
204.642	26.07
205.108	25.96
205.574	26.02
206.04	26.06
206.506	25.89
206.972	25.84
207.438	25.58
207.903	25.12
208.369	24.77
208.835	24.23
209.301	23.82
209.766	22.79
210.232	22.26
210.697	21.59
211.163	20.97
211.628	20.13
212.094	19.55
212.559	19.18
213.024	18.73
213.49	18.36
213.955	17.99
214.42	17.6
214.885	17.34
215.35	16.59
215.815	15.81
216.28	14.62
216.745	13.47
217.21	12.34
217.675	11.25
218.14	10.39
218.604	9.56
219.069	8.87
219.534	8.32
219.998	7.81
220.463	7.42
220.927	7.02
221.392	6.77
221.856	6.54
222.32	6.33
222.785	6.14
223.249	5.93
223.713	5.77
224.177	5.64
224.642	5.53
225.106	5.4
225.57	5.28
226.034	5.19
226.497	5.11
226.961	5.03
227.425	4.97
227.889	4.92
228.353	4.86
228.816	4.79
229.28	4.72
229.744	4.65
230.207	4.59
230.671	4.53
231.134	4.47
231.597	4.42
232.061	4.35
232.524	4.28
232.987	4.22
233.45	4.17
233.914	4.12
234.377	4.06
234.84	4
235.303	3.97
235.766	3.93
236.229	3.89
236.691	3.84
237.154	3.81
237.617	3.79
238.08	3.75
238.542	3.71
239.005	3.68
239.468	3.65
239.93	3.63
240.393	3.59
240.855	3.55
241.317	3.51
241.78	3.47
242.242	3.44
242.704	3.39
243.166	3.36
243.629	3.34
244.091	3.3
244.553	3.27
245.015	3.25
245.477	3.21
245.939	3.18
246.4	3.15
246.862	3.13
247.324	3.11
247.786	3.1
248.247	3.07
248.709	3.04
249.17	3.01
249.632	2.99
250.093	2.97
250.555	2.94
251.016	2.93
251.477	2.91
251.939	2.89
252.4	2.87
252.861	2.85
253.322	2.83
253.783	2.81
254.244	2.8
254.705	2.78
255.166	2.76
255.627	2.74
256.088	2.71
256.549	2.7
257.009	2.68
257.47	2.67
257.931	2.65
258.391	2.63
258.852	2.62
259.312	2.59
259.773	2.58
260.233	2.57
260.694	2.56
261.154	2.54
261.614	2.53
262.074	2.52
262.534	2.5
262.994	2.49
263.455	2.48
263.915	2.47
264.374	2.46
264.834	2.45
265.294	2.44
265.754	2.43
266.214	2.42
266.673	2.41
267.133	2.4
267.593	2.4
268.052	2.39
268.512	2.39
268.971	2.38
269.431	2.37
269.89	2.36
270.349	2.35
270.809	2.35
271.268	2.34
271.727	2.34
272.186	2.33
272.645	2.33
273.104	2.33
273.563	2.32
274.022	2.31
274.481	2.31
274.94	2.3
275.399	2.3
275.857	2.3
276.316	2.29
276.775	2.29
277.233	2.28
277.692	2.27
278.15	2.27
278.609	2.27
279.067	2.27
279.525	2.26
279.984	2.26
280.442	2.25
280.9	2.25
281.358	2.25
281.816	2.24
282.274	2.24
282.732	2.24
283.19	2.23
283.648	2.22
284.106	2.22
284.564	2.21
285.021	2.21
285.479	2.21
285.937	2.2
286.394	2.2
286.852	2.19
287.309	2.18
287.767	2.18
288.224	2.17
288.682	2.16
289.139	2.15
289.596	2.14
290.053	2.13
290.511	2.12
290.968	2.11
291.425	2.1
291.882	2.09
292.339	2.09
292.796	2.08
293.252	2.08
293.709	2.07
294.166	2.07
294.623	2.07
295.079	2.06
295.536	2.06
295.992	2.06
296.449	2.05
296.905	2.05
297.362	2.05
297.818	2.05
298.274	2.04
298.731	2.04
299.187	2.03
299.643	2.03
300.099	2.02
300.555	2.01
301.011	2.01
301.467	2.01
301.923	2
302.379	1.99
302.835	1.99
303.291	1.99
303.746	1.99
304.202	1.99
304.658	1.99
305.113	1.99
305.569	2
306.024	2
306.479	1.99
306.935	1.99
307.39	1.99
307.845	1.99
308.301	1.98
308.756	1.98
309.211	1.98
309.666	1.99
310.121	1.99
310.576	1.98
311.031	1.98
311.486	1.98
311.94	1.98
312.395	1.98
312.85	1.99
313.305	1.99
313.759	1.99
314.214	1.98
314.668	1.96
315.123	1.97
315.577	1.97
316.032	1.97
316.486	1.96
316.94	1.96
317.394	1.96
317.849	1.94
318.303	1.93
318.757	1.93
319.211	1.92
319.665	1.92
320.119	1.91
320.572	1.91
321.026	1.91
321.48	1.9
321.934	1.9
322.387	1.89
322.841	1.89
323.295	1.89
323.748	1.89
324.202	1.89
324.655	1.89
325.108	1.89
325.562	1.89
326.015	1.89
326.468	1.89
326.921	1.89
327.374	1.9
327.827	1.9
328.28	1.89
328.733	1.89
329.186	1.89
329.639	1.89
330.092	1.89
330.545	1.89
330.997	1.89
331.45	1.89
331.903	1.89
332.355	1.9
332.808	1.89
333.26	1.89
333.713	1.89
334.165	1.89
334.617	1.89
335.069	1.88
335.522	1.87
335.974	1.87
336.426	1.86
336.878	1.86
337.33	1.86
337.782	1.87
338.234	1.87
338.686	1.88
339.137	1.89
339.589	1.88
340.041	1.88
340.493	1.89
340.944	1.87
341.396	1.88
341.847	1.87
342.299	1.86
342.75	1.85
343.201	1.84
343.653	1.84
344.104	1.83
344.555	1.83
345.006	1.83
345.457	1.82
345.908	1.81
346.359	1.81
346.81	1.81
347.261	1.8
347.712	1.79
348.163	1.79
348.613	1.79
349.064	1.79
349.515	1.79
349.965	1.78
350.416	1.79
350.866	1.79
351.317	1.79
351.767	1.8
352.217	1.8
352.668	1.81
353.118	1.81
353.568	1.8
354.018	1.8
354.468	1.81
354.918	1.81
355.368	1.81
355.818	1.81
356.268	1.81
356.718	1.81
357.168	1.79
357.617	1.79
358.067	1.79
358.517	1.81
358.966	1.81
359.416	1.81
359.865	1.81
360.315	1.81
360.764	1.82
361.213	1.82
361.663	1.82
362.112	1.83
362.561	1.84
363.01	1.85
363.459	1.83
363.908	1.84
364.357	1.84
364.806	1.83
365.255	1.84
365.703	1.84
366.152	1.84
366.601	1.84
367.05	1.84
367.498	1.84
367.947	1.84
368.395	1.85
368.844	1.85
369.292	1.85
369.74	1.87
370.189	1.87
370.637	1.87
371.085	1.88
371.533	1.88
371.981	1.89
372.429	1.89
372.877	1.9
373.325	1.9
373.773	1.9
374.221	1.9
374.669	1.9
375.116	1.89
375.564	1.9
376.012	1.9
376.459	1.9
376.907	1.91
377.354	1.93
377.801	1.94
378.249	1.96
378.696	1.97
379.143	1.99
379.591	2
380.038	2.02
380.485	2.03
380.932	2.05
381.379	2.08
381.826	2.1
382.273	2.11
382.72	2.13
383.166	2.14
383.613	2.16
384.06	2.17
384.506	2.19
384.953	2.22
385.4	2.24
385.846	2.27
386.292	2.28
386.739	2.29
387.185	2.31
387.631	2.34
388.078	2.37
388.524	2.4
388.97	2.43
389.416	2.45
389.862	2.47
390.308	2.51
390.754	2.54
391.2	2.57
391.645	2.61
392.091	2.64
392.537	2.68
392.983	2.71
393.428	2.75
393.874	2.79
394.319	2.82
394.765	2.86
395.21	2.89
395.655	2.92
396.101	2.95
396.546	2.97
396.991	3.01
397.436	3.03
397.881	3.08
398.326	3.11
398.771	3.14
399.216	3.17
399.661	3.2
400.106	3.23
400.551	3.25
400.995	3.28
401.44	3.3
401.885	3.33
402.329	3.35
402.774	3.37
403.218	3.41
403.663	3.43
404.107	3.44
404.551	3.45
404.995	3.48
405.44	3.5
405.884	3.51
406.328	3.54
406.772	3.54
407.216	3.55
407.66	3.55
408.104	3.54
408.547	3.56
408.991	3.57
409.435	3.59
409.879	3.59
410.322	3.6
410.766	3.62
411.209	3.63
411.653	3.64
412.096	3.66
412.54	3.67
412.983	3.67
413.426	3.7
413.869	3.72
414.312	3.75
414.756	3.77
415.199	3.77
415.642	3.78
416.085	3.79
416.527	3.79
416.97	3.8
417.413	3.82
417.856	3.83
418.298	3.81
418.741	3.81
419.184	3.8
419.626	3.81
420.069	3.81
420.511	3.81
420.953	3.81
421.396	3.82
421.838	3.81
422.28	3.8
422.722	3.81
423.164	3.82
423.606	3.83
424.048	3.82
424.49	3.81
424.932	3.82
425.374	3.81
425.816	3.79
426.258	3.78
426.699	3.77
427.141	3.76
427.582	3.77
428.024	3.76
428.465	3.75
428.907	3.74
429.348	3.73
429.789	3.72
430.231	3.73
430.672	3.75
431.113	3.77
431.554	3.78
431.995	3.78
432.436	3.79
432.877	3.79
433.318	3.81
433.759	3.83
434.2	3.86
434.64	3.86
435.081	3.87
435.522	3.88
435.962	3.9
436.403	3.92
436.843	3.95
437.284	3.95
437.724	3.96
438.164	3.97
438.604	4
439.045	4
439.485	4.01
439.925	4.02
440.365	4.04
440.805	4.05
441.245	4.09
441.685	4.13
442.125	4.17
442.564	4.2
443.004	4.22
443.444	4.24
443.883	4.3
444.323	4.35
444.762	4.37
445.202	4.41
445.641	4.45
446.081	4.46
446.52	4.47
446.959	4.52
447.398	4.55
447.837	4.6
448.276	4.62
448.716	4.65
449.154	4.68
449.593	4.73
450.032	4.74
450.471	4.75
450.91	4.77
451.349	4.81
451.787	4.8
452.226	4.81
452.664	4.83
453.103	4.85
453.541	4.85
453.98	4.88
454.418	4.88
454.856	4.89
455.295	4.91
455.733	4.9
456.171	4.9
456.609	4.91
457.047	4.92
457.485	4.9
457.923	4.89
458.361	4.88
458.798	4.87
459.236	4.88
459.674	4.87
460.111	4.86
460.549	4.88
460.987	4.88
461.424	4.88
461.862	4.88
462.299	4.91
462.736	4.91
463.173	4.92
463.611	4.93
464.048	4.93
464.485	4.94
464.922	4.95
465.359	4.95
465.796	4.95
466.233	4.96
466.67	4.97
467.106	4.98
467.543	4.98
467.98	4.97
468.416	4.97
468.853	4.97
469.29	4.97
469.726	4.97
470.162	4.97
470.599	4.98
471.035	4.96
471.471	4.96
471.907	4.96
472.344	4.98
472.78	4.99
473.216	4.99
473.652	5.01
474.088	5.02
474.523	5.03
474.959	5.04
475.395	5.03
475.831	5.05
476.266	5.06
476.702	5.05
477.138	5.07
477.573	5.07
478.008	5.09
478.444	5.08
478.879	5.09
479.314	5.09
479.75	5.11
480.185	5.11
480.62	5.11
481.055	5.12
481.49	5.13
481.925	5.13
482.36	5.13
482.795	5.14
483.229	5.14
483.664	5.16
484.099	5.17
484.534	5.18
484.968	5.21
485.403	5.23
485.837	5.25
486.271	5.28
486.706	5.3
487.14	5.33
487.574	5.36
488.009	5.39
488.443	5.43
488.877	5.47
489.311	5.51
489.745	5.56
490.179	5.6
490.613	5.65
491.046	5.7
491.48	5.75
491.914	5.8
492.348	5.87
492.781	5.93
493.215	6
493.648	6.06
494.082	6.13
494.515	6.2
494.948	6.28
495.382	6.36
495.815	6.44
496.248	6.54
496.681	6.63
497.114	6.72
497.547	6.82
497.98	6.92
498.413	7.02
498.846	7.13
499.279	7.23
499.711	7.34
500.144	7.46
500.577	7.57
501.009	7.68
501.442	7.8
501.874	7.93
502.306	8.06
502.739	8.2
503.171	8.35
503.603	8.5
504.036	8.65
504.468	8.79
504.9	8.93
505.332	9.08
505.764	9.25
506.196	9.41
506.627	9.57
507.059	9.74
507.491	9.91
507.923	10.08
508.354	10.26
508.786	10.44
509.217	10.63
509.649	10.82
510.08	11.01
510.512	11.2
510.943	11.39
511.374	11.58
511.805	11.77
512.237	11.96
512.668	12.15
513.099	12.33
513.53	12.53
513.961	12.73
514.391	12.92
514.822	13.14
515.253	13.33
515.684	13.52
516.114	13.72
516.545	13.92
516.975	14.12
517.406	14.32
517.836	14.52
518.267	14.73
518.697	14.91
519.127	15.08
519.558	15.25
519.988	15.44
520.418	15.61
520.848	15.78
521.278	15.95
521.708	16.27
522.138	16.43
522.567	16.58
522.997	16.72
523.427	16.87
523.857	17.01
524.286	17.15
524.716	17.29
525.145	17.43
525.575	17.56
526.004	17.68
526.433	17.64
526.863	17.75
527.292	17.86
527.721	17.95
528.15	18.04
528.579	18.13
529.008	18.22
529.437	18.29
529.866	18.35
530.295	18.44
530.724	18.5
531.152	18.57
531.581	18.64
532.01	18.7
532.438	18.77
532.867	18.83
533.295	18.89
533.723	18.94
534.152	18.99
534.58	19.04
535.008	19.08
535.436	19.13
535.865	19.15
536.293	19.18
536.721	19.21
537.149	19.24
537.576	19.27
538.004	19.31
538.432	19.33
538.86	19.37
539.287	19.38
539.715	19.42
540.143	19.44
540.57	19.47
540.998	19.49
541.425	19.52
541.852	19.55
542.28	19.57
542.707	19.59
543.134	19.62
543.561	19.64
543.988	19.67
544.415	19.67
544.842	19.66
545.269	19.68
545.696	19.7
546.123	19.71
546.549	19.73
546.976	19.76
547.403	19.77
547.829	19.78
548.256	19.8
548.682	19.81
549.108	19.84
549.535	19.87
549.961	19.86
550.387	19.85
550.813	19.85
551.24	19.85
551.666	19.84
552.092	19.83
552.518	19.82
552.943	19.8
553.369	19.77
553.795	19.75
554.221	19.74
554.646	19.73
555.072	19.72
555.498	19.69
555.923	19.65
556.349	19.62
556.774	19.58
557.199	19.54
557.625	19.51
558.05	19.48
558.475	19.44
558.9	19.39
559.325	19.36
559.75	19.32
560.175	19.28
560.6	19.22
561.025	19.18
561.449	19.14
561.874	19.08
562.299	19.01
562.723	18.95
563.148	18.87
563.572	18.8
563.997	18.71
564.421	18.64
564.846	18.56
565.27	18.49
565.694	18.42
566.118	18.34
566.542	18.27
566.966	18.19
567.39	18.12
567.814	18.07
568.238	18
568.662	17.93
569.086	17.86
569.509	17.8
569.933	17.74
570.357	17.66
570.78	17.59
571.204	17.52
571.627	17.45
572.05	17.37
572.474	17.31
572.897	17.24
573.32	17.17
573.743	17.11
574.166	17.03
574.589	16.96
575.012	16.89
575.435	16.82
575.858	16.76
576.281	16.69
576.704	16.64
577.126	16.57
577.549	16.51
577.972	16.45
578.394	16.39
578.817	16.34
579.239	16.28
579.661	16.24
580.084	16.19
580.506	16.14
580.928	16.09
581.35	16.05
581.772	15.99
582.194	15.94
582.616	15.91
583.038	15.85
583.46	15.8
583.882	15.77
584.303	15.71
584.725	15.66
585.147	15.61
585.568	15.58
585.99	15.53
586.411	15.48
586.833	15.44
587.254	15.4
587.675	15.36
588.096	15.32
588.518	15.28
588.939	15.25
589.36	15.22
589.781	15.18
590.202	15.15
590.623	15.12
591.043	15.09
591.464	15.05
591.885	15
592.305	14.98
592.726	14.96
593.147	14.94
593.567	14.9
593.987	14.88
594.408	14.85
594.828	14.81
595.248	14.8
595.669	14.78
596.089	14.75
596.509	14.73
596.929	14.7
597.349	14.68
597.769	14.64
598.189	14.62
598.608	14.6
599.028	14.59
599.448	14.56
599.867	14.53
600.287	14.51
600.706	14.48
601.126	14.46
601.545	14.44
601.965	14.42
602.384	14.39
602.803	14.35
603.222	14.3
603.641	14.28
604.061	14.25
604.48	14.22
604.898	14.18
605.317	14.15
605.736	14.11
606.155	14.07
606.574	14.02
606.992	13.98
607.411	13.94
607.829	13.88
608.248	13.83
608.666	13.77
609.085	13.74
609.503	13.69
609.921	13.64
610.339	13.61
610.758	13.55
611.176	13.5
611.594	13.45
612.012	13.4
612.43	13.37
612.847	13.33
613.265	13.29
613.683	13.22
614.101	13.16
614.518	13.1
614.936	13.05
615.353	13
615.771	12.95
616.188	12.91
616.606	12.86
617.023	12.82
617.44	12.78
617.857	12.74
618.274	12.7
618.691	12.66
619.108	12.63
619.525	12.61
619.942	12.58
620.359	12.55
620.776	12.53
621.192	12.51
621.609	12.5
622.026	12.47
622.442	12.46
622.859	12.45
623.275	12.44
623.691	12.43
624.108	12.41
624.524	12.4
624.94	12.39
625.356	12.38
625.772	12.37
626.188	12.37
626.604	12.36
627.02	12.36
627.436	12.35
627.852	12.34
628.268	12.33
628.683	12.33
629.099	12.33
629.514	12.32
629.93	12.3
630.345	12.28
630.761	12.24
631.176	12.22
631.591	12.18
632.007	12.14
632.422	12.11
632.837	12.07
633.252	12.01
633.667	11.95
634.082	11.88
634.497	11.82
634.911	11.76
635.326	11.69
635.741	11.61
636.155	11.52
636.57	11.44
636.984	11.35
637.399	11.25
637.813	11.16
638.228	11.05
638.642	10.95
639.056	10.84
639.47	10.73
639.884	10.62
640.298	10.5
640.712	10.4
641.126	10.29
641.54	10.15
641.954	10.03
642.368	9.9
642.781	9.81
643.195	9.7
643.609	9.6
644.022	9.49
644.436	9.39
644.849	9.28
645.262	9.18
645.676	9.1
646.089	9.03
646.502	8.95
646.915	8.89
647.328	8.82
647.741	8.75
648.154	8.7
648.567	8.65
648.98	8.59
649.393	8.56
649.805	8.52
650.218	8.48
650.631	8.44
651.043	8.4
651.456	8.37
651.868	8.33
652.28	8.29
652.693	8.26
653.105	8.22
653.517	8.18
653.929	8.14
654.341	8.09
654.753	8.03
655.165	7.98
655.577	7.92
655.989	7.86
656.401	7.8
656.813	7.74
657.224	7.65
657.636	7.57
658.047	7.49
658.459	7.4
658.87	7.31
659.282	7.22
659.693	7.11
660.104	7.02
660.515	6.92
660.926	6.82
661.338	6.72
661.749	6.63
662.159	6.52
662.57	6.43
662.981	6.34
663.392	6.25
663.803	6.17
664.213	6.1
664.624	6.02
665.035	5.94
665.445	5.87
665.855	5.8
666.266	5.74
666.676	5.69
667.086	5.63
667.497	5.58
667.907	5.53
668.317	5.5
668.727	5.45
669.137	5.42
669.547	5.39
669.956	5.37
670.366	5.34
670.776	5.32
671.186	5.3
671.595	5.28
672.005	5.27
672.414	5.26
672.824	5.24
673.233	5.25
673.642	5.24
674.052	5.24
674.461	5.25
674.87	5.26
675.279	5.28
675.688	5.31
676.097	5.32
676.506	5.35
676.915	5.39
677.323	5.43
677.732	5.46
678.141	5.51
678.549	5.57
678.958	5.64
679.366	5.72
679.775	5.79
680.183	5.88
680.592	6
681	6.12
681.408	6.25
681.816	6.4
682.224	6.56
682.632	6.73
683.04	6.91
683.448	7.12
683.856	7.31
684.264	7.54
684.671	7.78
685.079	8.04
685.487	8.31
685.894	8.61
686.302	8.92
686.709	9.22
687.116	9.56
687.524	9.91
687.931	10.27
688.338	10.65
688.745	11.03
689.152	11.4
689.559	11.79
689.966	12.18
690.373	12.58
690.78	12.97
691.187	13.36
691.593	13.75
692	14.13
692.407	14.51
692.813	14.89
693.22	15.26
693.626	15.64
694.032	16
694.439	16.37
694.845	16.72
695.251	17.06
695.657	17.39
696.063	17.72
696.469	18.03
696.875	18.35
697.281	18.64
697.687	18.93
698.093	19.21
698.498	19.48
698.904	19.74
699.31	20
699.715	20.24
700.12	20.49
700.526	20.74
700.931	20.98
701.337	21.2
701.742	21.42
702.147	21.62
702.552	21.82
702.957	22.02
703.362	22.2
703.767	22.36
704.172	22.54
704.577	22.71
704.981	22.86
705.386	23.02
705.791	23.17
706.195	23.33
706.6	23.49
707.004	23.64
707.408	23.77
707.813	23.93
708.217	24.07
708.621	24.2
709.025	24.33
709.43	24.45
709.834	24.59
710.237	24.72
710.641	24.82
711.045	24.93
711.449	25.05
711.853	25.18
712.256	25.26
712.66	25.36
713.064	25.46
713.467	25.54
713.87	25.65
714.274	25.73
714.677	25.8
715.08	25.89
715.484	25.99
715.887	26.08
716.29	26.13
716.693	26.22
717.096	26.31
717.499	26.4
717.901	26.48
718.304	26.55
718.707	26.63
719.109	26.69
719.512	26.75
719.915	26.8
720.317	26.83
720.719	26.88
721.122	26.93
721.524	26.96
721.926	26.99
722.328	27.04
722.731	27.08
723.133	27.13
723.535	27.18
723.937	27.23
724.338	27.27
724.74	27.31
725.142	27.4
725.544	27.44
725.945	27.5
726.347	27.54
726.748	27.59
727.15	27.62
727.551	27.64
727.952	27.66
728.354	27.72
728.755	27.73
729.156	27.77
729.557	27.74
729.958	27.76
730.359	27.77
730.76	27.8
731.161	27.82
731.562	27.86
731.962	27.89
732.363	27.92
732.763	27.92
733.164	27.95
733.564	27.99
733.965	28.02
734.365	28.06
734.766	28.09
735.166	28.09
735.566	28.08
735.966	28.09
736.366	28.1
736.766	28.11
737.166	28.13
737.566	28.13
737.966	28.14
738.365	28.14
738.765	28.15
739.165	28.15
739.564	28.18
739.964	28.21
740.363	28.2
740.763	28.22
741.162	28.23
741.561	28.22
741.96	28.24
742.36	28.23
742.759	28.25
743.158	28.24
743.557	28.23
743.955	28.23
744.354	28.24
744.753	28.26
745.152	28.27
745.55	28.26
745.949	28.27
746.348	28.26
746.746	28.28
747.144	28.27
747.543	28.28
747.941	28.29
748.339	28.28
748.737	28.29
749.136	28.27
749.534	28.25
749.932	28.27
750.33	28.28
750.727	28.3
751.125	28.28
751.523	28.28
751.921	28.28
752.318	28.29
752.716	28.28
753.113	28.28
753.511	28.29
753.908	28.29
754.305	28.27
754.703	28.24
755.1	28.23
755.497	28.24
755.894	28.23
756.291	28.2
756.688	28.18
757.085	28.17
757.482	28.15
757.878	28.14
758.275	28.12
758.672	28.11
759.068	28.12
759.465	28.09
759.861	28.08
760.258	28.07
760.654	28.09
761.05	28.1
761.447	28.11
761.843	28.1
762.239	28.1
762.635	28.1
763.031	28.12
763.427	28.11
763.822	28.13
764.218	28.15
764.614	28.17
765.01	28.16
765.405	28.16
765.801	28.17
766.196	28.17
766.592	28.18
766.987	28.18
767.382	28.18
767.778	28.19
768.173	28.19
768.568	28.2
768.963	28.18
769.358	28.2
769.753	28.2
770.148	28.18
770.542	28.18
770.937	28.17
771.332	28.18
771.726	28.17
772.121	28.18
772.515	28.19
772.91	28.17
773.304	28.18
773.699	28.17
774.093	28.15
774.487	28.17
774.881	28.17
775.275	28.18
775.669	28.15
776.063	28.14
776.457	28.13
776.851	28.1
777.245	28.08
777.638	28.08
778.032	28.11
778.425	28.12
778.819	28.12
779.212	28.13
779.606	28.14
779.999	28.14
780.392	28.16
780.786	28.14
781.179	28.17
781.572	28.2
781.965	28.2
782.358	28.19
782.751	28.18
783.143	28.16
783.536	28.14
783.929	28.14
784.322	28.15
784.714	28.15
785.107	28.18
785.499	28.18
785.891	28.16
786.284	28.14
786.676	28.12
787.068	28.12
787.46	28.13
787.852	28.12
788.245	28.13
788.636	28.12
789.028	28.1
789.42	28.07
789.812	28.07
790.204	28.08
790.595	28.08
790.987	28.09
791.378	28.1
791.77	28.1
792.161	28.1
792.553	28.11
792.944	28.08
793.335	28.09
793.726	28.11
794.117	28.08
794.508	28.04
794.899	28.02
795.29	28.02
795.681	28
796.072	27.98
796.463	27.98
796.853	27.96
797.244	27.98
797.634	27.95
798.025	27.96
798.415	27.96
798.806	27.98
799.196	28.01
799.586	27.99
799.976	28
800.366	27.98
800.756	27.99
801.146	27.98
801.536	27.98
801.926	28
802.316	27.98
802.706	27.99
803.095	27.99
803.485	27.98
803.874	27.99
804.264	27.97
804.653	27.98
805.043	27.96
805.432	27.96
805.821	27.95
806.21	27.95
806.599	27.93
806.988	27.91
807.377	27.89
807.766	27.88
808.155	27.85
808.544	27.83
808.933	27.82
809.321	27.82
809.71	27.81
810.098	27.8
810.487	27.78
810.875	27.78
811.264	27.76
811.652	27.75
812.04	27.76
812.428	27.77
812.816	27.76
813.204	27.75
813.592	27.73
813.98	27.73
814.368	27.72
814.756	27.7
815.144	27.67
815.531	27.68
815.919	27.67
816.306	27.65
816.694	27.62
817.081	27.62
817.469	27.63
817.856	27.62
818.243	27.6
818.63	27.59
819.017	27.59
819.404	27.58
819.791	27.56
820.178	27.56
820.565	27.53
820.952	27.53
821.339	27.53
821.725	27.51
822.112	27.52
822.498	27.52
822.885	27.51
823.271	27.5
823.657	27.49
824.044	27.49
824.43	27.47
824.816	27.47
825.202	27.46
825.588	27.44
825.974	27.45
826.36	27.43
826.746	27.41
827.132	27.41
827.517	27.42
827.903	27.43
828.289	27.47
828.674	27.48
829.06	27.49
829.445	27.48
829.83	27.48
830.216	27.47
830.601	27.47
830.986	27.49
831.371	27.47
831.756	27.49
832.141	27.47
832.526	27.44
832.911	27.43
833.295	27.42
833.68	27.42
834.065	27.44
834.449	27.43
834.834	27.42
835.218	27.41
835.603	27.43
835.987	27.4
836.371	27.4
836.755	27.39
837.139	27.4
837.524	27.4
837.908	27.42
838.291	27.41
838.675	27.42
839.059	27.43
839.443	27.41
839.827	27.4
840.21	27.41
840.594	27.42
840.977	27.43
841.361	27.43
841.744	27.41
842.127	27.41
842.511	27.4
842.894	27.4
843.277	27.4
843.66	27.4
844.043	27.4
844.426	27.39
844.809	27.4
845.191	27.4
845.574	27.41
845.957	27.41
846.339	27.4
846.722	27.4
847.104	27.4
847.487	27.4
847.869	27.4
848.252	27.39
848.634	27.4
849.016	27.4
849.398	27.41
849.78	27.39
850.162	27.38
850.544	27.38
850.926	27.38
851.307	27.37
851.689	27.36
852.071	27.37
852.452	27.38
852.834	27.38
853.215	27.37
853.597	27.35
853.978	27.34
854.359	27.34
854.741	27.32
855.122	27.31
855.503	27.3
855.884	27.29
856.265	27.3
856.646	27.26
857.026	27.25
857.407	27.24
857.788	27.23
858.169	27.25
858.549	27.26
858.93	27.26
859.31	27.26
859.69	27.27
860.071	27.29
860.451	27.27
860.831	27.25
861.211	27.24
861.591	27.24
861.971	27.24
862.351	27.23
862.731	27.21
863.111	27.19
863.491	27.2
863.87	27.17
864.25	27.15
864.629	27.15
865.009	27.16
865.388	27.16
865.768	27.15
866.147	27.14
866.526	27.13
866.905	27.11
867.284	27.14
867.663	27.13
868.042	27.13
868.421	27.14
868.8	27.14
869.179	27.15
869.558	27.15
869.936	27.15
870.315	27.15
870.693	27.16
871.072	27.17
871.45	27.17
871.828	27.18
872.207	27.19
872.585	27.18
872.963	27.19
873.341	27.19
873.719	27.19
874.097	27.18
874.475	27.18
874.853	27.17
875.23	27.16
875.608	27.16
875.986	27.16
876.363	27.15
876.741	27.13
877.118	27.13
877.495	27.11
877.873	27.12
878.25	27.13
878.627	27.16
879.004	27.15
879.381	27.16
879.758	27.14
880.135	27.12
880.512	27.11
880.889	27.13
881.265	27.11
881.642	27.12
882.019	27.14
882.395	27.13
882.772	27.12
883.148	27.11
883.524	27.1
883.901	27.12
884.277	27.12
884.653	27.13
885.029	27.12
885.405	27.14
885.781	27.14
886.157	27.13
886.532	27.13
886.908	27.12
887.284	27.14
887.659	27.13
888.035	27.11
888.411	27.1
888.786	27.1
889.161	27.1
889.537	27.1
889.912	27.07
890.287	27.08
890.662	27.07
891.037	27.07
891.412	27.06
891.787	27.05
892.162	27.05
892.536	27.05
892.911	27.05
893.286	27.05
893.66	27.03
894.035	27.04
894.409	27.01
894.784	27.01
895.158	27.01
895.532	27.01
895.906	27.02
896.281	27.01
896.655	27.01
897.029	27
897.402	27
897.776	27.02
898.15	27.02
898.524	27.02
898.898	26.99
899.271	26.99
899.645	26.99
900.018	26.99
900.392	27
900.765	27.01
901.138	27
901.511	26.98
901.884	26.99
902.258	27
902.631	27
903.003	27.03
903.376	27.03
903.749	27.01
904.122	27.04
904.495	27.05
904.867	27.07
905.24	27.08
905.612	27.08
905.985	27.06
906.357	27.05
906.729	27.05
907.102	27.06
907.474	27.06
907.846	27.07
908.218	27.04
908.59	27.04
908.962	27.03
909.334	27.03
909.705	27.04
910.077	27.06
910.449	27.06
910.82	27.07
911.192	27.07
911.563	27.07
911.935	27.05
912.306	27.06
912.677	27.04
913.048	27.04
913.419	27.03
913.79	27.02
914.161	27.01
914.532	27.03
914.903	27.04
915.274	27.03
915.645	27.04
916.015	27.04
916.386	27.03
916.756	27.05
917.127	27.06
917.497	27.07
917.868	27.07
918.238	27.05
918.608	27.05
918.978	27.04
919.348	27.04
919.718	27.02
920.088	27.06
920.458	27.04
920.828	27.04
921.198	27.04
921.567	27.03
921.937	27.05
922.306	27.06
922.676	27.04
923.045	27.03
923.415	27.02
923.784	27.04
924.153	27.04
924.522	27.07
924.891	27.07
925.26	27.06
925.629	27.07
925.998	27.07
926.367	27.07
926.736	27.1
927.104	27.14
927.473	27.14
927.842	27.12
928.21	27.12
928.578	27.1
928.947	27.1
929.315	27.08
929.683	27.06
930.051	27.07
930.42	27.09
930.788	27.06
931.156	27.04
931.523	27.05
931.891	27.09
932.259	27.08
932.627	27.09
932.994	27.08
933.362	27.11
933.729	27.12
934.097	27.11
934.464	27.11
934.831	27.1
935.199	27.11
935.566	27.11
935.933	27.02
936.3	27.03
936.667	26.99
937.034	26.99
937.401	26.99
937.767	26.98
938.134	26.99
938.501	26.97
938.867	27.01
939.234	26.99
939.6	27
939.967	27.06
940.333	27.03
940.699	27.1
941.065	27.1
941.431	27.13
941.798	27.09
942.163	27.09
942.529	27.06
942.895	27.04
943.261	27.01
943.627	26.97
943.992	26.92
944.358	26.92
944.723	26.88
945.089	26.8
945.454	26.77
945.82	26.78
946.185	26.76
946.55	26.75
946.915	26.74
947.28	26.74
947.645	26.78
948.01	26.83
948.375	26.81
948.74	26.82
949.104	26.88
949.469	26.88
949.834	26.87
950.198	26.85
950.562	26.8
950.927	26.76
951.291	26.7
951.655	26.65
952.02	26.63
952.384	26.64
952.748	26.63
953.112	26.59
953.476	26.55
953.839	26.54
954.203	26.53
954.567	26.53
954.931	26.53
955.294	26.56
955.658	26.6
956.021	26.58
956.385	26.53
956.748	26.52
957.111	26.54
957.474	26.58
957.837	26.53
958.2	26.52
958.563	26.52
958.926	26.48
959.289	26.5
959.652	26.43
960.015	26.42
960.377	26.42
960.74	26.4
961.102	26.38
961.465	26.39
961.827	26.43
962.189	26.41
962.552	26.41
962.914	26.43
963.276	26.44
963.638	26.47
964	26.45
964.362	26.48
964.724	26.5
965.085	26.48
965.447	26.47
965.809	26.45
966.17	26.46
966.532	26.5
966.893	26.52
967.255	26.5
967.616	26.49
967.977	26.5
968.338	26.47
968.699	26.48
969.061	26.52
969.421	26.52
969.782	26.58
970.143	26.6
970.504	26.58
970.865	26.63
971.225	26.59
971.586	26.6
971.946	26.63
972.307	26.7
972.667	26.65
973.027	26.67
973.388	26.64
973.748	26.59
974.108	26.62
974.468	26.63
974.828	26.63
975.188	26.65
975.548	26.63
975.907	26.65
976.267	26.57
976.627	26.65
976.986	26.61
977.346	26.63
977.705	26.6
978.064	26.59
978.424	26.62
978.783	26.58
979.142	26.61
979.501	26.65
979.86	26.65
980.219	26.7
980.578	26.67
980.937	26.67
981.296	26.66
981.654	26.66
982.013	26.66
982.371	26.65
982.73	26.64
983.088	26.65
983.447	26.64
983.805	26.67
984.163	26.67
984.521	26.7
984.879	26.72
985.237	26.74
985.595	26.86
985.953	26.87
986.311	26.86
986.669	26.87
987.026	26.89
987.384	26.91
987.741	26.92
988.099	27
988.456	26.93
988.814	26.9
989.171	26.95
989.528	26.86
989.885	26.89
990.242	26.89
990.599	26.95
990.956	26.99
991.313	27.04
991.67	27
992.027	27
992.383	27.07
992.74	27.16
993.096	27.09
993.453	27.13
993.809	27.19
994.165	27.23
994.522	27.2
994.878	27.15
995.234	27.06
995.59	27.11
995.946	27.03
996.302	27.08
996.658	27.11
997.013	27.2
997.369	27.23
997.725	27.23
998.08	27.32
998.436	27.38
998.791	27.42
999.147	27.51
999.502	27.54
999.857	27.64
1000.212	27.52
1000.567	27.42
1000.922	27.39
1001.277	27.35
1001.632	27.28
1001.987	27.26
1002.342	27.14
1002.696	27.18
1003.051	27.21
1003.406	27.2
1003.76	27.11
1004.114	27.17
1004.469	27.27
1004.823	27.44
1005.177	27.46
1005.531	27.58
1005.885	27.56
1006.239	27.65
1006.593	27.71
1006.947	27.77
1007.301	27.79
1007.655	27.87
1008.008	28.02
1008.362	28.05
1008.715	27.93
1009.069	28.02
1009.422	27.98
1009.776	27.84
1010.129	27.85
1010.482	27.8
1010.835	27.74
1011.188	27.79
1011.541	27.81
1011.894	27.87
1012.247	27.84
1012.6	27.77
1012.952	27.65
1013.305	27.68
1013.657	27.91
1014.01	28.03
1014.362	28.09
1014.715	28.24
1015.067	28.2
1015.419	28.27
1015.771	28.17
1016.123	28.12
1016.475	28.27
1016.827	28.32
1017.179	28.45
1017.531	28.42
1017.883	28.31
1018.234	28.3
1018.586	28.33
1018.938	28.65
1019.289	28.55
1019.64	28.68
1019.992	28.81
1020.343	28.77
1020.694	28.82
1021.045	28.62
1021.396	28.63
1021.747	28.86
1022.098	28.93
1022.449	28.72
1022.8	28.45
1023.151	28.52
1023.501	28.42
1023.852	28.47
1024.202	28.56
1024.553	28.59
1024.903	28.77
1025.253	28.89
1025.604	28.92
1025.954	28.63
1026.304	28.51
1026.654	28.61
1027.004	28.61
1027.354	28.58
1027.703	28.45
1028.053	28.52
1028.403	28.51
1028.753	28.36
1029.102	28.47
1029.452	28.41
1029.801	28.8
1030.15	29.05
1030.499	28.93
897.758	385.26
901.051	385.22
904.343	383.03
907.636	391.87
910.928	380.72
914.22	380.49
917.511	378.08
920.803	359.22
924.094	359.71
927.384	348.06
930.675	333.83
933.965	331.89
937.255	313.68
940.544	303.73
943.834	289.34
947.123	287.25
950.411	272.2
953.7	266.44
956.988	256.41
960.276	246.19
963.563	241.78
966.851	235.46
970.138	232.14
973.424	226.87
976.711	225.43
979.997	214.31
983.283	212.85
986.568	208.32
989.853	204.71
993.138	200.85
996.423	192.27
999.708	188.39
1002.992	185.1
1006.275	177.53
1009.559	174.91
1012.842	169.7
1016.125	167.34
1019.408	164.42
1022.69	162.24
1025.972	156.78
1029.254	153.74
1032.536	152.01
1035.817	148.68
1039.098	146.74
1042.379	144.24
1045.659	143.24
1048.939	140.8
1052.219	138.46
1055.498	135.37
1058.778	132.43
1062.057	129.81
1065.335	127.87
1068.614	126.09
1071.892	124.54
1075.17	123.12
1078.447	121.28
1081.724	119.75
1085.001	119.09
1088.278	115.83
1091.554	113.71
1094.83	114.39
1098.106	112.98
1101.382	112.56
1104.657	112.07
1107.932	110.29
1111.206	109.81
1114.481	107.62
1117.755	106.85
1121.029	105.35
1124.302	105.3
1127.575	104.43
1130.848	103.18
1134.121	102.5
1137.393	101.54
1140.665	99.67
1143.937	99.46
1147.208	99.19
1150.48	98.39
1153.75	97.64
1157.021	96.29
1160.291	95.74
1163.561	94.9
1166.831	94.3
1170.101	93.77
1173.37	94.09
1176.639	94.35
1179.907	92.84
1183.176	91.86
1186.444	92.24
1189.711	91.72
1192.979	91.41
1196.246	90.82
1199.513	91.57
1202.78	90.57
1206.046	90.67
1209.312	89.32
1212.578	89.43
1215.843	90.96
1219.108	90.22
1222.373	91.32
1225.638	91.98
1228.902	92.98
1232.166	94.09
1235.43	93.55
1238.693	95.64
1241.956	96.19
1245.219	97.79
1248.482	97.77
1251.744	97.3
1255.006	97.5
1258.268	96.67
1261.529	96.05
1264.79	95.8
1268.051	94.46
1271.312	94.2
1274.572	93.01
1277.832	91.73
1281.092	90.24
1284.351	89.37
1287.61	89.71
1290.869	88.32
1294.128	87.3
1297.386	86.77
1300.644	86.01
1303.902	86.07
1307.159	85.39
1310.416	84.72
1313.673	84.8
1316.93	85.41
1320.186	85.5
1323.442	85.27
1326.697	86.6
1329.953	86.48
1333.208	87.01
1336.463	87.55
1339.717	87.61
1342.972	89.21
1346.226	90.15
1349.479	90.26
1352.733	90.65
1355.986	91.58
1359.238	91.56
1362.491	91.42
1365.743	91.26
1368.995	92
1372.247	91.9
1375.498	91.5
1378.749	90.82
1382	90.2
1385.251	89.97
1388.501	89.55
1391.751	88.65
1395	88.54
1398.25	87.68
1401.499	87.3
1404.748	86.05
1407.996	85.28
1411.244	85.26
1414.492	84.35
1417.74	82.53
1420.987	81.93
1424.234	81.51
1427.481	80.15
1430.728	79.58
1433.974	79.02
1437.22	78.37
1440.465	78.29
1443.711	76.88
1446.956	75.67
1450.201	75.13
1453.445	74.97
1456.689	74.53
1459.933	72.99
1463.177	72.65
1466.42	71.74
1469.663	70.49
1472.906	69.89
1476.148	68.49
1479.391	68.16
1482.633	68.09
1485.874	67.36
1489.115	66.81
1492.356	66.06
1495.597	65.72
1498.838	65.45
1502.078	65.02
1505.318	65.04
1508.557	65.08
1511.797	64.83
1515.036	64.17
1518.274	64.61
1521.513	64.22
1524.751	63.72
1527.989	63.85
1531.227	63.92
1534.464	63.24
1537.701	63.16
1540.938	62.9
1544.174	63.16
1547.41	62.73
1550.646	62.64
1553.882	62.37
1557.117	62.02
1560.352	61.97
1563.587	61.77
1566.821	61.37
1570.055	61.28
1573.289	61.13
1576.523	61.29
1579.756	60.23
1582.989	60.34
1586.222	60.51
1589.454	59.53
1592.686	60.72
1595.918	60.39
1599.15	60.19
1602.381	60.19
1605.612	60.24
1608.843	60.33
1612.073	59.79
1615.303	60.2
1618.533	60.36
1621.762	60.71
1624.992	61.66
1628.221	60.5
1631.449	60.38
1634.678	60.46
1637.906	60.7
1641.134	60.77
1644.361	60.79
1647.588	61.03
1650.815	60.78
1654.042	60.97
1657.269	60.52
1660.495	60.53
1663.72	60.74
1666.946	60.82
1670.171	60.94
1673.396	60.96
1676.621	61.18
1679.845	61.28
1683.069	61.79
1686.293	61.8
1689.517	62.06
1692.74	62.1
1695.963	62.15
1699.185	62.18
1702.408	62.74
1705.63	62.9
1708.852	62.83
1712.073	62.83
1715.294	62.9
1718.515	63.18
1721.736	63.43
1724.956	63.59
1728.176	63.68
1731.396	63.4
1734.616	63.45
1737.835	63.86
1741.054	63.27
1744.272	63.84
1747.491	63.97
1750.709	64.12
1753.927	63.64
1757.144	63.85
1760.361	63.62
1763.578	63.46
1766.795	63.44
1770.011	64.47
1773.227	64.01
1776.443	64.6
1779.658	64.27
1782.874	64.84
1786.089	64.15
1789.303	64.68
1792.518	65.12
1795.732	65.56
1798.945	66.09
1802.159	66.64
1805.372	66.13
1808.585	66.8
1811.797	67.27
1815.01	67.52
1818.222	67.32
1821.434	68.52
1824.645	68.66
1827.856	69.42
1831.067	68.82
1834.278	69.76
1837.488	69.68
1840.698	69.86
1843.908	69.83
1847.117	69.71
1850.326	70.31
1853.535	70.22
1856.744	70.73
1859.952	70.47
1863.16	69.71
1866.368	68.97
1869.575	68.29
1872.782	68.25
1875.989	67.47
1879.196	67.77
1882.402	67.04
1885.608	66.71
1888.814	66.52
1892.019	65.51
1895.224	65.32
1898.429	65.28
1901.634	66.14
1904.838	66.61
1908.042	66.16
1911.246	66.24
1914.449	65.82
1917.652	66.46
1920.855	66.23
1924.058	65.9
1927.26	66.53
1930.462	65.65
1933.664	66.52
1936.865	66.43
1940.066	65.51
1943.267	65.99
1946.467	66.17
1949.668	66.41
1952.868	67.24
1956.067	67.39
1959.267	67.85
1962.466	68.01
1965.665	68.74
1968.863	68.8
1972.061	68.82
1975.259	69.74
1978.457	70.02
1981.654	71.26
1984.852	71.35
1988.048	70.93
1991.245	72.2
1994.441	72.66
1997.637	73.68
2000.833	75.14
2004.028	74.98
2007.223	76.38
2010.418	76.91
2013.613	78.64
2016.807	79.49
2020.001	80.41
2023.194	82.12
2026.388	83.7
2029.581	86
2032.774	86.58
2035.966	88.46
2039.158	89.66
2042.35	91.35
2045.542	91.24
2048.733	92.99
2051.924	93.22
2055.115	94.34
2058.306	94.38
2061.496	94.82
2064.686	95.18
2067.875	95.59
2071.065	95.77
2074.254	95.48
2077.442	97.23
2080.631	97.8
2083.819	97.94
2087.007	99.23
2090.195	100.51
2093.382	101.87
2096.569	101.84
2099.756	103.11
2102.942	104.04
2106.128	104.64
2109.314	107.54
2112.5	106.39
2115.685	109.11
2118.87	109.21
2122.055	111.32
2125.239	112.15
2128.424	112.79
2131.608	113.5
2134.791	114.56
2137.974	115.75
2141.157	115.97
2144.34	115.7
2147.523	116.75
2150.705	116.98
2153.887	118.66
2157.068	118.99
2160.25	118.91
2163.431	120.23
2166.611	120.86
2169.792	122.4
2172.972	122.82
2176.152	124.61
2179.331	125.76
2182.511	128.35
2185.69	128.52
2188.868	130.29
2192.047	130.97
2195.225	134.28
2198.403	135.3
2201.58	139.04
2204.758	142.13
2207.935	144.81
2211.111	146.85
2214.288	148.36
2217.464	148.25
2220.64	151.75
2223.815	153.03
2226.991	158.2
2230.166	157.51
2233.34	161.98
2236.515	162.37
2239.689	163.25
2242.863	164.6
2246.036	168.96
2249.209	168.86
2252.382	172
2255.555	175.87
2258.727	177.93
2261.9	180.45
2265.071	183.14
2268.243	183.26
2271.414	188.09
2274.585	191.54
2277.756	193.71
2280.926	194.9
2284.096	200.57
2287.266	203.09
2290.436	205.95
2293.605	209.02
2296.774	212.01
2299.942	219.13
2303.111	225.27
2306.279	228.71
2309.447	229.51
2312.614	237.21
2315.781	242.38
2318.948	252.24
2322.115	251.25
2325.281	264.5
2328.447	260.03
2331.613	271.28
2334.779	268.53
2337.944	275.75
2341.109	278.67
2344.274	289.39
2347.438	296.3
2350.602	296.93
2353.766	307.8
2356.929	312.78
2360.092	311.26
2363.255	331.62
2366.418	332.67
2369.58	336.09
2372.742	359.82
2375.904	367.93
2379.066	367.59
2382.227	361.22
2385.388	394.5
2388.548	389.35
2391.709	393.31
2394.869	435.36
2398.029	422.09
2401.188	431.93
2404.347	432.35
2407.506	423.95
2410.665	431.45
2413.823	455.13
2416.981	483.96
2420.139	461.08
2423.296	465.25
2426.453	483.5
2429.61	468.22
2432.767	483.71
2435.923	478.74
2439.079	522.35
2442.235	532.39
2445.391	533.35
2448.546	527.21
2451.701	511.23
2454.855	517.07
2458.009	535.68
2461.163	564.14
2464.317	579.36
2467.471	598.51
2470.624	606.8
2473.777	587.14
2476.929	574.06
2480.082	554.91
2483.234	551.41
2486.385	582.54
2489.537	587.81
2492.688	610.84
2495.839	591.82
2498.989	580.64
2502.14	580.81
2505.29	578.98
2508.439	591.67
2511.589	588
2514.738	644.91
2517.887	629.59
2521.035	663.95
2524.183	665.21
2527.331	672.73
2530.479	667.28
2533.627	673.64
