Data from N_1_HIR_WI_4n_Splice17_12-15-42-662.txt Node
Date: Sat Mar 07 12:15:42 EST 2020
User: sa697716
Spectrometer: NQ5500242
Trigger mode: 0
Integration Time (sec): 1.450000E-1
Scans to average: 20
Nonlinearity correction enabled: false
Boxcar width: 5
Storing dark spectrum: false
XAxis mode: Wavelengths
Number of Pixels in Spectrum: 512
>>>>>Begin Spectral Data<<<<<
187.83	94.25
188.298	102.61
188.766	89.14
189.233	66.3
189.701	48.83
190.169	77.98
190.636	36.92
191.104	3.79
191.571	-50.67
192.039	16.9
192.506	39.84
192.974	-0.45
193.441	64.95
193.908	10.3
194.375	-16.22
194.842	-77.14
195.31	-49.28
195.777	-398.13
196.244	16.65
196.711	43.2
197.177	48.92
197.644	49.71
198.111	49.81
198.578	49.85
199.045	50.08
199.511	49.87
199.978	49.96
200.445	50.56
200.911	50.91
201.378	51.27
201.844	51.55
202.31	51.33
202.777	51.28
203.243	51.29
203.709	51.03
204.176	51.01
204.642	51.17
205.108	51.41
205.574	51.15
206.04	50.65
206.506	50.35
206.972	50.05
207.438	49.55
207.903	49.42
208.369	49.02
208.835	48.66
209.301	47.83
209.766	46.83
210.232	45.75
210.697	44.87
211.163	44.36
211.628	43.7
212.094	42.84
212.559	42.18
213.024	41.39
213.49	40.68
213.955	39.96
214.42	39.5
214.885	38.93
215.35	38.09
215.815	36.77
216.28	35.09
216.745	33.25
217.21	31.57
217.675	29.9
218.14	28.42
218.604	27.1
219.069	25.96
219.534	25.04
219.998	24.21
220.463	23.54
220.927	22.91
221.392	22.45
221.856	22.04
222.32	21.68
222.785	21.36
223.249	21.07
223.713	20.81
224.177	20.59
224.642	20.32
225.106	20.06
225.57	19.8
226.034	19.58
226.497	19.35
226.961	19.11
227.425	18.89
227.889	18.7
228.353	18.49
228.816	18.24
229.28	18.02
229.744	17.81
230.207	17.62
230.671	17.43
231.134	17.24
231.597	17.07
232.061	16.91
232.524	16.74
232.987	16.55
233.45	16.38
233.914	16.22
234.377	16.04
234.84	15.9
235.303	15.76
235.766	15.62
236.229	15.48
236.691	15.35
237.154	15.22
237.617	15.1
238.08	14.98
238.542	14.85
239.005	14.75
239.468	14.64
239.93	14.52
240.393	14.41
240.855	14.28
241.317	14.16
241.78	14.02
242.242	13.89
242.704	13.79
243.166	13.68
243.629	13.58
244.091	13.47
244.553	13.37
245.015	13.26
245.477	13.15
245.939	13.06
246.4	12.96
246.862	12.88
247.324	12.8
247.786	12.69
248.247	12.6
248.709	12.49
249.17	12.4
249.632	12.32
250.093	12.24
250.555	12.17
251.016	12.09
251.477	12.02
251.939	11.94
252.4	11.87
252.861	11.81
253.322	11.75
253.783	11.69
254.244	11.64
254.705	11.57
255.166	11.5
255.627	11.45
256.088	11.4
256.549	11.35
257.009	11.3
257.47	11.25
257.931	11.19
258.391	11.13
258.852	11.08
259.312	11.02
259.773	10.98
260.233	10.94
260.694	10.89
261.154	10.84
261.614	10.8
262.074	10.77
262.534	10.72
262.994	10.69
263.455	10.65
263.915	10.62
264.374	10.6
264.834	10.58
265.294	10.55
265.754	10.53
266.214	10.51
266.673	10.49
267.133	10.47
267.593	10.46
268.052	10.43
268.512	10.42
268.971	10.41
269.431	10.39
269.89	10.37
270.349	10.36
270.809	10.34
271.268	10.33
271.727	10.32
272.186	10.29
272.645	10.29
273.104	10.27
273.563	10.26
274.022	10.24
274.481	10.23
274.94	10.22
275.399	10.2
275.857	10.19
276.316	10.17
276.775	10.15
277.233	10.15
277.692	10.13
278.15	10.11
278.609	10.11
279.067	10.09
279.525	10.08
279.984	10.06
280.442	10.05
280.9	10.05
281.358	10.03
281.816	10.02
282.274	10.01
282.732	9.99
283.19	9.98
283.648	9.96
284.106	9.95
284.564	9.95
285.021	9.95
285.479	9.93
285.937	9.93
286.394	9.94
286.852	9.92
287.309	9.92
287.767	9.91
288.224	9.9
288.682	9.89
289.139	9.88
289.596	9.86
290.053	9.85
290.511	9.83
290.968	9.82
291.425	9.8
291.882	9.81
292.339	9.8
292.796	9.8
293.252	9.8
293.709	9.8
294.166	9.8
294.623	9.8
295.079	9.8
295.536	9.81
295.992	9.81
296.449	9.82
296.905	9.81
297.362	9.8
297.818	9.8
298.274	9.81
298.731	9.81
299.187	9.8
299.643	9.8
300.099	9.81
300.555	9.81
301.011	9.8
301.467	9.79
301.923	9.8
302.379	9.8
302.835	9.8
303.291	9.8
303.746	9.8
304.202	9.81
304.658	9.81
305.113	9.8
305.569	9.81
306.024	9.81
306.479	9.82
306.935	9.83
307.39	9.84
307.845	9.84
308.301	9.85
308.756	9.85
309.211	9.85
309.666	9.86
310.121	9.87
310.576	9.87
311.031	9.88
311.486	9.89
311.94	9.9
312.395	9.89
312.85	9.9
313.305	9.89
313.759	9.9
314.214	9.91
314.668	9.91
315.123	9.91
315.577	9.91
316.032	9.92
316.486	9.91
316.94	9.91
317.394	9.92
317.849	9.91
318.303	9.9
318.757	9.89
319.211	9.88
319.665	9.86
320.119	9.85
320.572	9.83
321.026	9.82
321.48	9.81
321.934	9.79
322.387	9.78
322.841	9.78
323.295	9.77
323.748	9.78
324.202	9.78
324.655	9.78
325.108	9.78
325.562	9.79
326.015	9.8
326.468	9.8
326.921	9.81
327.374	9.8
327.827	9.81
328.28	9.8
328.733	9.8
329.186	9.79
329.639	9.79
330.092	9.78
330.545	9.78
330.997	9.77
331.45	9.78
331.903	9.77
332.355	9.78
332.808	9.78
333.26	9.78
333.713	9.78
334.165	9.78
334.617	9.78
335.069	9.78
335.522	9.79
335.974	9.78
336.426	9.78
336.878	9.77
337.33	9.77
337.782	9.77
338.234	9.77
338.686	9.76
339.137	9.76
339.589	9.75
340.041	9.74
340.493	9.72
340.944	9.7
341.396	9.69
341.847	9.67
342.299	9.64
342.75	9.61
343.201	9.58
343.653	9.56
344.104	9.53
344.555	9.52
345.006	9.5
345.457	9.48
345.908	9.45
346.359	9.45
346.81	9.44
347.261	9.43
347.712	9.43
348.163	9.42
348.613	9.42
349.064	9.42
349.515	9.41
349.965	9.41
350.416	9.4
350.866	9.39
351.317	9.38
351.767	9.37
352.217	9.35
352.668	9.35
353.118	9.34
353.568	9.32
354.018	9.33
354.468	9.33
354.918	9.33
355.368	9.34
355.818	9.34
356.268	9.33
356.718	9.34
357.168	9.33
357.617	9.32
358.067	9.32
358.517	9.32
358.966	9.31
359.416	9.29
359.865	9.28
360.315	9.27
360.764	9.26
361.213	9.25
361.663	9.24
362.112	9.24
362.561	9.25
363.01	9.25
363.459	9.24
363.908	9.22
364.357	9.23
364.806	9.21
365.255	9.21
365.703	9.22
366.152	9.23
366.601	9.23
367.05	9.22
367.498	9.22
367.947	9.2
368.395	9.21
368.844	9.22
369.292	9.21
369.74	9.22
370.189	9.22
370.637	9.21
371.085	9.21
371.533	9.2
371.981	9.21
372.429	9.21
372.877	9.22
373.325	9.21
373.773	9.2
374.221	9.2
374.669	9.19
375.116	9.17
375.564	9.19
376.012	9.19
376.459	9.19
376.907	9.2
377.354	9.22
377.801	9.24
378.249	9.25
378.696	9.27
379.143	9.3
379.591	9.31
380.038	9.33
380.485	9.34
380.932	9.35
381.379	9.38
381.826	9.39
382.273	9.39
382.72	9.38
383.166	9.39
383.613	9.39
384.06	9.39
384.506	9.41
384.953	9.42
385.4	9.43
385.846	9.45
386.292	9.45
386.739	9.46
387.185	9.47
387.631	9.49
388.078	9.51
388.524	9.53
388.97	9.55
389.416	9.56
389.862	9.6
390.308	9.63
390.754	9.65
391.2	9.68
391.645	9.7
392.091	9.74
392.537	9.77
392.983	9.79
393.428	9.82
393.874	9.83
394.319	9.86
394.765	9.87
395.21	9.88
395.655	9.9
396.101	9.91
396.546	9.92
396.991	9.93
397.436	9.94
397.881	9.97
398.326	9.99
398.771	10.02
399.216	10.04
399.661	10.07
400.106	10.07
400.551	10.07
400.995	10.08
401.44	10.09
401.885	10.11
402.329	10.12
402.774	10.12
403.218	10.14
403.663	10.15
404.107	10.16
404.551	10.16
404.995	10.17
405.44	10.19
405.884	10.21
406.328	10.23
406.772	10.22
407.216	10.22
407.66	10.23
408.104	10.22
408.547	10.22
408.991	10.22
409.435	10.22
409.879	10.23
410.322	10.24
410.766	10.26
411.209	10.28
411.653	10.3
412.096	10.33
412.54	10.35
412.983	10.37
413.426	10.41
413.869	10.44
414.312	10.46
414.756	10.48
415.199	10.48
415.642	10.49
416.085	10.48
416.527	10.47
416.97	10.44
417.413	10.43
417.856	10.41
418.298	10.38
418.741	10.37
419.184	10.37
419.626	10.36
420.069	10.36
420.511	10.35
420.953	10.36
421.396	10.37
421.838	10.39
422.28	10.41
422.722	10.42
423.164	10.43
423.606	10.42
424.048	10.43
424.49	10.44
424.932	10.43
425.374	10.41
425.816	10.39
426.258	10.39
426.699	10.39
427.141	10.38
427.582	10.4
428.024	10.42
428.465	10.43
428.907	10.43
429.348	10.41
429.789	10.43
430.231	10.48
430.672	10.52
431.113	10.55
431.554	10.57
431.995	10.6
432.436	10.61
432.877	10.63
433.318	10.66
433.759	10.7
434.2	10.77
434.64	10.79
435.081	10.81
435.522	10.83
435.962	10.85
436.403	10.89
436.843	10.89
437.284	10.88
437.724	10.88
438.164	10.87
438.604	10.88
439.045	10.87
439.485	10.89
439.925	10.89
440.365	10.91
440.805	10.9
441.245	10.91
441.685	10.96
442.125	10.98
442.564	11.01
443.004	11.02
443.444	11.03
443.883	11.03
444.323	11.03
444.762	11.04
445.202	11.04
445.641	11.06
446.081	11.06
446.52	11.04
446.959	11.07
447.398	11.08
447.837	11.09
448.276	11.09
448.716	11.1
449.154	11.12
449.593	11.13
450.032	11.11
450.471	11.11
450.91	11.1
451.349	11.09
451.787	11.07
452.226	11.06
452.664	11.06
453.103	11.06
453.541	11.06
453.98	11.05
454.418	11.03
454.856	11.03
455.295	11.01
455.733	10.99
456.171	11
456.609	11.01
457.047	10.97
457.485	10.96
457.923	10.95
458.361	10.94
458.798	10.92
459.236	10.93
459.674	10.92
460.111	10.91
460.549	10.91
460.987	10.9
461.424	10.9
461.862	10.92
462.299	10.93
462.736	10.94
463.173	10.94
463.611	10.94
464.048	10.94
464.485	10.96
464.922	10.96
465.359	10.96
465.796	10.97
466.233	10.97
466.67	10.96
467.106	10.97
467.543	10.95
467.98	10.94
468.416	10.94
468.853	10.94
469.29	10.92
469.726	10.93
470.162	10.94
470.599	10.92
471.035	10.91
471.471	10.9
471.907	10.87
472.344	10.86
472.78	10.86
473.216	10.84
473.652	10.83
474.088	10.83
474.523	10.81
474.959	10.78
475.395	10.75
475.831	10.73
476.266	10.72
476.702	10.7
477.138	10.67
477.573	10.66
478.008	10.65
478.444	10.62
478.879	10.6
479.314	10.58
479.75	10.57
480.185	10.56
480.62	10.55
481.055	10.52
481.49	10.51
481.925	10.51
482.36	10.5
482.795	10.48
483.229	10.47
483.664	10.46
484.099	10.44
484.534	10.43
484.968	10.43
485.403	10.42
485.837	10.43
486.271	10.43
486.706	10.42
487.14	10.42
487.574	10.42
488.009	10.43
488.443	10.43
488.877	10.43
489.311	10.44
489.745	10.44
490.179	10.45
490.613	10.45
491.046	10.45
491.48	10.46
491.914	10.47
492.348	10.48
492.781	10.48
493.215	10.5
493.648	10.51
494.082	10.51
494.515	10.52
494.948	10.53
495.382	10.55
495.815	10.56
496.248	10.58
496.681	10.6
497.114	10.62
497.547	10.65
497.98	10.66
498.413	10.68
498.846	10.71
499.279	10.74
499.711	10.76
500.144	10.79
500.577	10.83
501.009	10.86
501.442	10.89
501.874	10.94
502.306	10.98
502.739	11.04
503.171	11.1
503.603	11.14
504.036	11.21
504.468	11.27
504.9	11.32
505.332	11.39
505.764	11.46
506.196	11.53
506.627	11.61
507.059	11.68
507.491	11.76
507.923	11.86
508.354	11.96
508.786	12.06
509.217	12.18
509.649	12.31
510.08	12.42
510.512	12.53
510.943	12.66
511.374	12.79
511.805	12.93
512.237	13.08
512.668	13.24
513.099	13.4
513.53	13.56
513.961	13.73
514.391	13.9
514.822	14.1
515.253	14.29
515.684	14.5
516.114	14.71
516.545	14.91
516.975	15.13
517.406	15.34
517.836	15.55
518.267	15.77
518.697	15.99
519.127	16.2
519.558	16.43
519.988	16.66
520.418	16.87
520.848	17.1
521.278	17.33
521.708	17.7
522.138	17.93
522.567	18.15
522.997	18.37
523.427	18.61
523.857	18.83
524.286	19.04
524.716	19.26
525.145	19.47
525.575	19.66
526.004	19.86
526.433	19.89
526.863	20.09
527.292	20.28
527.721	20.45
528.15	20.59
528.579	20.77
529.008	20.93
529.437	21.07
529.866	21.2
530.295	21.35
530.724	21.48
531.152	21.61
531.581	21.73
532.01	21.83
532.438	21.95
532.867	22.06
533.295	22.15
533.723	22.23
534.152	22.31
534.58	22.42
535.008	22.47
535.436	22.54
535.865	22.6
536.293	22.66
536.721	22.72
537.149	22.77
537.576	22.82
538.004	22.87
538.432	22.91
538.86	22.97
539.287	22.99
539.715	23.04
540.143	23.09
540.57	23.12
540.998	23.14
541.425	23.17
541.852	23.22
542.28	23.26
542.707	23.29
543.134	23.32
543.561	23.36
543.988	23.39
544.415	23.41
544.842	23.43
545.269	23.46
545.696	23.5
546.123	23.53
546.549	23.55
546.976	23.57
547.403	23.59
547.829	23.62
548.256	23.63
548.682	23.64
549.108	23.67
549.535	23.7
549.961	23.7
550.387	23.72
550.813	23.7
551.24	23.69
551.666	23.67
552.092	23.66
552.518	23.64
552.943	23.61
553.369	23.58
553.795	23.55
554.221	23.51
554.646	23.46
555.072	23.41
555.498	23.35
555.923	23.3
556.349	23.24
556.774	23.16
557.199	23.08
557.625	23
558.05	22.9
558.475	22.8
558.9	22.7
559.325	22.61
559.75	22.5
560.175	22.41
560.6	22.3
561.025	22.18
561.449	22.06
561.874	21.92
562.299	21.8
562.723	21.67
563.148	21.52
563.572	21.39
563.997	21.25
564.421	21.1
564.846	20.96
565.27	20.79
565.694	20.66
566.118	20.52
566.542	20.37
566.966	20.22
567.39	20.07
567.814	19.92
568.238	19.77
568.662	19.62
569.086	19.47
569.509	19.32
569.933	19.19
570.357	19.05
570.78	18.91
571.204	18.77
571.627	18.64
572.05	18.5
572.474	18.39
572.897	18.26
573.32	18.13
573.743	18.01
574.166	17.89
574.589	17.78
575.012	17.67
575.435	17.56
575.858	17.46
576.281	17.37
576.704	17.26
577.126	17.16
577.549	17.08
577.972	16.99
578.394	16.91
578.817	16.84
579.239	16.77
579.661	16.69
580.084	16.63
580.506	16.55
580.928	16.47
581.35	16.42
581.772	16.34
582.194	16.27
582.616	16.22
583.038	16.14
583.46	16.05
583.882	16
584.303	15.93
584.725	15.86
585.147	15.8
585.568	15.75
585.99	15.69
586.411	15.64
586.833	15.59
587.254	15.54
587.675	15.48
588.096	15.44
588.518	15.38
588.939	15.34
589.36	15.3
589.781	15.26
590.202	15.23
590.623	15.18
591.043	15.15
591.464	15.11
591.885	15.07
592.305	15.04
592.726	15.01
593.147	14.97
593.567	14.93
593.987	14.9
594.408	14.87
594.828	14.84
595.248	14.82
595.669	14.78
596.089	14.75
596.509	14.72
596.929	14.7
597.349	14.66
597.769	14.64
598.189	14.6
598.608	14.58
599.028	14.55
599.448	14.51
599.867	14.47
600.287	14.43
600.706	14.4
601.126	14.37
601.545	14.34
601.965	14.31
602.384	14.28
602.803	14.24
603.222	14.2
603.641	14.17
604.061	14.13
604.48	14.09
604.898	14.04
605.317	14
605.736	13.96
606.155	13.91
606.574	13.86
606.992	13.81
607.411	13.76
607.829	13.67
608.248	13.6
608.666	13.54
609.085	13.48
609.503	13.44
609.921	13.38
610.339	13.32
610.758	13.27
611.176	13.2
611.594	13.15
612.012	13.09
612.43	13.07
612.847	13.03
613.265	12.97
613.683	12.93
614.101	12.88
614.518	12.83
614.936	12.78
615.353	12.73
615.771	12.7
616.188	12.64
616.606	12.61
617.023	12.58
617.44	12.54
617.857	12.52
618.274	12.49
618.691	12.45
619.108	12.41
619.525	12.38
619.942	12.36
620.359	12.33
620.776	12.31
621.192	12.29
621.609	12.26
622.026	12.23
622.442	12.22
622.859	12.19
623.275	12.19
623.691	12.17
624.108	12.16
624.524	12.14
624.94	12.14
625.356	12.13
625.772	12.12
626.188	12.12
626.604	12.11
627.02	12.1
627.436	12.1
627.852	12.09
628.268	12.08
628.683	12.07
629.099	12.06
629.514	12.05
629.93	12.04
630.345	12.01
630.761	11.98
631.176	11.97
631.591	11.95
632.007	11.92
632.422	11.88
632.837	11.84
633.252	11.81
633.667	11.79
634.082	11.75
634.497	11.71
634.911	11.67
635.326	11.63
635.741	11.58
636.155	11.53
636.57	11.49
636.984	11.45
637.399	11.4
637.813	11.35
638.228	11.3
638.642	11.23
639.056	11.17
639.47	11.12
639.884	11.07
640.298	11
640.712	10.95
641.126	10.9
641.54	10.84
641.954	10.78
642.368	10.72
642.781	10.67
643.195	10.62
643.609	10.58
644.022	10.53
644.436	10.5
644.849	10.47
645.262	10.42
645.676	10.38
646.089	10.35
646.502	10.33
646.915	10.32
647.328	10.29
647.741	10.27
648.154	10.24
648.567	10.21
648.98	10.16
649.393	10.15
649.805	10.14
650.218	10.12
650.631	10.11
651.043	10.08
651.456	10.06
651.868	10.03
652.28	10.03
652.693	10.01
653.105	10
653.517	10
653.929	9.99
654.341	9.96
654.753	9.94
655.165	9.93
655.577	9.92
655.989	9.89
656.401	9.89
656.813	9.87
657.224	9.85
657.636	9.82
658.047	9.8
658.459	9.76
658.87	9.75
659.282	9.73
659.693	9.72
660.104	9.68
660.515	9.65
660.926	9.63
661.338	9.6
661.749	9.58
662.159	9.58
662.57	9.57
662.981	9.57
663.392	9.55
663.803	9.54
664.213	9.52
664.624	9.51
665.035	9.51
665.445	9.5
665.855	9.5
666.266	9.5
666.676	9.49
667.086	9.49
667.497	9.48
667.907	9.48
668.317	9.48
668.727	9.48
669.137	9.49
669.547	9.5
669.956	9.51
670.366	9.52
670.776	9.51
671.186	9.53
671.595	9.53
672.005	9.54
672.414	9.56
672.824	9.56
673.233	9.58
673.642	9.6
674.052	9.61
674.461	9.62
674.87	9.63
675.279	9.65
675.688	9.67
676.097	9.68
676.506	9.7
676.915	9.72
677.323	9.74
677.732	9.76
678.141	9.77
678.549	9.8
678.958	9.83
679.366	9.87
679.775	9.89
680.183	9.91
680.592	9.96
681	10
681.408	10.01
681.816	10.05
682.224	10.09
682.632	10.13
683.04	10.16
683.448	10.2
683.856	10.21
684.264	10.26
684.671	10.32
685.079	10.37
685.487	10.42
685.894	10.51
686.302	10.59
686.709	10.68
687.116	10.79
687.524	10.91
687.931	11.06
688.338	11.22
688.745	11.4
689.152	11.59
689.559	11.81
689.966	12.05
690.373	12.3
690.78	12.57
691.187	12.88
691.593	13.2
692	13.54
692.407	13.88
692.813	14.27
693.22	14.66
693.626	15.08
694.032	15.51
694.439	15.97
694.845	16.45
695.251	16.94
695.657	17.43
696.063	17.97
696.469	18.52
696.875	19.08
697.281	19.63
697.687	20.21
698.093	20.78
698.498	21.39
698.904	21.97
699.31	22.59
699.715	23.21
700.12	23.85
700.526	24.47
700.931	25.09
701.337	25.72
701.742	26.36
702.147	26.99
702.552	27.64
702.957	28.24
703.362	28.86
703.767	29.47
704.172	30.07
704.577	30.66
704.981	31.25
705.386	31.84
705.791	32.45
706.195	33.07
706.6	33.69
707.004	34.27
707.408	34.88
707.813	35.53
708.217	36.11
708.621	36.72
709.025	37.31
709.43	37.9
709.834	38.51
710.237	39.08
710.641	39.63
711.045	40.2
711.449	40.77
711.853	41.34
712.256	41.87
712.66	42.44
713.064	42.97
713.467	43.53
713.87	44.09
714.274	44.61
714.677	45.14
715.08	45.7
715.484	46.23
715.887	46.78
716.29	47.29
716.693	47.81
717.096	48.33
717.499	48.85
717.901	49.35
718.304	49.83
718.707	50.33
719.109	50.82
719.512	51.25
719.915	51.71
720.317	52.13
720.719	52.53
721.122	52.93
721.524	53.35
721.926	53.77
722.328	54.17
722.731	54.56
723.133	54.92
723.535	55.3
723.937	55.7
724.338	56.03
724.74	56.36
725.142	56.77
725.544	57.09
725.945	57.42
726.347	57.69
726.748	57.97
727.15	58.27
727.551	58.6
727.952	58.86
728.354	59.12
728.755	59.39
729.156	59.67
729.557	59.87
729.958	60.12
730.359	60.34
730.76	60.6
731.161	60.84
731.562	61.08
731.962	61.25
732.363	61.46
732.763	61.66
733.164	61.85
733.564	62.02
733.965	62.21
734.365	62.39
734.766	62.56
735.166	62.71
735.566	62.88
735.966	63.04
736.366	63.21
736.766	63.35
737.166	63.49
737.566	63.63
737.966	63.77
738.365	63.9
738.765	64.05
739.165	64.19
739.564	64.3
739.964	64.41
740.363	64.5
740.763	64.59
741.162	64.71
741.561	64.79
741.96	64.86
742.36	64.97
742.759	65.05
743.158	65.13
743.557	65.18
743.955	65.3
744.354	65.37
744.753	65.46
745.152	65.56
745.55	65.62
745.949	65.7
746.348	65.83
746.746	65.9
747.144	65.96
747.543	65.99
747.941	66.06
748.339	66.04
748.737	66.08
749.136	66.1
749.534	66.08
749.932	66.12
750.33	66.12
750.727	66.14
751.125	66.16
751.523	66.16
751.921	66.17
752.318	66.22
752.716	66.27
753.113	66.3
753.511	66.35
753.908	66.42
754.305	66.45
754.703	66.45
755.1	66.46
755.497	66.47
755.894	66.51
756.291	66.54
756.688	66.52
757.085	66.53
757.482	66.54
757.878	66.53
758.275	66.52
758.672	66.55
759.068	66.61
759.465	66.63
759.861	66.68
760.258	66.71
760.654	66.75
761.05	66.78
761.447	66.82
761.843	66.82
762.239	66.82
762.635	66.85
763.031	66.86
763.427	66.83
763.822	66.82
764.218	66.83
764.614	66.81
765.01	66.78
765.405	66.8
765.801	66.77
766.196	66.79
766.592	66.79
766.987	66.75
767.382	66.75
767.778	66.78
768.173	66.79
768.568	66.77
768.963	66.76
769.358	66.82
769.753	66.8
770.148	66.82
770.542	66.81
770.937	66.83
771.332	66.85
771.726	66.87
772.121	66.85
772.515	66.87
772.91	66.88
773.304	66.92
773.699	66.88
774.093	66.89
774.487	66.89
774.881	66.93
775.275	66.93
775.669	66.91
776.063	66.86
776.457	66.88
776.851	66.83
777.245	66.77
777.638	66.74
778.032	66.77
778.425	66.79
778.819	66.8
779.212	66.78
779.606	66.8
779.999	66.79
780.392	66.85
780.786	66.85
781.179	66.88
781.572	66.95
781.965	66.99
782.358	66.98
782.751	67
783.143	66.98
783.536	67
783.929	66.98
784.322	66.99
784.714	66.98
785.107	66.98
785.499	66.99
785.891	66.96
786.284	66.95
786.676	66.93
787.068	66.89
787.46	66.91
787.852	66.89
788.245	66.88
788.636	66.86
789.028	66.86
789.42	66.85
789.812	66.85
790.204	66.87
790.595	66.9
790.987	66.92
791.378	66.96
791.77	66.94
792.161	66.97
792.553	66.98
792.944	66.99
793.335	67
793.726	67.04
794.117	67.04
794.508	66.99
794.899	66.96
795.29	66.94
795.681	66.89
796.072	66.91
796.463	66.87
796.853	66.84
797.244	66.85
797.634	66.85
798.025	66.85
798.415	66.83
798.806	66.85
799.196	66.83
799.586	66.86
799.976	66.89
800.366	66.91
800.756	66.95
801.146	66.96
801.536	66.98
801.926	66.95
802.316	66.94
802.706	66.98
803.095	66.99
803.485	67.03
803.874	67
804.264	66.96
804.653	66.97
805.043	66.96
805.432	66.96
805.821	66.97
806.21	67
806.599	66.98
806.988	66.95
807.377	66.94
807.766	66.89
808.155	66.86
808.544	66.87
808.933	66.86
809.321	66.81
809.71	66.79
810.098	66.74
810.487	66.71
810.875	66.71
811.264	66.7
811.652	66.67
812.04	66.64
812.428	66.68
812.816	66.68
813.204	66.64
813.592	66.63
813.98	66.63
814.368	66.63
814.756	66.63
815.144	66.59
815.531	66.56
815.919	66.54
816.306	66.56
816.694	66.53
817.081	66.5
817.469	66.52
817.856	66.49
818.243	66.47
818.63	66.46
819.017	66.43
819.404	66.43
819.791	66.46
820.178	66.5
820.565	66.49
820.952	66.47
821.339	66.47
821.725	66.47
822.112	66.52
822.498	66.52
822.885	66.54
823.271	66.53
823.657	66.49
824.044	66.48
824.43	66.47
824.816	66.47
825.202	66.46
825.588	66.47
825.974	66.44
826.36	66.39
826.746	66.37
827.132	66.35
827.517	66.39
827.903	66.43
828.289	66.46
828.674	66.45
829.06	66.43
829.445	66.42
829.83	66.41
830.216	66.41
830.601	66.42
830.986	66.45
831.371	66.43
831.756	66.41
832.141	66.39
832.526	66.37
832.911	66.34
833.295	66.36
833.68	66.38
834.065	66.4
834.449	66.4
834.834	66.4
835.218	66.39
835.603	66.4
835.987	66.39
836.371	66.37
836.755	66.33
837.139	66.34
837.524	66.35
837.908	66.37
838.291	66.36
838.675	66.37
839.059	66.38
839.443	66.36
839.827	66.35
840.21	66.36
840.594	66.39
840.977	66.4
841.361	66.39
841.744	66.37
842.127	66.36
842.511	66.34
842.894	66.33
843.277	66.31
843.66	66.29
844.043	66.31
844.426	66.3
844.809	66.28
845.191	66.29
845.574	66.3
845.957	66.33
846.339	66.33
846.722	66.35
847.104	66.38
847.487	66.38
847.869	66.4
848.252	66.41
848.634	66.42
849.016	66.44
849.398	66.45
849.78	66.46
850.162	66.44
850.544	66.46
850.926	66.46
851.307	66.46
851.689	66.45
852.071	66.47
852.452	66.48
852.834	66.47
853.215	66.45
853.597	66.45
853.978	66.41
854.359	66.41
854.741	66.4
855.122	66.39
855.503	66.39
855.884	66.39
856.265	66.36
856.646	66.35
857.026	66.4
857.407	66.42
857.788	66.4
858.169	66.44
858.549	66.42
858.93	66.42
859.31	66.43
859.69	66.45
860.071	66.45
860.451	66.45
860.831	66.43
861.211	66.37
861.591	66.36
861.971	66.36
862.351	66.35
862.731	66.37
863.111	66.35
863.491	66.34
863.87	66.3
864.25	66.29
864.629	66.3
865.009	66.32
865.388	66.33
865.768	66.33
866.147	66.33
866.526	66.33
866.905	66.3
867.284	66.32
867.663	66.29
868.042	66.3
868.421	66.3
868.8	66.28
869.179	66.28
869.558	66.27
869.936	66.26
870.315	66.23
870.693	66.22
871.072	66.26
871.45	66.27
871.828	66.28
872.207	66.31
872.585	66.28
872.963	66.31
873.341	66.29
873.719	66.28
874.097	66.3
874.475	66.33
874.853	66.34
875.23	66.32
875.608	66.32
875.986	66.35
876.363	66.33
876.741	66.35
877.118	66.33
877.495	66.35
877.873	66.38
878.25	66.41
878.627	66.42
879.004	66.42
879.381	66.42
879.758	66.42
880.135	66.41
880.512	66.41
880.889	66.42
881.265	66.43
881.642	66.44
882.019	66.44
882.395	66.41
882.772	66.4
883.148	66.38
883.524	66.38
883.901	66.38
884.277	66.37
884.653	66.34
885.029	66.33
885.405	66.33
885.781	66.32
886.157	66.34
886.532	66.35
886.908	66.31
887.284	66.31
887.659	66.31
888.035	66.29
888.411	66.3
888.786	66.33
889.161	66.34
889.537	66.33
889.912	66.34
890.287	66.3
890.662	66.29
891.037	66.34
891.412	66.33
891.787	66.33
892.162	66.33
892.536	66.3
892.911	66.29
893.286	66.28
893.66	66.28
894.035	66.26
894.409	66.26
894.784	66.27
895.158	66.25
895.532	66.27
895.906	66.27
896.281	66.26
896.655	66.25
897.029	66.25
897.402	66.25
897.776	66.25
898.15	66.26
898.524	66.3
898.898	66.28
899.271	66.26
899.645	66.26
900.018	66.26
900.392	66.28
900.765	66.35
901.138	66.35
901.511	66.36
901.884	66.38
902.258	66.43
902.631	66.42
903.003	66.44
903.376	66.47
903.749	66.44
904.122	66.45
904.495	66.46
904.867	66.45
905.24	66.5
905.612	66.53
905.985	66.48
906.357	66.44
906.729	66.45
907.102	66.47
907.474	66.49
907.846	66.52
908.218	66.5
908.59	66.51
908.962	66.51
909.334	66.52
909.705	66.48
910.077	66.52
910.449	66.56
910.82	66.56
911.192	66.55
911.563	66.51
911.935	66.5
912.306	66.5
912.677	66.5
913.048	66.48
913.419	66.42
913.79	66.43
914.161	66.45
914.532	66.41
914.903	66.4
915.274	66.39
915.645	66.42
916.015	66.45
916.386	66.47
916.756	66.46
917.127	66.53
917.497	66.56
917.868	66.59
918.238	66.58
918.608	66.62
918.978	66.59
919.348	66.64
919.718	66.62
920.088	66.61
920.458	66.6
920.828	66.57
921.198	66.5
921.567	66.48
921.937	66.47
922.306	66.41
922.676	66.38
923.045	66.38
923.415	66.31
923.784	66.33
924.153	66.33
924.522	66.36
924.891	66.4
925.26	66.44
925.629	66.46
925.998	66.45
926.367	66.5
926.736	66.51
927.104	66.56
927.473	66.58
927.842	66.55
928.21	66.57
928.578	66.53
928.947	66.52
929.315	66.49
929.683	66.45
930.051	66.4
930.42	66.39
930.788	66.34
931.156	66.27
931.523	66.22
931.891	66.26
932.259	66.26
932.627	66.24
932.994	66.23
933.362	66.21
933.729	66.22
934.097	66.23
934.464	66.2
934.831	66.2
935.199	66.21
935.566	66.24
935.933	66.17
936.3	66.09
936.667	66.08
937.034	66.07
937.401	66.04
937.767	66.02
938.134	66.01
938.501	65.98
938.867	65.96
939.234	65.98
939.6	65.92
939.967	65.93
940.333	65.92
940.699	65.98
941.065	65.87
941.431	65.84
941.798	65.77
942.163	65.78
942.529	65.79
942.895	65.85
943.261	65.77
943.627	65.79
943.992	65.76
944.358	65.69
944.723	65.62
945.089	65.57
945.454	65.6
945.82	65.66
946.185	65.6
946.55	65.54
946.915	65.52
947.28	65.48
947.645	65.49
948.01	65.51
948.375	65.57
948.74	65.51
949.104	65.64
949.469	65.64
949.834	65.56
950.198	65.53
950.562	65.54
950.927	65.53
951.291	65.47
951.655	65.36
952.02	65.38
952.384	65.32
952.748	65.33
953.112	65.24
953.476	65.19
953.839	65.15
954.203	65.16
954.567	65.11
954.931	65.09
955.294	65.09
955.658	65.19
956.021	65.09
956.385	65.09
956.748	65.03
957.111	65
957.474	65
957.837	64.96
958.2	64.93
958.563	64.95
958.926	64.93
959.289	64.99
959.652	64.93
960.015	64.94
960.377	64.94
960.74	64.98
961.102	64.97
961.465	65
961.827	65.07
962.189	65.18
962.552	65.18
962.914	65.16
963.276	65.16
963.638	65.16
964	65.15
964.362	65.17
964.724	65.16
965.085	65.21
965.447	65.2
965.809	65.2
966.17	65.07
966.532	65.04
966.893	65.04
967.255	65.05
967.616	65.04
967.977	65.12
968.338	65.14
968.699	65.19
969.061	65.16
969.421	65.17
969.782	65.18
970.143	65.23
970.504	65.25
970.865	65.32
971.225	65.27
971.586	65.26
971.946	65.22
972.307	65.22
972.667	65.23
973.027	65.24
973.388	65.22
973.748	65.28
974.108	65.33
974.468	65.33
974.828	65.31
975.188	65.36
975.548	65.42
975.907	65.49
976.267	65.49
976.627	65.43
976.986	65.4
977.346	65.37
977.705	65.27
978.064	65.28
978.424	65.31
978.783	65.33
979.142	65.32
979.501	65.31
979.86	65.31
980.219	65.29
980.578	65.35
980.937	65.46
981.296	65.44
981.654	65.48
982.013	65.45
982.371	65.37
982.73	65.3
983.088	65.23
983.447	65.21
983.805	65.14
984.163	65.09
984.521	65.03
984.879	64.94
985.237	64.98
985.595	64.95
985.953	64.97
986.311	65.02
986.669	64.94
987.026	65.04
987.384	64.98
987.741	64.94
988.099	64.98
988.456	64.97
988.814	64.97
989.171	64.95
989.528	65.01
989.885	65.01
990.242	64.91
990.599	65.02
990.956	64.98
991.313	65
991.67	65.04
992.027	65.1
992.383	65.15
992.74	65.15
993.096	65.1
993.453	65.03
993.809	64.96
994.165	65.02
994.522	65.04
994.878	65.02
995.234	65.04
995.59	65.02
995.946	65.01
996.302	65.06
996.658	65.09
997.013	65.13
997.369	65.1
997.725	65.12
998.08	65.22
998.436	65.2
998.791	65.28
999.147	65.3
999.502	65.28
999.857	65.3
1000.212	65.14
1000.567	65.26
1000.922	65.34
1001.277	65.48
1001.632	65.46
1001.987	65.45
1002.342	65.5
1002.696	65.41
1003.051	65.5
1003.406	65.68
1003.76	65.55
1004.114	65.56
1004.469	65.5
1004.823	65.69
1005.177	65.63
1005.531	65.75
1005.885	65.57
1006.239	65.5
1006.593	65.66
1006.947	65.68
1007.301	65.64
1007.655	65.73
1008.008	65.99
1008.362	66.03
1008.715	65.87
1009.069	66.02
1009.422	65.89
1009.776	66.01
1010.129	66.03
1010.482	66.1
1010.835	66.09
1011.188	66.12
1011.541	66.15
1011.894	66.01
1012.247	65.97
1012.6	65.97
1012.952	65.87
1013.305	65.93
1013.657	66.11
1014.01	66.05
1014.362	65.94
1014.715	65.88
1015.067	65.85
1015.419	65.78
1015.771	65.68
1016.123	65.69
1016.475	65.64
1016.827	65.56
1017.179	65.5
1017.531	65.39
1017.883	65.39
1018.234	65.45
1018.586	65.53
1018.938	65.58
1019.289	65.55
1019.64	65.47
1019.992	65.38
1020.343	65.42
1020.694	65.5
1021.045	65.47
1021.396	65.66
1021.747	65.83
1022.098	65.72
1022.449	65.66
1022.8	65.65
1023.151	65.8
1023.501	65.92
1023.852	66.02
1024.202	65.78
1024.553	65.53
1024.903	65.51
1025.253	65.56
1025.604	65.53
1025.954	65.39
1026.304	65.51
1026.654	65.43
1027.004	65.32
1027.354	65.22
1027.703	65.02
1028.053	65.31
1028.403	65.78
1028.753	65.83
1029.102	65.73
1029.452	65.8
1029.801	66
1030.15	65.8
1030.499	65.76
897.758	347.15
901.051	349.05
904.343	348.83
907.636	355.21
910.928	347.11
914.22	347.93
917.511	344.25
920.803	331.92
924.094	327.35
927.384	321.13
930.675	310.33
933.965	310.61
937.255	295.93
940.544	286.8
943.834	273.25
947.123	271.21
950.411	259.32
953.7	254.65
956.988	245.61
960.276	241.16
963.563	236.34
966.851	231.87
970.138	229.7
973.424	225.24
976.711	224.71
979.997	217.92
983.283	216.81
986.568	212.92
989.853	209.11
993.138	204.67
996.423	196.76
999.708	194.59
1002.992	191.61
1006.275	185.15
1009.559	182.27
1012.842	179.13
1016.125	175.77
1019.408	173.45
1022.69	171.48
1025.972	167.7
1029.254	165.31
1032.536	164.42
1035.817	161.01
1039.098	159.8
1042.379	157.64
1045.659	156.89
1048.939	153.55
1052.219	152.28
1055.498	150.36
1058.778	148.21
1062.057	146.25
1065.335	145.36
1068.614	143.71
1071.892	143.07
1075.17	141.04
1078.447	139.36
1081.724	138.64
1085.001	138.41
1088.278	135.53
1091.554	133.8
1094.83	134.13
1098.106	133.75
1101.382	133.04
1104.657	132.31
1107.932	130.6
1111.206	130.53
1114.481	128.62
1117.755	129.09
1121.029	127.36
1124.302	127.78
1127.575	126.03
1130.848	124.71
1134.121	123.66
1137.393	122.66
1140.665	120.89
1143.937	120.75
1147.208	120.01
1150.48	119.11
1153.75	117.53
1157.021	116.89
1160.291	116.11
1163.561	115.19
1166.831	115.14
1170.101	114.33
1173.37	115.33
1176.639	115.85
1179.907	114.53
1183.176	114.38
1186.444	114.27
1189.711	113.06
1192.979	113.13
1196.246	112.6
1199.513	114.15
1202.78	113.36
1206.046	113.2
1209.312	110.81
1212.578	110.52
1215.843	111.61
1219.108	110.9
1222.373	112.58
1225.638	113.68
1228.902	113.85
1232.166	115.43
1235.43	114.59
1238.693	115.64
1241.956	116.52
1245.219	118.21
1248.482	119.46
1251.744	118.64
1255.006	118.99
1258.268	117.77
1261.529	117.2
1264.79	116.84
1268.051	115.37
1271.312	114.63
1274.572	113.62
1277.832	113.03
1281.092	111.68
1284.351	110.38
1287.61	110.94
1290.869	109.6
1294.128	108.35
1297.386	108.32
1300.644	107.66
1303.902	107.39
1307.159	107.51
1310.416	107.49
1313.673	106.56
1316.93	107.56
1320.186	107.45
1323.442	107.2
1326.697	107.28
1329.953	107.9
1333.208	107.29
1336.463	107.87
1339.717	108.39
1342.972	108.19
1346.226	108.66
1349.479	109.3
1352.733	109.11
1355.986	109.98
1359.238	109.56
1362.491	109.66
1365.743	108.9
1368.995	109.16
1372.247	108.57
1375.498	107.7
1378.749	107.72
1382	104.64
1385.251	104.07
1388.501	102.23
1391.751	99.72
1395	99.3
1398.25	98.09
1401.499	95.93
1404.748	94.85
1407.996	91.82
1411.244	91.15
1414.492	89.3
1417.74	88.13
1420.987	86.44
1424.234	85.74
1427.481	84.31
1430.728	83.03
1433.974	82.46
1437.22	82.01
1440.465	81.85
1443.711	81.17
1446.956	80.11
1450.201	79.8
1453.445	80.06
1456.689	79.7
1459.933	78.34
1463.177	78.13
1466.42	77.52
1469.663	76.75
1472.906	76.31
1476.148	75.31
1479.391	75.24
1482.633	75.33
1485.874	74.88
1489.115	74.2
1492.356	74.59
1495.597	74.41
1498.838	74.63
1502.078	74.54
1505.318	74.85
1508.557	75.28
1511.797	75.13
1515.036	75.03
1518.274	75.52
1521.513	76.2
1524.751	75.84
1527.989	75.79
1531.227	76.61
1534.464	76.7
1537.701	76.07
1540.938	76.04
1544.174	76.23
1547.41	76.51
1550.646	76.46
1553.882	76.3
1557.117	75.9
1560.352	76.54
1563.587	76.97
1566.821	76.77
1570.055	76.28
1573.289	76.85
1576.523	77.24
1579.756	76.72
1582.989	76.93
1586.222	77.33
1589.454	77.06
1592.686	77.75
1595.918	77.37
1599.15	77.18
1602.381	77.27
1605.612	77.83
1608.843	78.08
1612.073	77.97
1615.303	78.18
1618.533	78.27
1621.762	78.24
1624.992	79.05
1628.221	78.72
1631.449	78.79
1634.678	79.15
1637.906	79.34
1641.134	79.37
1644.361	79.27
1647.588	79.42
1650.815	79.59
1654.042	79.77
1657.269	80.26
1660.495	80.14
1663.72	79.9
1666.946	79.97
1670.171	79.69
1673.396	79.98
1676.621	80.16
1679.845	79.62
1683.069	80.3
1686.293	80.13
1689.517	80.1
1692.74	79.99
1695.963	79.8
1699.185	80.04
1702.408	80.11
1705.63	80.29
1708.852	79.96
1712.073	79.74
1715.294	80.37
1718.515	79.81
1721.736	79.9
1724.956	79.85
1728.176	79.6
1731.396	79.82
1734.616	79.48
1737.835	79.92
1741.054	79.39
1744.272	79.39
1747.491	79.73
1750.709	79.72
1753.927	79.33
1757.144	79.18
1760.361	78.81
1763.578	78.95
1766.795	78.72
1770.011	79.29
1773.227	78.75
1776.443	79.02
1779.658	78.86
1782.874	78.82
1786.089	78.49
1789.303	78.84
1792.518	78.84
1795.732	79.18
1798.945	79.2
1802.159	79.64
1805.372	79.6
1808.585	80.16
1811.797	80.26
1815.01	80.87
1818.222	80.89
1821.434	81.8
1824.645	81.64
1827.856	83.04
1831.067	82.87
1834.278	83.3
1837.488	83.38
1840.698	83.56
1843.908	83.29
1847.117	83.5
1850.326	83.47
1853.535	81.83
1856.744	82.07
1859.952	81.13
1863.16	79.6
1866.368	78.35
1869.575	76.87
1872.782	74.45
1875.989	72.59
1879.196	71.52
1882.402	68.96
1885.608	68.31
1888.814	68.09
1892.019	65.22
1895.224	64.17
1898.429	64
1901.634	63.58
1904.838	62.96
1908.042	63
1911.246	62.49
1914.449	62.28
1917.652	62.24
1920.855	62.06
1924.058	61.6
1927.26	62.2
1930.462	61.63
1933.664	61.79
1936.865	61.78
1940.066	61.46
1943.267	60.73
1946.467	61.15
1949.668	61.16
1952.868	62.41
1956.067	62.39
1959.267	61.98
1962.466	62.31
1965.665	62.89
1968.863	63.16
1972.061	62.94
1975.259	63.54
1978.457	64.8
1981.654	65.55
1984.852	65.97
1988.048	65.76
1991.245	66.18
1994.441	67.29
1997.637	68.08
2000.833	69.41
2004.028	69.87
2007.223	71.37
2010.418	72.39
2013.613	73.45
2016.807	74.45
2020.001	75.41
2023.194	77.04
2026.388	79
2029.581	80.26
2032.774	80.99
2035.966	82.58
2039.158	83.24
2042.35	84.23
2045.542	84.39
2048.733	85.86
2051.924	86.13
2055.115	87.73
2058.306	87.8
2061.496	88.46
2064.686	89.62
2067.875	91.15
2071.065	91.91
2074.254	91.13
2077.442	93.19
2080.631	93.47
2083.819	94.39
2087.007	95.85
2090.195	96.61
2093.382	97.38
2096.569	97.35
2099.756	99.4
2102.942	99.39
2106.128	99.86
2109.314	103.54
2112.5	102.84
2115.685	105.48
2118.87	105.82
2122.055	107.66
2125.239	108.25
2128.424	109.44
2131.608	110.4
2134.791	111.2
2137.974	111.77
2141.157	111.45
2144.34	110.59
2147.523	111.45
2150.705	111.45
2153.887	113.64
2157.068	113.88
2160.25	113.28
2163.431	114.49
2166.611	115.13
2169.792	116.31
2172.972	117.57
2176.152	119.41
2179.331	120.06
2182.511	123.49
2185.69	123.19
2188.868	123.79
2192.047	125.1
2195.225	128.44
2198.403	130.07
2201.58	132.03
2204.758	135.35
2207.935	137.76
2211.111	139.41
2214.288	141.44
2217.464	140.38
2220.64	143.46
2223.815	144.11
2226.991	147.42
2230.166	147.48
2233.34	148.81
2236.515	151.28
2239.689	152.04
2242.863	152.05
2246.036	156.61
2249.209	155.14
2252.382	156.68
2255.555	160
2258.727	161.86
2261.9	165.08
2265.071	167.07
2268.243	170.76
2271.414	172.67
2274.585	175.53
2277.756	178.35
2280.926	178.58
2284.096	183.41
2287.266	188.79
2290.436	189.01
2293.605	193.47
2296.774	196.44
2299.942	200.05
2303.111	202.57
2306.279	205.79
2309.447	206.8
2312.614	210.82
2315.781	216.25
2318.948	223.83
2322.115	220.92
2325.281	235.18
2328.447	230.33
2331.613	237.13
2334.779	237.53
2337.944	244.28
2341.109	247.14
2344.274	255.05
2347.438	263.67
2350.602	262.19
2353.766	273.51
2356.929	277.5
2360.092	273.89
2363.255	290.72
2366.418	293.04
2369.58	295.84
2372.742	314.71
2375.904	323.78
2379.066	321.46
2382.227	318.75
2385.388	342.15
2388.548	341.85
2391.709	342.57
2394.869	381.66
2398.029	367.53
2401.188	374.36
2404.347	373.96
2407.506	366.75
2410.665	373.73
2413.823	394.93
2416.981	414.39
2420.139	408.36
2423.296	401.56
2426.453	422.04
2429.61	415.3
2432.767	430.95
2435.923	428.99
2439.079	468.93
2442.235	475.84
2445.391	474.66
2448.546	468.76
2451.701	455.73
2454.855	454
2458.009	479.63
2461.163	499.09
2464.317	505.42
2467.471	522.52
2470.624	523.12
2473.777	512.44
2476.929	499.06
2480.082	485.38
2483.234	486.09
2486.385	514.05
2489.537	517.62
2492.688	538.25
2495.839	522.33
2498.989	512.76
2502.14	512.16
2505.29	517.18
2508.439	519.49
2511.589	520.29
2514.738	558.19
2517.887	546.84
2521.035	569.39
2524.183	576.28
2527.331	579.2
2530.479	576.24
2533.627	578.54
