Data from N_1_DEC_NC_4n_Splice17_12-17-17-651.txt Node
Date: Sat Mar 07 12:17:17 EST 2020
User: sa697716
Spectrometer: NQ5500242
Trigger mode: 0
Integration Time (sec): 1.450000E-1
Scans to average: 20
Nonlinearity correction enabled: false
Boxcar width: 5
Storing dark spectrum: false
XAxis mode: Wavelengths
Number of Pixels in Spectrum: 512
>>>>>Begin Spectral Data<<<<<
187.83	123.12
188.298	140.95
188.766	113.4
189.233	109.28
189.701	119.87
190.169	135.55
190.636	127.43
191.104	69.85
191.571	-283.57
192.039	-112.01
192.506	-289.3
192.974	110.94
193.441	262.73
193.908	61.62
194.375	82.71
194.842	42.86
195.31	37.71
195.777	-36.58
196.244	9.25
196.711	19.9
197.177	23.75
197.644	23.71
198.111	23.94
198.578	24.42
199.045	24.97
199.511	25.19
199.978	25.32
200.445	25.7
200.911	25.64
201.378	26.01
201.844	26.07
202.31	25.66
202.777	25.96
203.243	25.87
203.709	25.67
204.176	25.49
204.642	25.37
205.108	25.5
205.574	25.25
206.04	24.66
206.506	24.33
206.972	24.25
207.438	24.39
207.903	23.81
208.369	23.29
208.835	22.82
209.301	22.25
209.766	21.39
210.232	20.8
210.697	20.43
211.163	20.4
211.628	19.69
212.094	19.12
212.559	18.81
213.024	18.3
213.49	17.99
213.955	17.61
214.42	17.17
214.885	16.78
215.35	16.16
215.815	15.26
216.28	14.05
216.745	12.96
217.21	11.88
217.675	10.68
218.14	9.83
218.604	9.1
219.069	8.38
219.534	7.83
219.998	7.39
220.463	6.99
220.927	6.61
221.392	6.38
221.856	6.17
222.32	5.97
222.785	5.85
223.249	5.7
223.713	5.55
224.177	5.46
224.642	5.38
225.106	5.25
225.57	5.15
226.034	5.08
226.497	4.99
226.961	4.91
227.425	4.81
227.889	4.72
228.353	4.65
228.816	4.57
229.28	4.49
229.744	4.41
230.207	4.35
230.671	4.29
231.134	4.22
231.597	4.17
232.061	4.12
232.524	4.07
232.987	4.03
233.45	4
233.914	3.95
234.377	3.9
234.84	3.85
235.303	3.82
235.766	3.78
236.229	3.75
236.691	3.71
237.154	3.67
237.617	3.64
238.08	3.6
238.542	3.56
239.005	3.53
239.468	3.51
239.93	3.48
240.393	3.45
240.855	3.4
241.317	3.36
241.78	3.33
242.242	3.3
242.704	3.28
243.166	3.24
243.629	3.22
244.091	3.19
244.553	3.16
245.015	3.13
245.477	3.11
245.939	3.09
246.4	3.06
246.862	3.03
247.324	3.01
247.786	2.98
248.247	2.96
248.709	2.92
249.17	2.9
249.632	2.88
250.093	2.86
250.555	2.84
251.016	2.83
251.477	2.8
251.939	2.79
252.4	2.77
252.861	2.76
253.322	2.75
253.783	2.74
254.244	2.73
254.705	2.71
255.166	2.69
255.627	2.68
256.088	2.66
256.549	2.65
257.009	2.63
257.47	2.62
257.931	2.59
258.391	2.57
258.852	2.55
259.312	2.53
259.773	2.52
260.233	2.51
260.694	2.5
261.154	2.48
261.614	2.47
262.074	2.45
262.534	2.43
262.994	2.42
263.455	2.41
263.915	2.4
264.374	2.39
264.834	2.38
265.294	2.36
265.754	2.36
266.214	2.35
266.673	2.34
267.133	2.33
267.593	2.33
268.052	2.33
268.512	2.33
268.971	2.32
269.431	2.32
269.89	2.31
270.349	2.3
270.809	2.29
271.268	2.29
271.727	2.28
272.186	2.28
272.645	2.27
273.104	2.27
273.563	2.26
274.022	2.25
274.481	2.25
274.94	2.25
275.399	2.24
275.857	2.23
276.316	2.23
276.775	2.22
277.233	2.22
277.692	2.21
278.15	2.2
278.609	2.2
279.067	2.19
279.525	2.19
279.984	2.18
280.442	2.17
280.9	2.17
281.358	2.17
281.816	2.17
282.274	2.17
282.732	2.17
283.19	2.16
283.648	2.16
284.106	2.15
284.564	2.14
285.021	2.15
285.479	2.15
285.937	2.14
286.394	2.14
286.852	2.14
287.309	2.14
287.767	2.13
288.224	2.12
288.682	2.11
289.139	2.11
289.596	2.1
290.053	2.09
290.511	2.08
290.968	2.07
291.425	2.06
291.882	2.05
292.339	2.04
292.796	2.03
293.252	2.03
293.709	2.02
294.166	2.02
294.623	2.02
295.079	2.01
295.536	2.01
295.992	2
296.449	2
296.905	2
297.362	1.99
297.818	1.99
298.274	1.99
298.731	1.98
299.187	1.97
299.643	1.96
300.099	1.96
300.555	1.96
301.011	1.95
301.467	1.95
301.923	1.94
302.379	1.94
302.835	1.94
303.291	1.94
303.746	1.94
304.202	1.95
304.658	1.95
305.113	1.94
305.569	1.94
306.024	1.94
306.479	1.93
306.935	1.93
307.39	1.93
307.845	1.93
308.301	1.93
308.756	1.92
309.211	1.91
309.666	1.92
310.121	1.92
310.576	1.92
311.031	1.92
311.486	1.92
311.94	1.92
312.395	1.92
312.85	1.92
313.305	1.91
313.759	1.91
314.214	1.91
314.668	1.9
315.123	1.91
315.577	1.9
316.032	1.9
316.486	1.9
316.94	1.91
317.394	1.91
317.849	1.9
318.303	1.9
318.757	1.9
319.211	1.89
319.665	1.89
320.119	1.88
320.572	1.88
321.026	1.88
321.48	1.87
321.934	1.86
322.387	1.86
322.841	1.86
323.295	1.86
323.748	1.86
324.202	1.85
324.655	1.86
325.108	1.85
325.562	1.86
326.015	1.85
326.468	1.85
326.921	1.85
327.374	1.85
327.827	1.85
328.28	1.84
328.733	1.84
329.186	1.84
329.639	1.84
330.092	1.84
330.545	1.83
330.997	1.83
331.45	1.83
331.903	1.83
332.355	1.84
332.808	1.84
333.26	1.83
333.713	1.83
334.165	1.82
334.617	1.83
335.069	1.83
335.522	1.83
335.974	1.83
336.426	1.82
336.878	1.82
337.33	1.81
337.782	1.81
338.234	1.81
338.686	1.82
339.137	1.82
339.589	1.81
340.041	1.82
340.493	1.81
340.944	1.81
341.396	1.81
341.847	1.81
342.299	1.81
342.75	1.81
343.201	1.81
343.653	1.81
344.104	1.79
344.555	1.79
345.006	1.78
345.457	1.78
345.908	1.78
346.359	1.78
346.81	1.78
347.261	1.78
347.712	1.77
348.163	1.76
348.613	1.76
349.064	1.77
349.515	1.77
349.965	1.77
350.416	1.76
350.866	1.76
351.317	1.75
351.767	1.75
352.217	1.75
352.668	1.75
353.118	1.75
353.568	1.75
354.018	1.75
354.468	1.75
354.918	1.75
355.368	1.76
355.818	1.76
356.268	1.75
356.718	1.75
357.168	1.75
357.617	1.76
358.067	1.75
358.517	1.76
358.966	1.76
359.416	1.76
359.865	1.77
360.315	1.77
360.764	1.78
361.213	1.77
361.663	1.78
362.112	1.79
362.561	1.8
363.01	1.8
363.459	1.79
363.908	1.8
364.357	1.8
364.806	1.8
365.255	1.8
365.703	1.8
366.152	1.81
366.601	1.81
367.05	1.81
367.498	1.81
367.947	1.82
368.395	1.83
368.844	1.83
369.292	1.83
369.74	1.84
370.189	1.84
370.637	1.84
371.085	1.85
371.533	1.85
371.981	1.85
372.429	1.86
372.877	1.86
373.325	1.86
373.773	1.87
374.221	1.88
374.669	1.89
375.116	1.88
375.564	1.89
376.012	1.89
376.459	1.9
376.907	1.91
377.354	1.91
377.801	1.93
378.249	1.93
378.696	1.94
379.143	1.95
379.591	1.97
380.038	1.98
380.485	1.99
380.932	2.01
381.379	2.03
381.826	2.04
382.273	2.07
382.72	2.09
383.166	2.11
383.613	2.13
384.06	2.15
384.506	2.16
384.953	2.19
385.4	2.21
385.846	2.24
386.292	2.26
386.739	2.29
387.185	2.3
387.631	2.33
388.078	2.36
388.524	2.39
388.97	2.42
389.416	2.46
389.862	2.48
390.308	2.51
390.754	2.55
391.2	2.58
391.645	2.6
392.091	2.64
392.537	2.68
392.983	2.7
393.428	2.73
393.874	2.77
394.319	2.81
394.765	2.84
395.21	2.87
395.655	2.9
396.101	2.94
396.546	2.97
396.991	3.01
397.436	3.04
397.881	3.08
398.326	3.12
398.771	3.14
399.216	3.17
399.661	3.2
400.106	3.23
400.551	3.26
400.995	3.28
401.44	3.31
401.885	3.33
402.329	3.35
402.774	3.36
403.218	3.4
403.663	3.43
404.107	3.44
404.551	3.46
404.995	3.47
405.44	3.48
405.884	3.5
406.328	3.51
406.772	3.52
407.216	3.53
407.66	3.53
408.104	3.54
408.547	3.55
408.991	3.56
409.435	3.58
409.879	3.6
410.322	3.61
410.766	3.62
411.209	3.64
411.653	3.66
412.096	3.67
412.54	3.69
412.983	3.69
413.426	3.73
413.869	3.74
414.312	3.75
414.756	3.77
415.199	3.77
415.642	3.78
416.085	3.78
416.527	3.78
416.97	3.78
417.413	3.78
417.856	3.78
418.298	3.76
418.741	3.76
419.184	3.75
419.626	3.75
420.069	3.76
420.511	3.76
420.953	3.78
421.396	3.78
421.838	3.79
422.28	3.79
422.722	3.8
423.164	3.8
423.606	3.8
424.048	3.8
424.49	3.8
424.932	3.79
425.374	3.78
425.816	3.76
426.258	3.75
426.699	3.75
427.141	3.74
427.582	3.73
428.024	3.74
428.465	3.74
428.907	3.73
429.348	3.72
429.789	3.72
430.231	3.72
430.672	3.72
431.113	3.74
431.554	3.74
431.995	3.74
432.436	3.75
432.877	3.75
433.318	3.77
433.759	3.8
434.2	3.83
434.64	3.85
435.081	3.86
435.522	3.88
435.962	3.89
436.403	3.92
436.843	3.94
437.284	3.95
437.724	3.96
438.164	3.95
438.604	3.96
439.045	3.97
439.485	3.99
439.925	4.02
440.365	4.03
440.805	4.05
441.245	4.08
441.685	4.11
442.125	4.15
442.564	4.19
443.004	4.23
443.444	4.25
443.883	4.28
444.323	4.31
444.762	4.34
445.202	4.37
445.641	4.4
446.081	4.43
446.52	4.45
446.959	4.49
447.398	4.52
447.837	4.56
448.276	4.6
448.716	4.64
449.154	4.68
449.593	4.71
450.032	4.73
450.471	4.75
450.91	4.78
451.349	4.8
451.787	4.81
452.226	4.82
452.664	4.83
453.103	4.83
453.541	4.84
453.98	4.86
454.418	4.85
454.856	4.87
455.295	4.87
455.733	4.86
456.171	4.87
456.609	4.87
457.047	4.87
457.485	4.86
457.923	4.86
458.361	4.86
458.798	4.85
459.236	4.85
459.674	4.84
460.111	4.84
460.549	4.85
460.987	4.85
461.424	4.86
461.862	4.87
462.299	4.89
462.736	4.89
463.173	4.89
463.611	4.89
464.048	4.91
464.485	4.93
464.922	4.93
465.359	4.93
465.796	4.93
466.233	4.92
466.67	4.92
467.106	4.92
467.543	4.93
467.98	4.93
468.416	4.93
468.853	4.92
469.29	4.92
469.726	4.92
470.162	4.92
470.599	4.92
471.035	4.92
471.471	4.93
471.907	4.92
472.344	4.93
472.78	4.94
473.216	4.95
473.652	4.98
474.088	4.98
474.523	5
474.959	5.01
475.395	5.02
475.831	5.03
476.266	5.04
476.702	5.04
477.138	5.06
477.573	5.06
478.008	5.07
478.444	5.07
478.879	5.08
479.314	5.07
479.75	5.07
480.185	5.07
480.62	5.08
481.055	5.08
481.49	5.08
481.925	5.07
482.36	5.07
482.795	5.08
483.229	5.07
483.664	5.09
484.099	5.1
484.534	5.11
484.968	5.14
485.403	5.16
485.837	5.18
486.271	5.21
486.706	5.24
487.14	5.27
487.574	5.31
488.009	5.35
488.443	5.38
488.877	5.42
489.311	5.47
489.745	5.51
490.179	5.56
490.613	5.61
491.046	5.66
491.48	5.71
491.914	5.77
492.348	5.82
492.781	5.89
493.215	5.95
493.648	6.01
494.082	6.08
494.515	6.14
494.948	6.21
495.382	6.29
495.815	6.37
496.248	6.45
496.681	6.54
497.114	6.64
497.547	6.73
497.98	6.82
498.413	6.93
498.846	7.03
499.279	7.14
499.711	7.24
500.144	7.36
500.577	7.47
501.009	7.59
501.442	7.7
501.874	7.83
502.306	7.95
502.739	8.09
503.171	8.22
503.603	8.35
504.036	8.5
504.468	8.64
504.9	8.77
505.332	8.92
505.764	9.07
506.196	9.23
506.627	9.39
507.059	9.56
507.491	9.71
507.923	9.88
508.354	10.07
508.786	10.24
509.217	10.42
509.649	10.6
510.08	10.79
510.512	10.97
510.943	11.15
511.374	11.33
511.805	11.51
512.237	11.71
512.668	11.89
513.099	12.07
513.53	12.26
513.961	12.45
514.391	12.64
514.822	12.83
515.253	13.02
515.684	13.22
516.114	13.42
516.545	13.61
516.975	13.81
517.406	14
517.836	14.19
518.267	14.38
518.697	14.55
519.127	14.72
519.558	14.91
519.988	15.09
520.418	15.26
520.848	15.42
521.278	15.58
521.708	15.89
522.138	16.04
522.567	16.19
522.997	16.34
523.427	16.49
523.857	16.63
524.286	16.75
524.716	16.87
525.145	16.99
525.575	17.11
526.004	17.23
526.433	17.18
526.863	17.3
527.292	17.41
527.721	17.5
528.15	17.59
528.579	17.67
529.008	17.77
529.437	17.85
529.866	17.92
530.295	18
530.724	18.07
531.152	18.14
531.581	18.2
532.01	18.25
532.438	18.32
532.867	18.37
533.295	18.44
533.723	18.49
534.152	18.52
534.58	18.58
535.008	18.61
535.436	18.65
535.865	18.69
536.293	18.72
536.721	18.73
537.149	18.75
537.576	18.78
538.004	18.81
538.432	18.84
538.86	18.87
539.287	18.89
539.715	18.92
540.143	18.95
540.57	18.97
540.998	19
541.425	19.04
541.852	19.06
542.28	19.09
542.707	19.11
543.134	19.14
543.561	19.18
543.988	19.2
544.415	19.21
544.842	19.21
545.269	19.24
545.696	19.25
546.123	19.27
546.549	19.27
546.976	19.28
547.403	19.28
547.829	19.28
548.256	19.27
548.682	19.29
549.108	19.3
549.535	19.32
549.961	19.31
550.387	19.32
550.813	19.31
551.24	19.31
551.666	19.31
552.092	19.31
552.518	19.33
552.943	19.3
553.369	19.29
553.795	19.26
554.221	19.24
554.646	19.21
555.072	19.19
555.498	19.16
555.923	19.14
556.349	19.12
556.774	19.08
557.199	19.03
557.625	19
558.05	18.96
558.475	18.93
558.9	18.91
559.325	18.88
559.75	18.84
560.175	18.8
560.6	18.75
561.025	18.7
561.449	18.66
561.874	18.62
562.299	18.58
562.723	18.51
563.148	18.45
563.572	18.37
563.997	18.32
564.421	18.24
564.846	18.17
565.27	18.1
565.694	18.04
566.118	17.97
566.542	17.89
566.966	17.8
567.39	17.73
567.814	17.67
568.238	17.6
568.662	17.53
569.086	17.46
569.509	17.39
569.933	17.34
570.357	17.27
570.78	17.2
571.204	17.12
571.627	17.06
572.05	16.98
572.474	16.93
572.897	16.86
573.32	16.79
573.743	16.72
574.166	16.67
574.589	16.59
575.012	16.52
575.435	16.46
575.858	16.4
576.281	16.34
576.704	16.29
577.126	16.23
577.549	16.16
577.972	16.1
578.394	16.06
578.817	16
579.239	15.94
579.661	15.89
580.084	15.84
580.506	15.79
580.928	15.74
581.35	15.69
581.772	15.63
582.194	15.58
582.616	15.53
583.038	15.48
583.46	15.44
583.882	15.39
584.303	15.35
584.725	15.31
585.147	15.26
585.568	15.21
585.99	15.17
586.411	15.13
586.833	15.09
587.254	15.05
587.675	15.02
588.096	14.97
588.518	14.92
588.939	14.89
589.36	14.85
589.781	14.83
590.202	14.8
590.623	14.78
591.043	14.74
591.464	14.72
591.885	14.68
592.305	14.66
592.726	14.65
593.147	14.63
593.567	14.61
593.987	14.6
594.408	14.57
594.828	14.54
595.248	14.53
595.669	14.51
596.089	14.5
596.509	14.47
596.929	14.45
597.349	14.42
597.769	14.39
598.189	14.36
598.608	14.33
599.028	14.3
599.448	14.27
599.867	14.24
600.287	14.21
600.706	14.17
601.126	14.16
601.545	14.13
601.965	14.11
602.384	14.1
602.803	14.07
603.222	14.05
603.641	14.01
604.061	13.98
604.48	13.96
604.898	13.91
605.317	13.88
605.736	13.84
606.155	13.8
606.574	13.75
606.992	13.7
607.411	13.66
607.829	13.58
608.248	13.53
608.666	13.49
609.085	13.43
609.503	13.4
609.921	13.35
610.339	13.3
610.758	13.26
611.176	13.22
611.594	13.18
612.012	13.13
612.43	13.1
612.847	13.06
613.265	13.01
613.683	12.98
614.101	12.94
614.518	12.89
614.936	12.84
615.353	12.78
615.771	12.73
616.188	12.68
616.606	12.64
617.023	12.6
617.44	12.56
617.857	12.52
618.274	12.48
618.691	12.44
619.108	12.4
619.525	12.37
619.942	12.34
620.359	12.32
620.776	12.29
621.192	12.27
621.609	12.26
622.026	12.24
622.442	12.23
622.859	12.21
623.275	12.19
623.691	12.18
624.108	12.18
624.524	12.18
624.94	12.18
625.356	12.17
625.772	12.16
626.188	12.15
626.604	12.14
627.02	12.13
627.436	12.13
627.852	12.13
628.268	12.12
628.683	12.1
629.099	12.09
629.514	12.08
629.93	12.07
630.345	12.06
630.761	12.02
631.176	12
631.591	11.97
632.007	11.94
632.422	11.9
632.837	11.86
633.252	11.81
633.667	11.75
634.082	11.68
634.497	11.61
634.911	11.54
635.326	11.48
635.741	11.39
636.155	11.31
636.57	11.22
636.984	11.14
637.399	11.05
637.813	10.95
638.228	10.85
638.642	10.75
639.056	10.64
639.47	10.55
639.884	10.44
640.298	10.34
640.712	10.22
641.126	10.11
641.54	9.99
641.954	9.87
642.368	9.75
642.781	9.64
643.195	9.54
643.609	9.44
644.022	9.33
644.436	9.24
644.849	9.15
645.262	9.06
645.676	8.97
646.089	8.9
646.502	8.84
646.915	8.78
647.328	8.72
647.741	8.65
648.154	8.59
648.567	8.54
648.98	8.49
649.393	8.44
649.805	8.41
650.218	8.36
650.631	8.32
651.043	8.28
651.456	8.25
651.868	8.21
652.28	8.17
652.693	8.14
653.105	8.11
653.517	8.07
653.929	8.02
654.341	7.97
654.753	7.92
655.165	7.87
655.577	7.82
655.989	7.74
656.401	7.69
656.813	7.63
657.224	7.55
657.636	7.47
658.047	7.39
658.459	7.31
658.87	7.22
659.282	7.12
659.693	7.03
660.104	6.94
660.515	6.85
660.926	6.75
661.338	6.65
661.749	6.55
662.159	6.46
662.57	6.38
662.981	6.29
663.392	6.21
663.803	6.12
664.213	6.04
664.624	5.96
665.035	5.89
665.445	5.82
665.855	5.76
666.266	5.69
666.676	5.65
667.086	5.57
667.497	5.52
667.907	5.47
668.317	5.43
668.727	5.39
669.137	5.35
669.547	5.32
669.956	5.29
670.366	5.27
670.776	5.24
671.186	5.22
671.595	5.21
672.005	5.19
672.414	5.19
672.824	5.17
673.233	5.17
673.642	5.18
674.052	5.18
674.461	5.18
674.87	5.19
675.279	5.2
675.688	5.22
676.097	5.24
676.506	5.26
676.915	5.29
677.323	5.33
677.732	5.37
678.141	5.42
678.549	5.47
678.958	5.54
679.366	5.62
679.775	5.69
680.183	5.78
680.592	5.89
681	6.01
681.408	6.14
681.816	6.28
682.224	6.44
682.632	6.61
683.04	6.79
683.448	6.99
683.856	7.18
684.264	7.42
684.671	7.66
685.079	7.93
685.487	8.2
685.894	8.5
686.302	8.79
686.709	9.1
687.116	9.44
687.524	9.77
687.931	10.13
688.338	10.49
688.745	10.86
689.152	11.23
689.559	11.6
689.966	11.97
690.373	12.34
690.78	12.73
691.187	13.12
691.593	13.49
692	13.87
692.407	14.21
692.813	14.58
693.22	14.93
693.626	15.3
694.032	15.65
694.439	15.98
694.845	16.31
695.251	16.64
695.657	16.95
696.063	17.26
696.469	17.56
696.875	17.88
697.281	18.18
697.687	18.46
698.093	18.74
698.498	18.99
698.904	19.26
699.31	19.49
699.715	19.75
700.12	19.98
700.526	20.22
700.931	20.43
701.337	20.63
701.742	20.82
702.147	21.02
702.552	21.2
702.957	21.38
703.362	21.55
703.767	21.73
704.172	21.89
704.577	22.05
704.981	22.2
705.386	22.35
705.791	22.52
706.195	22.66
706.6	22.82
707.004	22.96
707.408	23.1
707.813	23.23
708.217	23.35
708.621	23.47
709.025	23.6
709.43	23.72
709.834	23.84
710.237	23.95
710.641	24.08
711.045	24.17
711.449	24.29
711.853	24.39
712.256	24.49
712.66	24.61
713.064	24.7
713.467	24.79
713.87	24.88
714.274	24.95
714.677	25.04
715.08	25.1
715.484	25.18
715.887	25.27
716.29	25.34
716.693	25.43
717.096	25.51
717.499	25.57
717.901	25.64
718.304	25.72
718.707	25.8
719.109	25.86
719.512	25.93
719.915	25.99
720.317	26.02
720.719	26.06
721.122	26.11
721.524	26.16
721.926	26.23
722.328	26.28
722.731	26.31
723.133	26.37
723.535	26.41
723.937	26.45
724.338	26.48
724.74	26.55
725.142	26.65
725.544	26.69
725.945	26.73
726.347	26.75
726.748	26.78
727.15	26.81
727.551	26.84
727.952	26.86
728.354	26.88
728.755	26.9
729.156	26.92
729.557	26.9
729.958	26.93
730.359	26.93
730.76	26.95
731.161	26.97
731.562	27
731.962	27.01
732.363	27.05
732.763	27.09
733.164	27.11
733.564	27.13
733.965	27.13
734.365	27.14
734.766	27.16
735.166	27.2
735.566	27.21
735.966	27.22
736.366	27.23
736.766	27.24
737.166	27.25
737.566	27.25
737.966	27.27
738.365	27.28
738.765	27.3
739.165	27.33
739.564	27.33
739.964	27.33
740.363	27.32
740.763	27.34
741.162	27.34
741.561	27.34
741.96	27.35
742.36	27.35
742.759	27.36
743.158	27.34
743.557	27.31
743.955	27.32
744.354	27.33
744.753	27.36
745.152	27.39
745.55	27.4
745.949	27.41
746.348	27.42
746.746	27.42
747.144	27.43
747.543	27.44
747.941	27.46
748.339	27.44
748.737	27.43
749.136	27.41
749.534	27.37
749.932	27.36
750.33	27.33
750.727	27.32
751.125	27.32
751.523	27.32
751.921	27.33
752.318	27.33
752.716	27.33
753.113	27.34
753.511	27.35
753.908	27.37
754.305	27.37
754.703	27.36
755.1	27.37
755.497	27.36
755.894	27.33
756.291	27.3
756.688	27.25
757.085	27.24
757.482	27.23
757.878	27.22
758.275	27.2
758.672	27.2
759.068	27.2
759.465	27.19
759.861	27.19
760.258	27.2
760.654	27.23
761.05	27.25
761.447	27.26
761.843	27.24
762.239	27.25
762.635	27.24
763.031	27.24
763.427	27.25
763.822	27.25
764.218	27.27
764.614	27.28
765.01	27.28
765.405	27.27
765.801	27.27
766.196	27.29
766.592	27.3
766.987	27.32
767.382	27.31
767.778	27.32
768.173	27.33
768.568	27.33
768.963	27.32
769.358	27.34
769.753	27.35
770.148	27.36
770.542	27.37
770.937	27.37
771.332	27.37
771.726	27.4
772.121	27.37
772.515	27.38
772.91	27.38
773.304	27.38
773.699	27.36
774.093	27.34
774.487	27.31
774.881	27.32
775.275	27.31
775.669	27.26
776.063	27.25
776.457	27.26
776.851	27.24
777.245	27.21
777.638	27.2
778.032	27.2
778.425	27.21
778.819	27.22
779.212	27.23
779.606	27.23
779.999	27.25
780.392	27.25
780.786	27.22
781.179	27.23
781.572	27.26
781.965	27.25
782.358	27.25
782.751	27.25
783.143	27.25
783.536	27.23
783.929	27.23
784.322	27.25
784.714	27.24
785.107	27.25
785.499	27.23
785.891	27.23
786.284	27.25
786.676	27.24
787.068	27.23
787.46	27.22
787.852	27.23
788.245	27.23
788.636	27.17
789.028	27.16
789.42	27.17
789.812	27.19
790.204	27.19
790.595	27.17
790.987	27.18
791.378	27.2
791.77	27.21
792.161	27.18
792.553	27.17
792.944	27.2
793.335	27.21
793.726	27.21
794.117	27.2
794.508	27.17
794.899	27.15
795.29	27.13
795.681	27.09
796.072	27.09
796.463	27.1
796.853	27.1
797.244	27.08
797.634	27.07
798.025	27.09
798.415	27.09
798.806	27.09
799.196	27.1
799.586	27.11
799.976	27.14
800.366	27.14
800.756	27.12
801.146	27.14
801.536	27.15
801.926	27.14
802.316	27.12
802.706	27.12
803.095	27.13
803.485	27.12
803.874	27.1
804.264	27.07
804.653	27.04
805.043	27.05
805.432	27.02
805.821	27.01
806.21	27.02
806.599	26.99
806.988	26.97
807.377	26.95
807.766	26.94
808.155	26.92
808.544	26.92
808.933	26.91
809.321	26.9
809.71	26.9
810.098	26.88
810.487	26.85
810.875	26.85
811.264	26.85
811.652	26.84
812.04	26.83
812.428	26.83
812.816	26.82
813.204	26.8
813.592	26.78
813.98	26.78
814.368	26.78
814.756	26.77
815.144	26.77
815.531	26.77
815.919	26.76
816.306	26.76
816.694	26.74
817.081	26.75
817.469	26.76
817.856	26.74
818.243	26.7
818.63	26.68
819.017	26.69
819.404	26.67
819.791	26.63
820.178	26.62
820.565	26.6
820.952	26.6
821.339	26.57
821.725	26.55
822.112	26.57
822.498	26.6
822.885	26.6
823.271	26.58
823.657	26.57
824.044	26.59
824.43	26.59
824.816	26.6
825.202	26.59
825.588	26.59
825.974	26.58
826.36	26.55
826.746	26.54
827.132	26.53
827.517	26.54
827.903	26.53
828.289	26.51
828.674	26.5
829.06	26.48
829.445	26.48
829.83	26.48
830.216	26.47
830.601	26.47
830.986	26.46
831.371	26.45
831.756	26.43
832.141	26.44
832.526	26.45
832.911	26.44
833.295	26.44
833.68	26.43
834.065	26.42
834.449	26.43
834.834	26.43
835.218	26.45
835.603	26.46
835.987	26.46
836.371	26.45
836.755	26.43
837.139	26.43
837.524	26.43
837.908	26.44
838.291	26.44
838.675	26.44
839.059	26.44
839.443	26.42
839.827	26.41
840.21	26.41
840.594	26.4
840.977	26.42
841.361	26.42
841.744	26.41
842.127	26.39
842.511	26.39
842.894	26.39
843.277	26.38
843.66	26.36
844.043	26.37
844.426	26.36
844.809	26.36
845.191	26.34
845.574	26.35
845.957	26.36
846.339	26.37
846.722	26.36
847.104	26.36
847.487	26.36
847.869	26.37
848.252	26.33
848.634	26.33
849.016	26.34
849.398	26.34
849.78	26.33
850.162	26.31
850.544	26.29
850.926	26.3
851.307	26.3
851.689	26.29
852.071	26.29
852.452	26.3
852.834	26.32
853.215	26.29
853.597	26.3
853.978	26.29
854.359	26.3
854.741	26.29
855.122	26.27
855.503	26.25
855.884	26.26
856.265	26.26
856.646	26.26
857.026	26.25
857.407	26.26
857.788	26.25
858.169	26.26
858.549	26.26
858.93	26.26
859.31	26.26
859.69	26.28
860.071	26.27
860.451	26.26
860.831	26.25
861.211	26.22
861.591	26.22
861.971	26.2
862.351	26.2
862.731	26.2
863.111	26.21
863.491	26.18
863.87	26.16
864.25	26.14
864.629	26.15
865.009	26.13
865.388	26.14
865.768	26.15
866.147	26.16
866.526	26.16
866.905	26.14
867.284	26.14
867.663	26.15
868.042	26.17
868.421	26.2
868.8	26.2
869.179	26.22
869.558	26.2
869.936	26.19
870.315	26.18
870.693	26.17
871.072	26.17
871.45	26.16
871.828	26.17
872.207	26.18
872.585	26.15
872.963	26.15
873.341	26.13
873.719	26.14
874.097	26.14
874.475	26.15
874.853	26.17
875.23	26.18
875.608	26.19
875.986	26.19
876.363	26.2
876.741	26.21
877.118	26.21
877.495	26.22
877.873	26.22
878.25	26.23
878.627	26.24
879.004	26.23
879.381	26.22
879.758	26.21
880.135	26.21
880.512	26.18
880.889	26.18
881.265	26.17
881.642	26.18
882.019	26.19
882.395	26.18
882.772	26.19
883.148	26.16
883.524	26.16
883.901	26.16
884.277	26.15
884.653	26.15
885.029	26.15
885.405	26.16
885.781	26.15
886.157	26.13
886.532	26.13
886.908	26.12
887.284	26.13
887.659	26.12
888.035	26.12
888.411	26.13
888.786	26.12
889.161	26.12
889.537	26.11
889.912	26.11
890.287	26.11
890.662	26.11
891.037	26.11
891.412	26.1
891.787	26.08
892.162	26.07
892.536	26.07
892.911	26.06
893.286	26.06
893.66	26.06
894.035	26.06
894.409	26.04
894.784	26.03
895.158	26.02
895.532	26.03
895.906	26.03
896.281	26.04
896.655	26.01
897.029	26.01
897.402	26
897.776	26.01
898.15	25.99
898.524	26
898.898	26
899.271	26
899.645	26.01
900.018	26.01
900.392	26.01
900.765	26.01
901.138	26.02
901.511	26.01
901.884	26.01
902.258	26.02
902.631	26
903.003	26.01
903.376	26.01
903.749	26.01
904.122	26.03
904.495	26.05
904.867	26.06
905.24	26.09
905.612	26.1
905.985	26.09
906.357	26.09
906.729	26.11
907.102	26.12
907.474	26.13
907.846	26.12
908.218	26.1
908.59	26.09
908.962	26.1
909.334	26.08
909.705	26.06
910.077	26.06
910.449	26.05
910.82	26.04
911.192	26.04
911.563	26.02
911.935	26.01
912.306	26.02
912.677	26.01
913.048	26
913.419	26.01
913.79	26.02
914.161	26.02
914.532	26.03
914.903	26.05
915.274	26.05
915.645	26.07
916.015	26.07
916.386	26.06
916.756	26.08
917.127	26.08
917.497	26.09
917.868	26.11
918.238	26.11
918.608	26.14
918.978	26.13
919.348	26.14
919.718	26.12
920.088	26.15
920.458	26.16
920.828	26.15
921.198	26.14
921.567	26.12
921.937	26.14
922.306	26.14
922.676	26.12
923.045	26.11
923.415	26.1
923.784	26.09
924.153	26.1
924.522	26.08
924.891	26.1
925.26	26.11
925.629	26.12
925.998	26.09
926.367	26.07
926.736	26.07
927.104	26.07
927.473	26.06
927.842	26.06
928.21	26.07
928.578	26.09
928.947	26.12
929.315	26.11
929.683	26.1
930.051	26.09
930.42	26.1
930.788	26.08
931.156	26.07
931.523	26.07
931.891	26.09
932.259	26.08
932.627	26.06
932.994	26.02
933.362	26.01
933.729	26.05
934.097	26.05
934.464	26.08
934.831	26.09
935.199	26.1
935.566	26.1
935.933	26.05
936.3	26.06
936.667	26.04
937.034	26.06
937.401	26.08
937.767	26.05
938.134	26.06
938.501	26.03
938.867	26.02
939.234	26.01
939.6	26.02
939.967	26.03
940.333	26
940.699	26.01
941.065	25.99
941.431	25.97
941.798	25.95
942.163	25.91
942.529	25.92
942.895	25.92
943.261	25.91
943.627	25.91
943.992	25.91
944.358	25.93
944.723	25.92
945.089	25.9
945.454	25.92
945.82	25.9
946.185	25.92
946.55	25.88
946.915	25.9
947.28	25.89
947.645	25.87
948.01	25.88
948.375	25.84
948.74	25.83
949.104	25.82
949.469	25.76
949.834	25.74
950.198	25.74
950.562	25.77
950.927	25.72
951.291	25.67
951.655	25.63
952.02	25.59
952.384	25.56
952.748	25.54
953.112	25.56
953.476	25.53
953.839	25.47
954.203	25.45
954.567	25.41
954.931	25.39
955.294	25.38
955.658	25.41
956.021	25.43
956.385	25.42
956.748	25.43
957.111	25.42
957.474	25.48
957.837	25.53
958.2	25.51
958.563	25.49
958.926	25.53
959.289	25.56
959.652	25.54
960.015	25.54
960.377	25.56
960.74	25.55
961.102	25.54
961.465	25.55
961.827	25.57
962.189	25.58
962.552	25.61
962.914	25.59
963.276	25.61
963.638	25.61
964	25.59
964.362	25.62
964.724	25.6
965.085	25.6
965.447	25.57
965.809	25.54
966.17	25.58
966.532	25.58
966.893	25.59
967.255	25.58
967.616	25.6
967.977	25.62
968.338	25.57
968.699	25.6
969.061	25.58
969.421	25.59
969.782	25.63
970.143	25.61
970.504	25.63
970.865	25.62
971.225	25.6
971.586	25.6
971.946	25.59
972.307	25.63
972.667	25.65
973.027	25.69
973.388	25.71
973.748	25.71
974.108	25.73
974.468	25.68
974.828	25.7
975.188	25.71
975.548	25.68
975.907	25.7
976.267	25.69
976.627	25.69
976.986	25.69
977.346	25.64
977.705	25.65
978.064	25.63
978.424	25.68
978.783	25.7
979.142	25.69
979.501	25.74
979.86	25.77
980.219	25.75
980.578	25.73
980.937	25.68
981.296	25.66
981.654	25.65
982.013	25.7
982.371	25.67
982.73	25.7
983.088	25.73
983.447	25.7
983.805	25.71
984.163	25.74
984.521	25.74
984.879	25.76
985.237	25.87
985.595	25.86
985.953	25.81
986.311	25.8
986.669	25.81
987.026	25.8
987.384	25.81
987.741	25.74
988.099	25.74
988.456	25.81
988.814	25.82
989.171	25.78
989.528	25.8
989.885	25.78
990.242	25.8
990.599	25.78
990.956	25.82
991.313	25.82
991.67	25.85
992.027	25.97
992.383	25.91
992.74	25.95
993.096	25.95
993.453	25.93
993.809	26.02
994.165	26.11
994.522	26.09
994.878	26.09
995.234	26.13
995.59	26.14
995.946	26.09
996.302	26.12
996.658	26.13
997.013	26.08
997.369	26.17
997.725	26.17
998.08	26.12
998.436	26.17
998.791	26.21
999.147	26.24
999.502	26.3
999.857	26.28
1000.212	26.23
1000.567	26.26
1000.922	26.36
1001.277	26.28
1001.632	26.21
1001.987	26.21
1002.342	26.11
1002.696	26.06
1003.051	26.1
1003.406	26.05
1003.76	26.07
1004.114	26.16
1004.469	26.16
1004.823	26.31
1005.177	26.37
1005.531	26.5
1005.885	26.5
1006.239	26.53
1006.593	26.66
1006.947	26.61
1007.301	26.53
1007.655	26.51
1008.008	26.6
1008.362	26.71
1008.715	26.48
1009.069	26.48
1009.422	26.44
1009.776	26.5
1010.129	26.65
1010.482	26.61
1010.835	26.63
1011.188	26.81
1011.541	26.83
1011.894	26.81
1012.247	26.67
1012.6	26.79
1012.952	26.79
1013.305	26.87
1013.657	26.87
1014.01	26.87
1014.362	26.81
1014.715	26.91
1015.067	26.76
1015.419	26.83
1015.771	26.8
1016.123	26.81
1016.475	26.84
1016.827	26.91
1017.179	26.9
1017.531	26.92
1017.883	26.9
1018.234	26.99
1018.586	26.84
1018.938	26.92
1019.289	26.94
1019.64	27.1
1019.992	27.18
1020.343	27.07
1020.694	27.07
1021.045	27.13
1021.396	27.23
1021.747	27.22
1022.098	27.23
1022.449	27.26
1022.8	27.51
1023.151	27.47
1023.501	27.3
1023.852	27.43
1024.202	27.42
1024.553	27.14
1024.903	27.06
1025.253	27.03
1025.604	27.09
1025.954	26.86
1026.304	26.96
1026.654	27.09
1027.004	27.2
1027.354	27.15
1027.703	27.02
1028.053	27.09
1028.403	27.39
1028.753	27.3
1029.102	27.29
1029.452	27.3
1029.801	27.57
1030.15	27.62
1030.499	27.26
897.758	375.42
901.051	379.25
904.343	376.66
907.636	384.39
910.928	371.4
914.22	374.13
917.511	372.65
920.803	354.05
924.094	353.64
927.384	343.46
930.675	329.53
933.965	328.86
937.255	310.8
940.544	301.38
943.834	286.34
947.123	285.38
950.411	268.97
953.7	262.98
956.988	254.28
960.276	244.43
963.563	238.63
966.851	232.32
970.138	229.53
973.424	223.12
976.711	222.6
979.997	212.24
983.283	210.44
986.568	205.88
989.853	202.18
993.138	196.48
996.423	188.54
999.708	186.81
1002.992	183.79
1006.275	175.73
1009.559	173
1012.842	167.88
1016.125	165.56
1019.408	162.78
1022.69	161.11
1025.972	155.43
1029.254	153.42
1032.536	151.78
1035.817	147.14
1039.098	145.08
1042.379	142.56
1045.659	141.78
1048.939	139.02
1052.219	136.61
1055.498	133.76
1058.778	130.5
1062.057	128.52
1065.335	126.29
1068.614	124.67
1071.892	123.51
1075.17	121.84
1078.447	120
1081.724	118.49
1085.001	117.47
1088.278	114.88
1091.554	112.66
1094.83	113.53
1098.106	112.22
1101.382	111.41
1104.657	110.85
1107.932	108.5
1111.206	108.83
1114.481	106.01
1117.755	105.65
1121.029	104.71
1124.302	104.03
1127.575	103.55
1130.848	102
1134.121	101.12
1137.393	100.49
1140.665	98.6
1143.937	98.73
1147.208	97.8
1150.48	97.82
1153.75	96.7
1157.021	95.24
1160.291	94.91
1163.561	93.85
1166.831	93.05
1170.101	92.52
1173.37	92.79
1176.639	93.15
1179.907	92
1183.176	90.77
1186.444	91.2
1189.711	90.76
1192.979	90.15
1196.246	89.65
1199.513	90.34
1202.78	89.76
1206.046	89.95
1209.312	88.65
1212.578	88.37
1215.843	89.44
1219.108	89.16
1222.373	90.35
1225.638	90.96
1228.902	92.07
1232.166	93
1235.43	92.42
1238.693	94.3
1241.956	94.66
1245.219	96.25
1248.482	96.38
1251.744	95.97
1255.006	95.91
1258.268	94.84
1261.529	94.13
1264.79	93.73
1268.051	92.46
1271.312	92.58
1274.572	91.07
1277.832	89.83
1281.092	88.61
1284.351	87.83
1287.61	88.31
1290.869	86.93
1294.128	86.13
1297.386	85.27
1300.644	84.9
1303.902	84.62
1307.159	84.01
1310.416	83.58
1313.673	83.61
1316.93	84.02
1320.186	84.17
1323.442	83.72
1326.697	84.92
1329.953	84.87
1333.208	85.66
1336.463	85.67
1339.717	86.22
1342.972	87.71
1346.226	88.73
1349.479	89.02
1352.733	89.31
1355.986	89.97
1359.238	90.23
1362.491	90.14
1365.743	89.98
1368.995	90.59
1372.247	90.84
1375.498	90.61
1378.749	89.79
1382	88.7
1385.251	88.55
1388.501	87.78
1391.751	87.07
1395	87.05
1398.25	86.19
1401.499	85.74
1404.748	84.75
1407.996	83.8
1411.244	83.49
1414.492	82.48
1417.74	81.03
1420.987	80.12
1424.234	80.02
1427.481	78.88
1430.728	78.19
1433.974	77.98
1437.22	77.48
1440.465	76.99
1443.711	75.69
1446.956	74.75
1450.201	74.32
1453.445	74.45
1456.689	74.39
1459.933	72.56
1463.177	72.45
1466.42	71.29
1469.663	69.99
1472.906	69.33
1476.148	68.42
1479.391	67.72
1482.633	67.42
1485.874	66.68
1489.115	65.9
1492.356	65.18
1495.597	64.95
1498.838	64.39
1502.078	64.15
1505.318	64.05
1508.557	64.05
1511.797	63.51
1515.036	63.27
1518.274	63.38
1521.513	62.99
1524.751	62.74
1527.989	62.7
1531.227	63
1534.464	62.39
1537.701	62.3
1540.938	62.11
1544.174	62.14
1547.41	61.87
1550.646	61.76
1553.882	61.72
1557.117	61.36
1560.352	61.18
1563.587	61.23
1566.821	60.75
1570.055	60.65
1573.289	60.4
1576.523	60.6
1579.756	59.85
1582.989	60.12
1586.222	60.19
1589.454	59.06
1592.686	60.09
1595.918	59.82
1599.15	59.37
1602.381	59.26
1605.612	59.31
1608.843	59.43
1612.073	59.02
1615.303	59.09
1618.533	59.28
1621.762	59.54
1624.992	60.68
1628.221	59.81
1631.449	59.51
1634.678	59.64
1637.906	59.94
1641.134	59.84
1644.361	59.96
1647.588	59.77
1650.815	59.92
1654.042	59.87
1657.269	59.49
1660.495	59.69
1663.72	59.4
1666.946	59.6
1670.171	59.57
1673.396	59.93
1676.621	60.11
1679.845	60.23
1683.069	61.01
1686.293	60.89
1689.517	61.23
1692.74	61.43
1695.963	61.18
1699.185	61.56
1702.408	62.14
1705.63	62.32
1708.852	61.99
1712.073	62.12
1715.294	62.06
1718.515	62.24
1721.736	62.45
1724.956	62.85
1728.176	62.94
1731.396	62.91
1734.616	62.91
1737.835	63.11
1741.054	62.83
1744.272	63.13
1747.491	63.22
1750.709	63.44
1753.927	63.22
1757.144	63.18
1760.361	62.74
1763.578	62.58
1766.795	62.67
1770.011	63.38
1773.227	63.04
1776.443	63.48
1779.658	63.42
1782.874	64.03
1786.089	63.44
1789.303	63.75
1792.518	64.32
1795.732	64.64
1798.945	65.22
1802.159	65.33
1805.372	65.34
1808.585	66.1
1811.797	66.53
1815.01	66.78
1818.222	66.74
1821.434	67.7
1824.645	68.03
1827.856	69.11
1831.067	68.53
1834.278	69.22
1837.488	69.48
1840.698	69.52
1843.908	69.4
1847.117	69.11
1850.326	69.96
1853.535	69.84
1856.744	70.27
1859.952	69.92
1863.16	68.96
1866.368	68.31
1869.575	67.85
1872.782	67.43
1875.989	66.83
1879.196	66.81
1882.402	66.14
1885.608	65.58
1888.814	65.25
1892.019	64.59
1895.224	64.34
1898.429	64.2
1901.634	65.21
1904.838	65.23
1908.042	65.12
1911.246	65.52
1914.449	65.53
1917.652	66.07
1920.855	65.89
1924.058	65.3
1927.26	65.65
1930.462	64.86
1933.664	65.87
1936.865	65.52
1940.066	65.12
1943.267	65.08
1946.467	64.81
1949.668	65.3
1952.868	66.23
1956.067	66.55
1959.267	67.12
1962.466	67.33
1965.665	68.15
1968.863	68.14
1972.061	68.43
1975.259	68.98
1978.457	69.93
1981.654	71.04
1984.852	71
1988.048	70.41
1991.245	71.54
1994.441	71.97
1997.637	73.08
2000.833	74.14
2004.028	74.11
2007.223	75.41
2010.418	76.04
2013.613	77.39
2016.807	78.15
2020.001	79.13
2023.194	80.64
2026.388	81.99
2029.581	84.27
2032.774	84.37
2035.966	86.53
2039.158	87.73
2042.35	88.73
2045.542	89
2048.733	90.77
2051.924	90.85
2055.115	91.86
2058.306	92.15
2061.496	92.54
2064.686	93.15
2067.875	94.35
2071.065	93.93
2074.254	93.52
2077.442	95.74
2080.631	96.19
2083.819	96.48
2087.007	97.95
2090.195	98.93
2093.382	100.52
2096.569	100.66
2099.756	101.44
2102.942	102.11
2106.128	103.12
2109.314	105.91
2112.5	104.77
2115.685	107.08
2118.87	107.05
2122.055	109.22
2125.239	110.52
2128.424	110.4
2131.608	111.23
2134.791	112.53
2137.974	112.89
2141.157	113.96
2144.34	113.91
2147.523	114.66
2150.705	115.14
2153.887	116.28
2157.068	116.29
2160.25	116.4
2163.431	117.8
2166.611	118.6
2169.792	120.78
2172.972	121.67
2176.152	122.34
2179.331	123.28
2182.511	125.79
2185.69	126.29
2188.868	128.8
2192.047	129.62
2195.225	132.3
2198.403	133.52
2201.58	136.47
2204.758	139.06
2207.935	141.99
2211.111	144.11
2214.288	146.29
2217.464	146.55
2220.64	148.99
2223.815	149.43
2226.991	154.8
2230.166	154.65
2233.34	159.17
2236.515	160.42
2239.689	160.29
2242.863	160.92
2246.036	165.6
2249.209	165.2
2252.382	168.05
2255.555	173.08
2258.727	175.7
2261.9	177.88
2265.071	180.27
2268.243	180.74
2271.414	184.94
2274.585	188.81
2277.756	191.7
2280.926	193
2284.096	197.14
2287.266	200.19
2290.436	202.47
2293.605	205.48
2296.774	209.1
2299.942	215.77
2303.111	221.91
2306.279	225.51
2309.447	226.34
2312.614	233.81
2315.781	238.9
2318.948	249.73
2322.115	247.83
2325.281	261.31
2328.447	256.5
2331.613	266.56
2334.779	264.12
2337.944	271.72
2341.109	274.13
2344.274	286.25
2347.438	292.8
2350.602	293.23
2353.766	303.75
2356.929	309.27
2360.092	309.07
2363.255	330.33
2366.418	331.92
2369.58	336.5
2372.742	356.47
2375.904	365.14
2379.066	363.14
2382.227	359.58
2385.388	389.26
2388.548	388.88
2391.709	392.54
2394.869	431.44
2398.029	417.7
2401.188	427.34
2404.347	426.47
2407.506	421.21
2410.665	429.61
2413.823	452.89
2416.981	478.22
2420.139	459.15
2423.296	459.95
2426.453	476.91
2429.61	460.99
2432.767	477.21
2435.923	472.3
2439.079	515.4
2442.235	526.23
2445.391	526.04
2448.546	521.26
2451.701	504.8
2454.855	510.08
2458.009	529.99
2461.163	558.66
2464.317	574.52
2467.471	593.37
2470.624	600.34
2473.777	578.29
2476.929	564.27
2480.082	545.01
2483.234	540.29
2486.385	571.11
2489.537	577.67
2492.688	598.47
2495.839	580.15
2498.989	569.98
2502.14	568.54
2505.29	568.76
2508.439	582.03
2511.589	578.15
2514.738	633.32
2517.887	620.48
2521.035	654.42
2524.183	653.94
2527.331	659.32
2530.479	653.82
2533.627	660.08
