Data from N_1_DEC_VA_2n_Splice17_12-30-47-990.txt Node
Date: Sat Mar 07 12:30:47 EST 2020
User: sa697716
Spectrometer: NQ5500242
Trigger mode: 0
Integration Time (sec): 1.450000E-1
Scans to average: 20
Nonlinearity correction enabled: false
Boxcar width: 5
Storing dark spectrum: false
XAxis mode: Wavelengths
Number of Pixels in Spectrum: 512
>>>>>Begin Spectral Data<<<<<
187.83	71.65
188.298	67.04
188.766	43.56
189.233	55.29
189.701	46.99
190.169	61.38
190.636	65.95
191.104	47.83
191.571	188.16
192.039	281.59
192.506	406.73
192.974	8.79
193.441	-1.81
193.908	-15.4
194.375	49.3
194.842	-4.94
195.31	39.48
195.777	-28.41
196.244	15.84
196.711	23.66
197.177	25.68
197.644	24.58
198.111	23.79
198.578	23.96
199.045	24.01
199.511	23.75
199.978	23.72
200.445	23.66
200.911	23.57
201.378	23.53
201.844	23.52
202.31	23.13
202.777	23.23
203.243	23.49
203.709	23.16
204.176	22.89
204.642	22.99
205.108	23.21
205.574	23.15
206.04	23.21
206.506	22.96
206.972	23.04
207.438	23.14
207.903	23.02
208.369	22.45
208.835	22.15
209.301	21.69
209.766	21.07
210.232	20.46
210.697	20.09
211.163	19.63
211.628	19.33
212.094	18.82
212.559	18.49
213.024	18.03
213.49	17.85
213.955	17.54
214.42	17.41
214.885	17.04
215.35	16.74
215.815	16.17
216.28	15.43
216.745	14.55
217.21	13.78
217.675	13.06
218.14	12.42
218.604	11.91
219.069	11.44
219.534	10.98
219.998	10.65
220.463	10.32
220.927	10.01
221.392	9.82
221.856	9.67
222.32	9.48
222.785	9.32
223.249	9.18
223.713	9.04
224.177	8.95
224.642	8.87
225.106	8.75
225.57	8.62
226.034	8.54
226.497	8.45
226.961	8.33
227.425	8.24
227.889	8.15
228.353	8.08
228.816	7.99
229.28	7.88
229.744	7.78
230.207	7.7
230.671	7.63
231.134	7.54
231.597	7.47
232.061	7.4
232.524	7.33
232.987	7.27
233.45	7.21
233.914	7.14
234.377	7.07
234.84	7
235.303	6.96
235.766	6.9
236.229	6.84
236.691	6.77
237.154	6.72
237.617	6.67
238.08	6.61
238.542	6.55
239.005	6.5
239.468	6.45
239.93	6.41
240.393	6.36
240.855	6.3
241.317	6.25
241.78	6.2
242.242	6.15
242.704	6.1
243.166	6.06
243.629	6.01
244.091	5.96
244.553	5.92
245.015	5.86
245.477	5.82
245.939	5.78
246.4	5.75
246.862	5.72
247.324	5.69
247.786	5.66
248.247	5.61
248.709	5.57
249.17	5.53
249.632	5.5
250.093	5.48
250.555	5.45
251.016	5.42
251.477	5.39
251.939	5.37
252.4	5.34
252.861	5.31
253.322	5.3
253.783	5.27
254.244	5.26
254.705	5.24
255.166	5.22
255.627	5.19
256.088	5.17
256.549	5.16
257.009	5.13
257.47	5.1
257.931	5.07
258.391	5.04
258.852	5.01
259.312	4.99
259.773	4.96
260.233	4.94
260.694	4.91
261.154	4.89
261.614	4.87
262.074	4.84
262.534	4.82
262.994	4.81
263.455	4.8
263.915	4.79
264.374	4.78
264.834	4.77
265.294	4.76
265.754	4.75
266.214	4.74
266.673	4.73
267.133	4.73
267.593	4.72
268.052	4.71
268.512	4.7
268.971	4.69
269.431	4.67
269.89	4.66
270.349	4.65
270.809	4.64
271.268	4.63
271.727	4.62
272.186	4.61
272.645	4.59
273.104	4.59
273.563	4.57
274.022	4.57
274.481	4.57
274.94	4.55
275.399	4.54
275.857	4.53
276.316	4.52
276.775	4.5
277.233	4.49
277.692	4.48
278.15	4.46
278.609	4.45
279.067	4.43
279.525	4.42
279.984	4.41
280.442	4.39
280.9	4.37
281.358	4.35
281.816	4.34
282.274	4.33
282.732	4.31
283.19	4.3
283.648	4.29
284.106	4.27
284.564	4.25
285.021	4.24
285.479	4.23
285.937	4.22
286.394	4.21
286.852	4.2
287.309	4.18
287.767	4.17
288.224	4.16
288.682	4.15
289.139	4.13
289.596	4.13
290.053	4.11
290.511	4.1
290.968	4.09
291.425	4.08
291.882	4.08
292.339	4.06
292.796	4.06
293.252	4.04
293.709	4.04
294.166	4.03
294.623	4.02
295.079	4
295.536	3.99
295.992	3.98
296.449	3.97
296.905	3.96
297.362	3.96
297.818	3.94
298.274	3.94
298.731	3.93
299.187	3.91
299.643	3.91
300.099	3.9
300.555	3.89
301.011	3.88
301.467	3.87
301.923	3.85
302.379	3.84
302.835	3.84
303.291	3.83
303.746	3.82
304.202	3.82
304.658	3.81
305.113	3.8
305.569	3.8
306.024	3.79
306.479	3.79
306.935	3.78
307.39	3.78
307.845	3.76
308.301	3.76
308.756	3.76
309.211	3.75
309.666	3.75
310.121	3.74
310.576	3.74
311.031	3.74
311.486	3.74
311.94	3.74
312.395	3.74
312.85	3.73
313.305	3.72
313.759	3.71
314.214	3.71
314.668	3.69
315.123	3.69
315.577	3.68
316.032	3.68
316.486	3.68
316.94	3.68
317.394	3.68
317.849	3.67
318.303	3.67
318.757	3.66
319.211	3.66
319.665	3.66
320.119	3.64
320.572	3.63
321.026	3.62
321.48	3.6
321.934	3.59
322.387	3.58
322.841	3.57
323.295	3.56
323.748	3.56
324.202	3.55
324.655	3.56
325.108	3.56
325.562	3.56
326.015	3.57
326.468	3.57
326.921	3.57
327.374	3.56
327.827	3.56
328.28	3.55
328.733	3.55
329.186	3.55
329.639	3.54
330.092	3.53
330.545	3.53
330.997	3.52
331.45	3.52
331.903	3.52
332.355	3.52
332.808	3.52
333.26	3.51
333.713	3.5
334.165	3.49
334.617	3.5
335.069	3.49
335.522	3.49
335.974	3.49
336.426	3.48
336.878	3.48
337.33	3.48
337.782	3.48
338.234	3.48
338.686	3.49
339.137	3.5
339.589	3.49
340.041	3.49
340.493	3.48
340.944	3.47
341.396	3.46
341.847	3.46
342.299	3.45
342.75	3.44
343.201	3.43
343.653	3.42
344.104	3.42
344.555	3.41
345.006	3.4
345.457	3.39
345.908	3.39
346.359	3.39
346.81	3.39
347.261	3.38
347.712	3.37
348.163	3.37
348.613	3.37
349.064	3.36
349.515	3.36
349.965	3.35
350.416	3.35
350.866	3.35
351.317	3.34
351.767	3.34
352.217	3.34
352.668	3.34
353.118	3.35
353.568	3.34
354.018	3.35
354.468	3.35
354.918	3.35
355.368	3.35
355.818	3.35
356.268	3.36
356.718	3.36
357.168	3.34
357.617	3.35
358.067	3.34
358.517	3.35
358.966	3.36
359.416	3.36
359.865	3.36
360.315	3.37
360.764	3.37
361.213	3.36
361.663	3.36
362.112	3.38
362.561	3.39
363.01	3.4
363.459	3.38
363.908	3.38
364.357	3.38
364.806	3.38
365.255	3.37
365.703	3.39
366.152	3.4
366.601	3.39
367.05	3.39
367.498	3.39
367.947	3.39
368.395	3.41
368.844	3.42
369.292	3.42
369.74	3.43
370.189	3.43
370.637	3.43
371.085	3.43
371.533	3.44
371.981	3.45
372.429	3.45
372.877	3.47
373.325	3.46
373.773	3.47
374.221	3.47
374.669	3.46
375.116	3.47
375.564	3.48
376.012	3.49
376.459	3.5
376.907	3.51
377.354	3.52
377.801	3.52
378.249	3.53
378.696	3.54
379.143	3.55
379.591	3.58
380.038	3.59
380.485	3.6
380.932	3.62
381.379	3.62
381.826	3.63
382.273	3.64
382.72	3.65
383.166	3.66
383.613	3.67
384.06	3.67
384.506	3.68
384.953	3.69
385.4	3.7
385.846	3.71
386.292	3.72
386.739	3.73
387.185	3.74
387.631	3.76
388.078	3.77
388.524	3.79
388.97	3.8
389.416	3.82
389.862	3.83
390.308	3.85
390.754	3.86
391.2	3.88
391.645	3.9
392.091	3.92
392.537	3.94
392.983	3.96
393.428	3.97
393.874	3.98
394.319	4.01
394.765	4.03
395.21	4.04
395.655	4.06
396.101	4.08
396.546	4.09
396.991	4.11
397.436	4.13
397.881	4.16
398.326	4.18
398.771	4.2
399.216	4.22
399.661	4.24
400.106	4.26
400.551	4.28
400.995	4.29
401.44	4.31
401.885	4.31
402.329	4.31
402.774	4.32
403.218	4.34
403.663	4.35
404.107	4.36
404.551	4.36
404.995	4.36
405.44	4.36
405.884	4.37
406.328	4.38
406.772	4.39
407.216	4.4
407.66	4.4
408.104	4.38
408.547	4.38
408.991	4.4
409.435	4.4
409.879	4.41
410.322	4.43
410.766	4.44
411.209	4.44
411.653	4.46
412.096	4.46
412.54	4.47
412.983	4.47
413.426	4.5
413.869	4.5
414.312	4.53
414.756	4.55
415.199	4.55
415.642	4.55
416.085	4.56
416.527	4.55
416.97	4.55
417.413	4.57
417.856	4.59
418.298	4.57
418.741	4.57
419.184	4.55
419.626	4.54
420.069	4.55
420.511	4.54
420.953	4.54
421.396	4.54
421.838	4.55
422.28	4.54
422.722	4.55
423.164	4.55
423.606	4.56
424.048	4.57
424.49	4.58
424.932	4.57
425.374	4.57
425.816	4.56
426.258	4.54
426.699	4.54
427.141	4.53
427.582	4.53
428.024	4.53
428.465	4.53
428.907	4.5
429.348	4.48
429.789	4.47
430.231	4.48
430.672	4.48
431.113	4.49
431.554	4.49
431.995	4.48
432.436	4.47
432.877	4.47
433.318	4.48
433.759	4.5
434.2	4.52
434.64	4.52
435.081	4.51
435.522	4.52
435.962	4.52
436.403	4.55
436.843	4.56
437.284	4.56
437.724	4.57
438.164	4.55
438.604	4.56
439.045	4.56
439.485	4.57
439.925	4.57
440.365	4.56
440.805	4.57
441.245	4.57
441.685	4.59
442.125	4.61
442.564	4.61
443.004	4.62
443.444	4.62
443.883	4.62
444.323	4.63
444.762	4.63
445.202	4.63
445.641	4.64
446.081	4.65
446.52	4.63
446.959	4.64
447.398	4.65
447.837	4.65
448.276	4.65
448.716	4.67
449.154	4.69
449.593	4.71
450.032	4.71
450.471	4.7
450.91	4.7
451.349	4.73
451.787	4.71
452.226	4.71
452.664	4.71
453.103	4.69
453.541	4.7
453.98	4.7
454.418	4.69
454.856	4.7
455.295	4.7
455.733	4.67
456.171	4.67
456.609	4.66
457.047	4.66
457.485	4.65
457.923	4.66
458.361	4.65
458.798	4.64
459.236	4.63
459.674	4.63
460.111	4.63
460.549	4.64
460.987	4.64
461.424	4.65
461.862	4.66
462.299	4.67
462.736	4.67
463.173	4.69
463.611	4.68
464.048	4.7
464.485	4.71
464.922	4.72
465.359	4.73
465.796	4.73
466.233	4.74
466.67	4.74
467.106	4.75
467.543	4.74
467.98	4.73
468.416	4.72
468.853	4.72
469.29	4.71
469.726	4.71
470.162	4.71
470.599	4.71
471.035	4.7
471.471	4.7
471.907	4.69
472.344	4.7
472.78	4.7
473.216	4.69
473.652	4.69
474.088	4.69
474.523	4.69
474.959	4.68
475.395	4.66
475.831	4.65
476.266	4.65
476.702	4.64
477.138	4.64
477.573	4.64
478.008	4.65
478.444	4.65
478.879	4.64
479.314	4.64
479.75	4.65
480.185	4.65
480.62	4.65
481.055	4.64
481.49	4.65
481.925	4.65
482.36	4.64
482.795	4.65
483.229	4.64
483.664	4.66
484.099	4.66
484.534	4.66
484.968	4.67
485.403	4.68
485.837	4.7
486.271	4.72
486.706	4.74
487.14	4.76
487.574	4.77
488.009	4.8
488.443	4.82
488.877	4.85
489.311	4.88
489.745	4.91
490.179	4.95
490.613	4.97
491.046	5
491.48	5.03
491.914	5.07
492.348	5.12
492.781	5.16
493.215	5.2
493.648	5.24
494.082	5.29
494.515	5.33
494.948	5.38
495.382	5.43
495.815	5.49
496.248	5.55
496.681	5.62
497.114	5.68
497.547	5.74
497.98	5.81
498.413	5.88
498.846	5.96
499.279	6.04
499.711	6.13
500.144	6.22
500.577	6.31
501.009	6.4
501.442	6.49
501.874	6.6
502.306	6.71
502.739	6.83
503.171	6.95
503.603	7.07
504.036	7.2
504.468	7.33
504.9	7.44
505.332	7.58
505.764	7.72
506.196	7.86
506.627	8.01
507.059	8.17
507.491	8.32
507.923	8.49
508.354	8.67
508.786	8.84
509.217	9.02
509.649	9.22
510.08	9.4
510.512	9.59
510.943	9.78
511.374	9.98
511.805	10.16
512.237	10.36
512.668	10.55
513.099	10.74
513.53	10.95
513.961	11.16
514.391	11.37
514.822	11.59
515.253	11.79
515.684	12.01
516.114	12.22
516.545	12.44
516.975	12.67
517.406	12.89
517.836	13.1
518.267	13.32
518.697	13.52
519.127	13.71
519.558	13.91
519.988	14.11
520.418	14.31
520.848	14.51
521.278	14.71
521.708	15.02
522.138	15.21
522.567	15.39
522.997	15.56
523.427	15.73
523.857	15.9
524.286	16.06
524.716	16.22
525.145	16.38
525.575	16.52
526.004	16.67
526.433	16.69
526.863	16.83
527.292	16.96
527.721	17.09
528.15	17.21
528.579	17.33
529.008	17.45
529.437	17.54
529.866	17.64
530.295	17.74
530.724	17.81
531.152	17.89
531.581	17.97
532.01	18.05
532.438	18.11
532.867	18.18
533.295	18.23
533.723	18.29
534.152	18.35
534.58	18.41
535.008	18.46
535.436	18.51
535.865	18.55
536.293	18.59
536.721	18.62
537.149	18.66
537.576	18.69
538.004	18.73
538.432	18.76
538.86	18.79
539.287	18.81
539.715	18.85
540.143	18.87
540.57	18.89
540.998	18.91
541.425	18.94
541.852	18.98
542.28	19
542.707	19.04
543.134	19.06
543.561	19.09
543.988	19.11
544.415	19.11
544.842	19.13
545.269	19.14
545.696	19.17
546.123	19.19
546.549	19.2
546.976	19.21
547.403	19.22
547.829	19.22
548.256	19.22
548.682	19.23
549.108	19.25
549.535	19.26
549.961	19.26
550.387	19.25
550.813	19.24
551.24	19.23
551.666	19.23
552.092	19.21
552.518	19.22
552.943	19.21
553.369	19.19
553.795	19.17
554.221	19.16
554.646	19.14
555.072	19.12
555.498	19.09
555.923	19.05
556.349	19.01
556.774	18.96
557.199	18.91
557.625	18.86
558.05	18.81
558.475	18.75
558.9	18.68
559.325	18.63
559.75	18.56
560.175	18.5
560.6	18.41
561.025	18.35
561.449	18.27
561.874	18.19
562.299	18.12
562.723	18.04
563.148	17.94
563.572	17.85
563.997	17.74
564.421	17.64
564.846	17.54
565.27	17.44
565.694	17.36
566.118	17.26
566.542	17.16
566.966	17.05
567.39	16.94
567.814	16.84
568.238	16.74
568.662	16.65
569.086	16.55
569.509	16.45
569.933	16.35
570.357	16.25
570.78	16.13
571.204	16.03
571.627	15.94
572.05	15.84
572.474	15.76
572.897	15.66
573.32	15.56
573.743	15.48
574.166	15.39
574.589	15.3
575.012	15.21
575.435	15.13
575.858	15.06
576.281	14.99
576.704	14.91
577.126	14.83
577.549	14.75
577.972	14.68
578.394	14.62
578.817	14.54
579.239	14.47
579.661	14.41
580.084	14.34
580.506	14.28
580.928	14.22
581.35	14.16
581.772	14.11
582.194	14.05
582.616	14.01
583.038	13.94
583.46	13.89
583.882	13.83
584.303	13.77
584.725	13.72
585.147	13.67
585.568	13.61
585.99	13.56
586.411	13.51
586.833	13.45
587.254	13.39
587.675	13.35
588.096	13.31
588.518	13.27
588.939	13.24
589.36	13.19
589.781	13.15
590.202	13.11
590.623	13.07
591.043	13.04
591.464	13.01
591.885	12.97
592.305	12.93
592.726	12.91
593.147	12.86
593.567	12.83
593.987	12.81
594.408	12.78
594.828	12.76
595.248	12.75
595.669	12.71
596.089	12.69
596.509	12.66
596.929	12.64
597.349	12.61
597.769	12.57
598.189	12.54
598.608	12.51
599.028	12.48
599.448	12.44
599.867	12.4
600.287	12.38
600.706	12.35
601.126	12.33
601.545	12.3
601.965	12.27
602.384	12.26
602.803	12.22
603.222	12.19
603.641	12.16
604.061	12.13
604.48	12.1
604.898	12.05
605.317	12.01
605.736	11.97
606.155	11.93
606.574	11.89
606.992	11.84
607.411	11.79
607.829	11.71
608.248	11.66
608.666	11.6
609.085	11.55
609.503	11.51
609.921	11.46
610.339	11.4
610.758	11.35
611.176	11.29
611.594	11.24
612.012	11.19
612.43	11.16
612.847	11.11
613.265	11.05
613.683	11
614.101	10.96
614.518	10.91
614.936	10.86
615.353	10.8
615.771	10.76
616.188	10.71
616.606	10.67
617.023	10.63
617.44	10.59
617.857	10.54
618.274	10.5
618.691	10.46
619.108	10.42
619.525	10.38
619.942	10.35
620.359	10.32
620.776	10.29
621.192	10.26
621.609	10.24
622.026	10.22
622.442	10.2
622.859	10.19
623.275	10.17
623.691	10.15
624.108	10.14
624.524	10.13
624.94	10.13
625.356	10.12
625.772	10.12
626.188	10.1
626.604	10.1
627.02	10.09
627.436	10.08
627.852	10.08
628.268	10.08
628.683	10.07
629.099	10.06
629.514	10.04
629.93	10.02
630.345	9.99
630.761	9.97
631.176	9.93
631.591	9.9
632.007	9.87
632.422	9.83
632.837	9.79
633.252	9.73
633.667	9.68
634.082	9.62
634.497	9.56
634.911	9.5
635.326	9.44
635.741	9.37
636.155	9.3
636.57	9.22
636.984	9.14
637.399	9.05
637.813	8.96
638.228	8.87
638.642	8.77
639.056	8.66
639.47	8.58
639.884	8.47
640.298	8.38
640.712	8.28
641.126	8.17
641.54	8.06
641.954	7.96
642.368	7.86
642.781	7.77
643.195	7.69
643.609	7.6
644.022	7.5
644.436	7.42
644.849	7.34
645.262	7.27
645.676	7.19
646.089	7.13
646.502	7.08
646.915	7.03
647.328	6.98
647.741	6.93
648.154	6.88
648.567	6.84
648.98	6.79
649.393	6.75
649.805	6.71
650.218	6.68
650.631	6.66
651.043	6.63
651.456	6.6
651.868	6.56
652.28	6.54
652.693	6.52
653.105	6.49
653.517	6.46
653.929	6.43
654.341	6.39
654.753	6.37
655.165	6.33
655.577	6.29
655.989	6.25
656.401	6.21
656.813	6.18
657.224	6.13
657.636	6.07
658.047	6.02
658.459	5.97
658.87	5.92
659.282	5.84
659.693	5.79
660.104	5.74
660.515	5.68
660.926	5.62
661.338	5.55
661.749	5.5
662.159	5.46
662.57	5.41
662.981	5.35
663.392	5.31
663.803	5.28
664.213	5.23
664.624	5.18
665.035	5.14
665.445	5.12
665.855	5.08
666.266	5.07
666.676	5.05
667.086	5.03
667.497	5.01
667.907	4.99
668.317	4.98
668.727	4.97
669.137	4.96
669.547	4.96
669.956	4.96
670.366	4.96
670.776	4.94
671.186	4.93
671.595	4.93
672.005	4.94
672.414	4.95
672.824	4.95
673.233	4.97
673.642	4.99
674.052	5
674.461	5
674.87	5.03
675.279	5.05
675.688	5.08
676.097	5.11
676.506	5.13
676.915	5.16
677.323	5.18
677.732	5.21
678.141	5.25
678.549	5.29
678.958	5.32
679.366	5.37
679.775	5.42
680.183	5.47
680.592	5.53
681	5.61
681.408	5.67
681.816	5.75
682.224	5.84
682.632	5.94
683.04	6.03
683.448	6.16
683.856	6.28
684.264	6.41
684.671	6.57
685.079	6.73
685.487	6.91
685.894	7.12
686.302	7.34
686.709	7.57
687.116	7.83
687.524	8.09
687.931	8.37
688.338	8.68
688.745	9
689.152	9.33
689.559	9.7
689.966	10.06
690.373	10.44
690.78	10.82
691.187	11.21
691.593	11.62
692	12.04
692.407	12.45
692.813	12.87
693.22	13.29
693.626	13.72
694.032	14.14
694.439	14.58
694.845	15.02
695.251	15.44
695.657	15.85
696.063	16.27
696.469	16.68
696.875	17.11
697.281	17.53
697.687	17.94
698.093	18.31
698.498	18.69
698.904	19.08
699.31	19.45
699.715	19.83
700.12	20.19
700.526	20.55
700.931	20.9
701.337	21.24
701.742	21.56
702.147	21.88
702.552	22.22
702.957	22.53
703.362	22.82
703.767	23.11
704.172	23.39
704.577	23.69
704.981	23.97
705.386	24.25
705.791	24.5
706.195	24.78
706.6	25.05
707.004	25.29
707.408	25.55
707.813	25.81
708.217	26.06
708.621	26.31
709.025	26.53
709.43	26.75
709.834	26.98
710.237	27.21
710.641	27.43
711.045	27.63
711.449	27.87
711.853	28.07
712.256	28.27
712.66	28.47
713.064	28.66
713.467	28.86
713.87	29.06
714.274	29.23
714.677	29.43
715.08	29.59
715.484	29.76
715.887	29.92
716.29	30.07
716.693	30.23
717.096	30.37
717.499	30.55
717.901	30.71
718.304	30.85
718.707	30.99
719.109	31.13
719.512	31.26
719.915	31.41
720.317	31.52
720.719	31.65
721.122	31.77
721.524	31.89
721.926	31.99
722.328	32.08
722.731	32.19
723.133	32.3
723.535	32.38
723.937	32.5
724.338	32.59
724.74	32.69
725.142	32.82
725.544	32.92
725.945	33.02
726.347	33.08
726.748	33.17
727.15	33.23
727.551	33.3
727.952	33.37
728.354	33.45
728.755	33.5
729.156	33.55
729.557	33.57
729.958	33.62
730.359	33.67
730.76	33.73
731.161	33.8
731.562	33.88
731.962	33.92
732.363	33.99
732.763	34.03
733.164	34.06
733.564	34.13
733.965	34.18
734.365	34.21
734.766	34.22
735.166	34.24
735.566	34.24
735.966	34.26
736.366	34.29
736.766	34.29
737.166	34.33
737.566	34.36
737.966	34.37
738.365	34.41
738.765	34.43
739.165	34.47
739.564	34.5
739.964	34.52
740.363	34.55
740.763	34.57
741.162	34.58
741.561	34.6
741.96	34.6
742.36	34.63
742.759	34.64
743.158	34.65
743.557	34.66
743.955	34.71
744.354	34.72
744.753	34.73
745.152	34.76
745.55	34.79
745.949	34.8
746.348	34.83
746.746	34.82
747.144	34.84
747.543	34.87
747.941	34.9
748.339	34.89
748.737	34.92
749.136	34.91
749.534	34.92
749.932	34.91
750.33	34.91
750.727	34.91
751.125	34.92
751.523	34.91
751.921	34.9
752.318	34.88
752.716	34.87
753.113	34.87
753.511	34.89
753.908	34.89
754.305	34.89
754.703	34.89
755.1	34.89
755.497	34.88
755.894	34.87
756.291	34.86
756.688	34.84
757.085	34.84
757.482	34.84
757.878	34.82
758.275	34.79
758.672	34.77
759.068	34.77
759.465	34.77
759.861	34.77
760.258	34.76
760.654	34.78
761.05	34.8
761.447	34.8
761.843	34.78
762.239	34.79
762.635	34.8
763.031	34.82
763.427	34.82
763.822	34.84
764.218	34.85
764.614	34.87
765.01	34.84
765.405	34.82
765.801	34.79
766.196	34.8
766.592	34.78
766.987	34.77
767.382	34.74
767.778	34.72
768.173	34.7
768.568	34.68
768.963	34.65
769.358	34.67
769.753	34.68
770.148	34.69
770.542	34.68
770.937	34.69
771.332	34.7
771.726	34.72
772.121	34.71
772.515	34.71
772.91	34.71
773.304	34.71
773.699	34.68
774.093	34.68
774.487	34.68
774.881	34.7
775.275	34.7
775.669	34.66
776.063	34.62
776.457	34.63
776.851	34.61
777.245	34.61
777.638	34.61
778.032	34.62
778.425	34.66
778.819	34.65
779.212	34.64
779.606	34.64
779.999	34.65
780.392	34.68
780.786	34.69
781.179	34.69
781.572	34.69
781.965	34.69
782.358	34.7
782.751	34.65
783.143	34.62
783.536	34.61
783.929	34.59
784.322	34.59
784.714	34.56
785.107	34.56
785.499	34.55
785.891	34.54
786.284	34.53
786.676	34.53
787.068	34.53
787.46	34.55
787.852	34.56
788.245	34.57
788.636	34.56
789.028	34.58
789.42	34.57
789.812	34.57
790.204	34.58
790.595	34.59
790.987	34.59
791.378	34.6
791.77	34.58
792.161	34.58
792.553	34.57
792.944	34.59
793.335	34.59
793.726	34.58
794.117	34.57
794.508	34.56
794.899	34.53
795.29	34.52
795.681	34.51
796.072	34.53
796.463	34.5
796.853	34.49
797.244	34.47
797.634	34.47
798.025	34.49
798.415	34.48
798.806	34.46
799.196	34.45
799.586	34.45
799.976	34.43
800.366	34.44
800.756	34.45
801.146	34.47
801.536	34.47
801.926	34.45
802.316	34.41
802.706	34.43
803.095	34.47
803.485	34.48
803.874	34.49
804.264	34.51
804.653	34.48
805.043	34.47
805.432	34.44
805.821	34.44
806.21	34.44
806.599	34.46
806.988	34.43
807.377	34.39
807.766	34.39
808.155	34.37
808.544	34.38
808.933	34.38
809.321	34.38
809.71	34.39
810.098	34.38
810.487	34.36
810.875	34.34
811.264	34.34
811.652	34.35
812.04	34.34
812.428	34.34
812.816	34.3
813.204	34.28
813.592	34.29
813.98	34.29
814.368	34.3
814.756	34.31
815.144	34.3
815.531	34.29
815.919	34.3
816.306	34.31
816.694	34.3
817.081	34.31
817.469	34.34
817.856	34.3
818.243	34.29
818.63	34.29
819.017	34.28
819.404	34.27
819.791	34.28
820.178	34.25
820.565	34.23
820.952	34.22
821.339	34.22
821.725	34.22
822.112	34.25
822.498	34.26
822.885	34.26
823.271	34.25
823.657	34.23
824.044	34.21
824.43	34.23
824.816	34.22
825.202	34.22
825.588	34.21
825.974	34.19
826.36	34.18
826.746	34.16
827.132	34.16
827.517	34.18
827.903	34.22
828.289	34.24
828.674	34.24
829.06	34.24
829.445	34.24
829.83	34.22
830.216	34.22
830.601	34.21
830.986	34.21
831.371	34.18
831.756	34.19
832.141	34.18
832.526	34.17
832.911	34.16
833.295	34.17
833.68	34.16
834.065	34.16
834.449	34.14
834.834	34.14
835.218	34.14
835.603	34.15
835.987	34.13
836.371	34.13
836.755	34.12
837.139	34.13
837.524	34.13
837.908	34.14
838.291	34.17
838.675	34.18
839.059	34.19
839.443	34.19
839.827	34.19
840.21	34.19
840.594	34.18
840.977	34.17
841.361	34.16
841.744	34.14
842.127	34.11
842.511	34.11
842.894	34.12
843.277	34.11
843.66	34.1
844.043	34.13
844.426	34.13
844.809	34.15
845.191	34.18
845.574	34.19
845.957	34.2
846.339	34.21
846.722	34.21
847.104	34.2
847.487	34.2
847.869	34.2
848.252	34.17
848.634	34.18
849.016	34.19
849.398	34.19
849.78	34.21
850.162	34.19
850.544	34.18
850.926	34.18
851.307	34.18
851.689	34.18
852.071	34.18
852.452	34.18
852.834	34.15
853.215	34.11
853.597	34.1
853.978	34.09
854.359	34.1
854.741	34.1
855.122	34.08
855.503	34.05
855.884	34.05
856.265	34.06
856.646	34.05
857.026	34.09
857.407	34.09
857.788	34.09
858.169	34.1
858.549	34.1
858.93	34.11
859.31	34.14
859.69	34.14
860.071	34.17
860.451	34.17
860.831	34.17
861.211	34.12
861.591	34.12
861.971	34.11
862.351	34.11
862.731	34.1
863.111	34.08
863.491	34.07
863.87	34.07
864.25	34.03
864.629	34.02
865.009	34.02
865.388	34.03
865.768	34.02
866.147	34.02
866.526	34
866.905	34
867.284	34.01
867.663	34
868.042	34
868.421	34.01
868.8	34.01
869.179	34.01
869.558	33.98
869.936	33.97
870.315	33.97
870.693	33.97
871.072	33.98
871.45	33.98
871.828	33.98
872.207	33.99
872.585	33.98
872.963	33.98
873.341	33.98
873.719	34
874.097	34.01
874.475	34.02
874.853	34.04
875.23	34.05
875.608	34.04
875.986	34.05
876.363	34.04
876.741	34.03
877.118	34.03
877.495	34.03
877.873	34.05
878.25	34.05
878.627	34.08
879.004	34.06
879.381	34.06
879.758	34.07
880.135	34.06
880.512	34.05
880.889	34.07
881.265	34.07
881.642	34.08
882.019	34.1
882.395	34.1
882.772	34.07
883.148	34.04
883.524	34.04
883.901	34.05
884.277	34.06
884.653	34.05
885.029	34.04
885.405	34.03
885.781	33.99
886.157	34
886.532	34.02
886.908	34.02
887.284	34.04
887.659	34.02
888.035	34
888.411	34
888.786	34.01
889.161	34
889.537	34.02
889.912	34.03
890.287	34.02
890.662	34
891.037	34.02
891.412	34
891.787	34
892.162	33.99
892.536	33.98
892.911	33.97
893.286	33.99
893.66	33.98
894.035	33.98
894.409	33.98
894.784	33.98
895.158	33.96
895.532	33.97
895.906	33.95
896.281	33.95
896.655	33.95
897.029	33.94
897.402	33.93
897.776	33.93
898.15	33.92
898.524	33.92
898.898	33.93
899.271	33.95
899.645	33.96
900.018	33.99
900.392	34
900.765	34.01
901.138	34
901.511	34
901.884	34
902.258	33.99
902.631	33.98
903.003	33.99
903.376	33.97
903.749	33.96
904.122	33.97
904.495	33.96
904.867	33.97
905.24	33.98
905.612	33.98
905.985	33.97
906.357	33.95
906.729	33.97
907.102	33.94
907.474	33.97
907.846	33.95
908.218	33.92
908.59	33.92
908.962	33.91
909.334	33.93
909.705	33.93
910.077	33.94
910.449	33.96
910.82	33.94
911.192	33.94
911.563	33.92
911.935	33.91
912.306	33.94
912.677	33.94
913.048	33.96
913.419	33.93
913.79	33.94
914.161	33.94
914.532	33.93
914.903	33.94
915.274	33.95
915.645	33.97
916.015	33.99
916.386	33.99
916.756	33.97
917.127	33.96
917.497	33.98
917.868	33.97
918.238	33.94
918.608	33.95
918.978	33.94
919.348	33.96
919.718	33.95
920.088	33.94
920.458	33.94
920.828	33.94
921.198	33.93
921.567	33.95
921.937	33.96
922.306	33.95
922.676	33.95
923.045	33.95
923.415	33.94
923.784	33.95
924.153	33.97
924.522	33.96
924.891	33.96
925.26	33.98
925.629	33.95
925.998	33.96
926.367	33.98
926.736	33.97
927.104	33.99
927.473	34
927.842	33.97
928.21	33.95
928.578	33.95
928.947	33.98
929.315	33.98
929.683	33.97
930.051	33.91
930.42	33.93
930.788	33.92
931.156	33.88
931.523	33.84
931.891	33.88
932.259	33.89
932.627	33.91
932.994	33.89
933.362	33.87
933.729	33.9
934.097	33.94
934.464	33.95
934.831	33.95
935.199	33.97
935.566	33.99
935.933	33.96
936.3	33.96
936.667	33.92
937.034	33.96
937.401	33.98
937.767	33.99
938.134	33.94
938.501	33.92
938.867	33.95
939.234	33.97
939.6	33.98
939.967	34.02
940.333	34
940.699	34.04
941.065	33.98
941.431	33.94
941.798	33.92
942.163	33.91
942.529	33.9
942.895	33.9
943.261	33.86
943.627	33.86
943.992	33.81
944.358	33.79
944.723	33.73
945.089	33.73
945.454	33.75
945.82	33.73
946.185	33.74
946.55	33.67
946.915	33.65
947.28	33.64
947.645	33.66
948.01	33.69
948.375	33.7
948.74	33.69
949.104	33.68
949.469	33.68
949.834	33.64
950.198	33.61
950.562	33.66
950.927	33.65
951.291	33.6
951.655	33.51
952.02	33.46
952.384	33.37
952.748	33.37
953.112	33.35
953.476	33.32
953.839	33.31
954.203	33.3
954.567	33.28
954.931	33.21
955.294	33.2
955.658	33.29
956.021	33.3
956.385	33.37
956.748	33.34
957.111	33.38
957.474	33.35
957.837	33.34
958.2	33.31
958.563	33.3
958.926	33.4
959.289	33.45
959.652	33.42
960.015	33.45
960.377	33.45
960.74	33.48
961.102	33.47
961.465	33.5
961.827	33.51
962.189	33.57
962.552	33.53
962.914	33.48
963.276	33.47
963.638	33.47
964	33.46
964.362	33.44
964.724	33.43
965.085	33.41
965.447	33.36
965.809	33.39
966.17	33.36
966.532	33.42
966.893	33.46
967.255	33.49
967.616	33.5
967.977	33.48
968.338	33.49
968.699	33.5
969.061	33.53
969.421	33.53
969.782	33.56
970.143	33.56
970.504	33.55
970.865	33.58
971.225	33.52
971.586	33.5
971.946	33.47
972.307	33.46
972.667	33.45
973.027	33.45
973.388	33.5
973.748	33.5
974.108	33.55
974.468	33.51
974.828	33.52
975.188	33.55
975.548	33.53
975.907	33.57
976.267	33.55
976.627	33.55
976.986	33.55
977.346	33.51
977.705	33.52
978.064	33.53
978.424	33.59
978.783	33.57
979.142	33.58
979.501	33.58
979.86	33.61
980.219	33.62
980.578	33.62
980.937	33.61
981.296	33.65
981.654	33.66
982.013	33.65
982.371	33.65
982.73	33.64
983.088	33.61
983.447	33.57
983.805	33.54
984.163	33.56
984.521	33.58
984.879	33.54
985.237	33.56
985.595	33.58
985.953	33.48
986.311	33.42
986.669	33.36
987.026	33.32
987.384	33.38
987.741	33.37
988.099	33.35
988.456	33.3
988.814	33.29
989.171	33.24
989.528	33.19
989.885	33.19
990.242	33.19
990.599	33.24
990.956	33.4
991.313	33.41
991.67	33.42
992.027	33.49
992.383	33.51
992.74	33.62
993.096	33.62
993.453	33.54
993.809	33.61
994.165	33.71
994.522	33.75
994.878	33.64
995.234	33.61
995.59	33.6
995.946	33.57
996.302	33.52
996.658	33.48
997.013	33.47
997.369	33.57
997.725	33.52
998.08	33.46
998.436	33.43
998.791	33.5
999.147	33.55
999.502	33.61
999.857	33.62
1000.212	33.55
1000.567	33.53
1000.922	33.52
1001.277	33.44
1001.632	33.4
1001.987	33.43
1002.342	33.34
1002.696	33.27
1003.051	33.28
1003.406	33.25
1003.76	33.18
1004.114	33.22
1004.469	33.23
1004.823	33.51
1005.177	33.63
1005.531	33.62
1005.885	33.59
1006.239	33.59
1006.593	33.59
1006.947	33.56
1007.301	33.5
1007.655	33.53
1008.008	33.57
1008.362	33.6
1008.715	33.32
1009.069	33.35
1009.422	33.44
1009.776	33.55
1010.129	33.57
1010.482	33.69
1010.835	33.7
1011.188	33.75
1011.541	33.74
1011.894	33.9
1012.247	33.81
1012.6	33.9
1012.952	33.84
1013.305	33.9
1013.657	33.81
1014.01	33.89
1014.362	33.81
1014.715	33.86
1015.067	33.94
1015.419	34.02
1015.771	33.9
1016.123	33.82
1016.475	33.66
1016.827	33.66
1017.179	33.63
1017.531	33.52
1017.883	33.4
1018.234	33.41
1018.586	33.26
1018.938	33.2
1019.289	33.05
1019.64	33.07
1019.992	33.19
1020.343	33.38
1020.694	33.35
1021.045	33.13
1021.396	33.17
1021.747	33.22
1022.098	33.28
1022.449	33.39
1022.8	33.47
1023.151	33.57
1023.501	33.48
1023.852	33.6
1024.202	33.33
1024.553	33.38
1024.903	33.54
1025.253	33.61
1025.604	33.71
1025.954	33.6
1026.304	33.47
1026.654	33.49
1027.004	33.26
1027.354	33.49
1027.703	33.27
1028.053	33.16
1028.403	33.24
1028.753	32.98
1029.102	33.04
1029.452	33.02
1029.801	33.03
1030.15	33.08
1030.499	32.86
897.758	648.37
901.051	656.09
904.343	653.95
907.636	664.24
910.928	647.26
914.22	650.55
917.511	640.11
920.803	609.08
924.094	607.36
927.384	592.59
930.675	572.42
933.965	570.55
937.255	534.13
940.544	515.28
943.834	491.22
947.123	486.74
950.411	457.22
953.7	450.12
956.988	429.24
960.276	414.39
963.563	406.05
966.851	393.74
970.138	388.56
973.424	378.46
976.711	380.56
979.997	362.57
983.283	360.19
986.568	352.96
989.853	342.87
993.138	336.19
996.423	323.39
999.708	316.08
1002.992	309.69
1006.275	297.95
1009.559	295.54
1012.842	284.89
1016.125	278.6
1019.408	273.23
1022.69	270.88
1025.972	264.31
1029.254	259.56
1032.536	254.61
1035.817	250.55
1039.098	247.92
1042.379	243.41
1045.659	240.77
1048.939	234.49
1052.219	229.81
1055.498	227.59
1058.778	220.93
1062.057	217.18
1065.335	214.2
1068.614	212.27
1071.892	208.93
1075.17	203.51
1078.447	198.98
1081.724	197.41
1085.001	196.24
1088.278	193.31
1091.554	188.88
1094.83	190.57
1098.106	188.41
1101.382	187.71
1104.657	186.51
1107.932	184.15
1111.206	184.42
1114.481	180.92
1117.755	179.9
1121.029	178.27
1124.302	177.1
1127.575	174.97
1130.848	172.15
1134.121	171.66
1137.393	169.69
1140.665	167.21
1143.937	165.93
1147.208	165.26
1150.48	164.82
1153.75	162.14
1157.021	160.93
1160.291	160.97
1163.561	158.71
1166.831	159.08
1170.101	157.36
1173.37	158.01
1176.639	157.71
1179.907	156.25
1183.176	154.32
1186.444	154.36
1189.711	154.68
1192.979	153.91
1196.246	152.8
1199.513	153.38
1202.78	152.8
1206.046	152.87
1209.312	151.09
1212.578	151.09
1215.843	152.24
1219.108	152.51
1222.373	154.95
1225.638	155.89
1228.902	157.06
1232.166	158.34
1235.43	159.06
1238.693	159.81
1241.956	161.17
1245.219	163.36
1248.482	163.57
1251.744	163.74
1255.006	163.52
1258.268	160.79
1261.529	159.21
1264.79	158.74
1268.051	157.24
1271.312	155.85
1274.572	154.71
1277.832	153.3
1281.092	150.2
1284.351	149.25
1287.61	149.4
1290.869	147.15
1294.128	146.31
1297.386	145.85
1300.644	144.87
1303.902	144.94
1307.159	144.92
1310.416	144.62
1313.673	143.96
1316.93	145.6
1320.186	144.76
1323.442	144.97
1326.697	146.6
1329.953	147.26
1333.208	147.86
1336.463	149.76
1339.717	149.99
1342.972	150.82
1346.226	152.24
1349.479	152.79
1352.733	153.62
1355.986	155.68
1359.238	155.5
1362.491	155.89
1365.743	155.71
1368.995	156.33
1372.247	155.55
1375.498	154.68
1378.749	155.99
1382	154.9
1385.251	154.25
1388.501	153.72
1391.751	152.56
1395	152.32
1398.25	151.69
1401.499	150.56
1404.748	149.46
1407.996	147.79
1411.244	147.9
1414.492	146.2
1417.74	143.78
1420.987	143.51
1424.234	141.89
1427.481	140.77
1430.728	140.17
1433.974	138.94
1437.22	138.02
1440.465	137.85
1443.711	136.32
1446.956	135.14
1450.201	134.37
1453.445	134.14
1456.689	132.6
1459.933	130.04
1463.177	129.04
1466.42	126.88
1469.663	125.93
1472.906	125.16
1476.148	122.05
1479.391	121.99
1482.633	121.43
1485.874	119.4
1489.115	117.98
1492.356	116.93
1495.597	117.59
1498.838	115.93
1502.078	115.78
1505.318	115.31
1508.557	115.03
1511.797	114.97
1515.036	113.26
1518.274	113.5
1521.513	113.25
1524.751	112.99
1527.989	112.86
1531.227	112.76
1534.464	112.9
1537.701	112.13
1540.938	111.65
1544.174	110.78
1547.41	111.11
1550.646	110.63
1553.882	110.05
1557.117	108.84
1560.352	108.38
1563.587	108.63
1566.821	107.82
1570.055	107.03
1573.289	106.97
1576.523	107.07
1579.756	106.71
1582.989	106.3
1586.222	106.24
1589.454	105.64
1592.686	106.62
1595.918	106.13
1599.15	105.38
1602.381	105.81
1605.612	106.04
1608.843	105.95
1612.073	105.74
1615.303	105.96
1618.533	105.47
1621.762	106.01
1624.992	106.5
1628.221	105.89
1631.449	105.47
1634.678	105.82
1637.906	106.17
1641.134	105.79
1644.361	105.52
1647.588	106.16
1650.815	106.15
1654.042	106.52
1657.269	106.52
1660.495	106.43
1663.72	106.39
1666.946	107.08
1670.171	107.22
1673.396	107
1676.621	107.86
1679.845	107.84
1683.069	107.82
1686.293	107.94
1689.517	108.68
1692.74	108.74
1695.963	108.71
1699.185	109.33
1702.408	109.66
1705.63	110.13
1708.852	110.19
1712.073	109.99
1715.294	110.4
1718.515	110.69
1721.736	110.86
1724.956	110.77
1728.176	110.86
1731.396	111.32
1734.616	110.86
1737.835	111.27
1741.054	110.08
1744.272	110.95
1747.491	111.35
1750.709	111.29
1753.927	111.04
1757.144	111.3
1760.361	111.07
1763.578	111.35
1766.795	111.12
1770.011	112.47
1773.227	111.95
1776.443	113.46
1779.658	112.9
1782.874	113.77
1786.089	114.08
1789.303	114.38
1792.518	115.44
1795.732	115.43
1798.945	116.64
1802.159	117.11
1805.372	116.91
1808.585	118.64
1811.797	118.46
1815.01	119.49
1818.222	119.58
1821.434	120.45
1824.645	120.73
1827.856	122.52
1831.067	122.91
1834.278	122.75
1837.488	123.6
1840.698	124.29
1843.908	123.67
1847.117	124.17
1850.326	124.31
1853.535	123.63
1856.744	125.1
1859.952	124.73
1863.16	123.45
1866.368	123.24
1869.575	123.4
1872.782	121.74
1875.989	120.25
1879.196	119.81
1882.402	118.56
1885.608	118.2
1888.814	117.97
1892.019	116.75
1895.224	116.29
1898.429	115.05
1901.634	114.8
1904.838	115.3
1908.042	115.84
1911.246	115.79
1914.449	115.89
1917.652	116.51
1920.855	116.17
1924.058	116.15
1927.26	115.78
1930.462	115.63
1933.664	117.02
1936.865	116.82
1940.066	115.5
1943.267	114.35
1946.467	115.44
1949.668	115.53
1952.868	116.88
1956.067	117.49
1959.267	117.41
1962.466	118.12
1965.665	118.05
1968.863	118.27
1972.061	119.44
1975.259	120.47
1978.457	122.6
1981.654	122.86
1984.852	123.6
1988.048	122.99
1991.245	123.66
1994.441	125
1997.637	126.34
2000.833	129.48
2004.028	130.67
2007.223	132.14
2010.418	133.23
2013.613	135.41
2016.807	138.18
2020.001	139.82
2023.194	141.85
2026.388	146.03
2029.581	149.08
2032.774	150.06
2035.966	151.58
2039.158	152.65
2042.35	155.33
2045.542	157.76
2048.733	158.87
2051.924	160.1
2055.115	162.92
2058.306	163.33
2061.496	163.57
2064.686	164.06
2067.875	166.46
2071.065	167.52
2074.254	167.67
2077.442	168.8
2080.631	168.56
2083.819	171.28
2087.007	172.11
2090.195	172.65
2093.382	175.14
2096.569	175.06
2099.756	177.33
2102.942	178.63
2106.128	179.98
2109.314	183.79
2112.5	183.95
2115.685	187.51
2118.87	187.79
2122.055	190.97
2125.239	192.75
2128.424	195.3
2131.608	196.49
2134.791	199.99
2137.974	200.34
2141.157	201.2
2144.34	201.34
2147.523	203.17
2150.705	202.55
2153.887	205.36
2157.068	206.11
2160.25	205.29
2163.431	205.57
2166.611	208.16
2169.792	211.04
2172.972	213.1
2176.152	214.62
2179.331	216.74
2182.511	220.47
2185.69	221.77
2188.868	224.64
2192.047	225.7
2195.225	231.86
2198.403	235.22
2201.58	239.89
2204.758	244.54
2207.935	248.66
2211.111	254.1
2214.288	257.38
2217.464	257.76
2220.64	265.57
2223.815	268.2
2226.991	277.09
2230.166	276.34
2233.34	281.58
2236.515	285.88
2239.689	285.9
2242.863	287.39
2246.036	293.54
2249.209	292.35
2252.382	297.51
2255.555	303.46
2258.727	305.63
2261.9	310.75
2265.071	314.85
2268.243	318.32
2271.414	322.16
2274.585	327.97
2277.756	333.17
2280.926	338.8
2284.096	345.66
2287.266	351.05
2290.436	353.13
2293.605	360.23
2296.774	366.13
2299.942	375.93
2303.111	382.8
2306.279	388.94
2309.447	394.75
2312.614	405.05
2315.781	412.6
2318.948	431.05
2322.115	429.29
2325.281	452.19
2328.447	444.82
2331.613	460.73
2334.779	457.17
2337.944	475.89
2341.109	479.77
2344.274	497.38
2347.438	511.36
2350.602	507.49
2353.766	524.68
2356.929	534.28
2360.092	528.66
2363.255	566.04
2366.418	569.76
2369.58	576.66
2372.742	608.35
2375.904	625.45
2379.066	617.53
2382.227	606.24
2385.388	658.99
2388.548	657.98
2391.709	660.66
2394.869	738.74
2398.029	707.85
2401.188	727.35
2404.347	727.45
2407.506	716.07
2410.665	731.61
2413.823	778.61
2416.981	827.37
2420.139	802.83
2423.296	794.78
2426.453	832.8
2429.61	797.21
2432.767	830.53
2435.923	822.48
2439.079	901.65
2442.235	918.72
2445.391	915.51
2448.546	900.55
2451.701	873.55
2454.855	873.84
2458.009	920.44
2461.163	959.35
2464.317	996.56
2467.471	1021.38
2470.624	1022.93
2473.777	995.53
2476.929	967.83
2480.082	938.07
2483.234	934.27
2486.385	982.82
2489.537	988.02
2492.688	1029.57
2495.839	996.58
2498.989	973.78
2502.14	978.43
2505.29	982.67
2508.439	997.2
2511.589	993.25
2514.738	1086.01
2517.887	1062.32
2521.035	1118.28
2524.183	1120.14
2527.331	1127.05
2530.479	1122.33
2533.627	1131.02
