Data from N_2_DEC_VA_2N_Splice17_13-07-44-139.txt Node
Date: Sat Mar 07 13:07:44 EST 2020
User: sa697716
Spectrometer: NQ5500242
Trigger mode: 0
Integration Time (sec): 1.450000E-1
Scans to average: 20
Nonlinearity correction enabled: false
Boxcar width: 5
Storing dark spectrum: false
XAxis mode: Wavelengths
Number of Pixels in Spectrum: 512
>>>>>Begin Spectral Data<<<<<
187.83	168.28
188.298	192.62
188.766	165.44
189.233	127.51
189.701	132.99
190.169	158.46
190.636	153.44
191.104	194.78
191.571	95.63
192.039	155.85
192.506	50.16
192.974	192.11
193.441	226.6
193.908	60.49
194.375	59.91
194.842	35.9
195.31	105.64
195.777	235.25
196.244	57.29
196.711	45.22
197.177	46.24
197.644	43.82
198.111	42.97
198.578	43.3
199.045	43.65
199.511	43.14
199.978	42.79
200.445	42.77
200.911	42.5
201.378	42.36
201.844	42.22
202.31	41.83
202.777	41.94
203.243	41.88
203.709	41.64
204.176	41.04
204.642	41.01
205.108	41.17
205.574	40.78
206.04	40.19
206.506	39.9
206.972	39.85
207.438	39.47
207.903	38.76
208.369	38.06
208.835	37.37
209.301	36.57
209.766	35.32
210.232	34.24
210.697	33.37
211.163	32.89
211.628	32.13
212.094	31.08
212.559	30.64
213.024	30.03
213.49	29.22
213.955	28.56
214.42	28
214.885	27.21
215.35	26.35
215.815	25.17
216.28	23.24
216.745	21.2
217.21	19.4
217.675	17.55
218.14	16.13
218.604	14.86
219.069	13.81
219.534	12.95
219.998	12.22
220.463	11.58
220.927	10.99
221.392	10.59
221.856	10.29
222.32	10.01
222.785	9.77
223.249	9.51
223.713	9.29
224.177	9.1
224.642	8.9
225.106	8.71
225.57	8.52
226.034	8.36
226.497	8.22
226.961	8.07
227.425	7.94
227.889	7.8
228.353	7.68
228.816	7.57
229.28	7.44
229.744	7.32
230.207	7.21
230.671	7.09
231.134	7
231.597	6.92
232.061	6.82
232.524	6.71
232.987	6.62
233.45	6.55
233.914	6.47
234.377	6.39
234.84	6.3
235.303	6.25
235.766	6.2
236.229	6.13
236.691	6.05
237.154	5.99
237.617	5.94
238.08	5.88
238.542	5.8
239.005	5.77
239.468	5.71
239.93	5.65
240.393	5.6
240.855	5.52
241.317	5.47
241.78	5.41
242.242	5.35
242.704	5.31
243.166	5.26
243.629	5.22
244.091	5.15
244.553	5.11
245.015	5.06
245.477	5.01
245.939	4.97
246.4	4.92
246.862	4.88
247.324	4.84
247.786	4.8
248.247	4.75
248.709	4.7
249.17	4.65
249.632	4.62
250.093	4.59
250.555	4.56
251.016	4.54
251.477	4.5
251.939	4.47
252.4	4.44
252.861	4.41
253.322	4.39
253.783	4.37
254.244	4.36
254.705	4.32
255.166	4.29
255.627	4.26
256.088	4.24
256.549	4.21
257.009	4.18
257.47	4.15
257.931	4.11
258.391	4.08
258.852	4.04
259.312	4.02
259.773	3.99
260.233	3.97
260.694	3.95
261.154	3.92
261.614	3.9
262.074	3.88
262.534	3.86
262.994	3.85
263.455	3.83
263.915	3.81
264.374	3.8
264.834	3.78
265.294	3.76
265.754	3.75
266.214	3.74
266.673	3.73
267.133	3.72
267.593	3.71
268.052	3.7
268.512	3.69
268.971	3.68
269.431	3.67
269.89	3.67
270.349	3.66
270.809	3.65
271.268	3.64
271.727	3.62
272.186	3.61
272.645	3.6
273.104	3.59
273.563	3.58
274.022	3.57
274.481	3.56
274.94	3.55
275.399	3.54
275.857	3.53
276.316	3.52
276.775	3.51
277.233	3.51
277.692	3.51
278.15	3.5
278.609	3.5
279.067	3.5
279.525	3.49
279.984	3.49
280.442	3.48
280.9	3.49
281.358	3.49
281.816	3.49
282.274	3.48
282.732	3.48
283.19	3.47
283.648	3.46
284.106	3.45
284.564	3.44
285.021	3.44
285.479	3.43
285.937	3.42
286.394	3.41
286.852	3.4
287.309	3.39
287.767	3.37
288.224	3.36
288.682	3.34
289.139	3.33
289.596	3.31
290.053	3.3
290.511	3.28
290.968	3.27
291.425	3.25
291.882	3.24
292.339	3.22
292.796	3.22
293.252	3.21
293.709	3.21
294.166	3.2
294.623	3.19
295.079	3.18
295.536	3.18
295.992	3.17
296.449	3.17
296.905	3.16
297.362	3.16
297.818	3.15
298.274	3.14
298.731	3.13
299.187	3.12
299.643	3.11
300.099	3.11
300.555	3.1
301.011	3.09
301.467	3.08
301.923	3.08
302.379	3.07
302.835	3.07
303.291	3.06
303.746	3.06
304.202	3.06
304.658	3.06
305.113	3.06
305.569	3.06
306.024	3.06
306.479	3.05
306.935	3.04
307.39	3.04
307.845	3.05
308.301	3.04
308.756	3.04
309.211	3.03
309.666	3.04
310.121	3.04
310.576	3.03
311.031	3.03
311.486	3.03
311.94	3.03
312.395	3.03
312.85	3.02
313.305	3.02
313.759	3.03
314.214	3.03
314.668	3.02
315.123	3.02
315.577	3.02
316.032	3.01
316.486	3
316.94	3
317.394	2.99
317.849	2.97
318.303	2.96
318.757	2.94
319.211	2.93
319.665	2.92
320.119	2.91
320.572	2.89
321.026	2.88
321.48	2.88
321.934	2.86
322.387	2.85
322.841	2.85
323.295	2.85
323.748	2.85
324.202	2.85
324.655	2.84
325.108	2.84
325.562	2.85
326.015	2.85
326.468	2.84
326.921	2.85
327.374	2.85
327.827	2.85
328.28	2.84
328.733	2.85
329.186	2.85
329.639	2.85
330.092	2.84
330.545	2.84
330.997	2.84
331.45	2.85
331.903	2.85
332.355	2.86
332.808	2.87
333.26	2.86
333.713	2.85
334.165	2.85
334.617	2.85
335.069	2.84
335.522	2.85
335.974	2.86
336.426	2.85
336.878	2.84
337.33	2.83
337.782	2.83
338.234	2.84
338.686	2.84
339.137	2.85
339.589	2.84
340.041	2.85
340.493	2.84
340.944	2.82
341.396	2.82
341.847	2.82
342.299	2.8
342.75	2.79
343.201	2.77
343.653	2.76
344.104	2.74
344.555	2.73
345.006	2.72
345.457	2.71
345.908	2.7
346.359	2.7
346.81	2.7
347.261	2.7
347.712	2.69
348.163	2.69
348.613	2.69
349.064	2.7
349.515	2.7
349.965	2.69
350.416	2.69
350.866	2.69
351.317	2.68
351.767	2.69
352.217	2.69
352.668	2.68
353.118	2.69
353.568	2.68
354.018	2.69
354.468	2.69
354.918	2.7
355.368	2.7
355.818	2.7
356.268	2.69
356.718	2.7
357.168	2.7
357.617	2.69
358.067	2.69
358.517	2.7
358.966	2.69
359.416	2.7
359.865	2.69
360.315	2.69
360.764	2.69
361.213	2.69
361.663	2.69
362.112	2.69
362.561	2.7
363.01	2.7
363.459	2.69
363.908	2.68
364.357	2.68
364.806	2.68
365.255	2.68
365.703	2.69
366.152	2.7
366.601	2.71
367.05	2.71
367.498	2.71
367.947	2.72
368.395	2.74
368.844	2.74
369.292	2.75
369.74	2.76
370.189	2.77
370.637	2.76
371.085	2.76
371.533	2.77
371.981	2.78
372.429	2.8
372.877	2.81
373.325	2.82
373.773	2.84
374.221	2.86
374.669	2.88
375.116	2.9
375.564	2.93
376.012	2.95
376.459	2.98
376.907	3.02
377.354	3.05
377.801	3.09
378.249	3.13
378.696	3.18
379.143	3.22
379.591	3.27
380.038	3.33
380.485	3.38
380.932	3.44
381.379	3.5
381.826	3.55
382.273	3.6
382.72	3.65
383.166	3.71
383.613	3.77
384.06	3.83
384.506	3.9
384.953	3.96
385.4	4.03
385.846	4.11
386.292	4.18
386.739	4.25
387.185	4.32
387.631	4.41
388.078	4.48
388.524	4.56
388.97	4.65
389.416	4.73
389.862	4.82
390.308	4.9
390.754	4.98
391.2	5.06
391.645	5.12
392.091	5.21
392.537	5.28
392.983	5.35
393.428	5.42
393.874	5.48
394.319	5.55
394.765	5.6
395.21	5.66
395.655	5.72
396.101	5.77
396.546	5.81
396.991	5.86
397.436	5.91
397.881	5.97
398.326	6.02
398.771	6.06
399.216	6.09
399.661	6.12
400.106	6.14
400.551	6.16
400.995	6.18
401.44	6.19
401.885	6.2
402.329	6.21
402.774	6.21
403.218	6.22
403.663	6.22
404.107	6.22
404.551	6.21
404.995	6.21
405.44	6.2
405.884	6.19
406.328	6.19
406.772	6.17
407.216	6.16
407.66	6.14
408.104	6.11
408.547	6.08
408.991	6.07
409.435	6.05
409.879	6.04
410.322	6.03
410.766	6.02
411.209	6.01
411.653	6
412.096	5.99
412.54	5.99
412.983	5.97
413.426	5.98
413.869	5.97
414.312	5.98
414.756	5.96
415.199	5.95
415.642	5.94
416.085	5.93
416.527	5.9
416.97	5.88
417.413	5.85
417.856	5.84
418.298	5.81
418.741	5.8
419.184	5.78
419.626	5.76
420.069	5.75
420.511	5.73
420.953	5.72
421.396	5.73
421.838	5.71
422.28	5.71
422.722	5.69
423.164	5.66
423.606	5.64
424.048	5.61
424.49	5.59
424.932	5.55
425.374	5.5
425.816	5.46
426.258	5.4
426.699	5.37
427.141	5.34
427.582	5.33
428.024	5.32
428.465	5.3
428.907	5.27
429.348	5.24
429.789	5.23
430.231	5.23
430.672	5.23
431.113	5.24
431.554	5.23
431.995	5.23
432.436	5.22
432.877	5.21
433.318	5.23
433.759	5.25
434.2	5.27
434.64	5.29
435.081	5.3
435.522	5.32
435.962	5.34
436.403	5.37
436.843	5.4
437.284	5.43
437.724	5.44
438.164	5.43
438.604	5.46
439.045	5.49
439.485	5.52
439.925	5.55
440.365	5.59
440.805	5.63
441.245	5.68
441.685	5.72
442.125	5.78
442.564	5.85
443.004	5.91
443.444	5.97
443.883	6.05
444.323	6.11
444.762	6.19
445.202	6.27
445.641	6.34
446.081	6.42
446.52	6.49
446.959	6.58
447.398	6.65
447.837	6.74
448.276	6.82
448.716	6.9
449.154	6.99
449.593	7.07
450.032	7.13
450.471	7.19
450.91	7.23
451.349	7.29
451.787	7.33
452.226	7.39
452.664	7.43
453.103	7.46
453.541	7.5
453.98	7.53
454.418	7.54
454.856	7.55
455.295	7.57
455.733	7.57
456.171	7.59
456.609	7.6
457.047	7.6
457.485	7.61
457.923	7.63
458.361	7.63
458.798	7.63
459.236	7.64
459.674	7.65
460.111	7.64
460.549	7.66
460.987	7.65
461.424	7.67
461.862	7.69
462.299	7.69
462.736	7.69
463.173	7.69
463.611	7.7
464.048	7.72
464.485	7.72
464.922	7.74
465.359	7.74
465.796	7.77
466.233	7.77
466.67	7.76
467.106	7.77
467.543	7.76
467.98	7.77
468.416	7.75
468.853	7.73
469.29	7.74
469.726	7.74
470.162	7.74
470.599	7.73
471.035	7.71
471.471	7.72
471.907	7.71
472.344	7.72
472.78	7.73
473.216	7.73
473.652	7.76
474.088	7.76
474.523	7.78
474.959	7.79
475.395	7.78
475.831	7.81
476.266	7.81
476.702	7.82
477.138	7.84
477.573	7.84
478.008	7.88
478.444	7.88
478.879	7.9
479.314	7.91
479.75	7.93
480.185	7.93
480.62	7.94
481.055	7.96
481.49	7.98
481.925	8
482.36	8.03
482.795	8.05
483.229	8.08
483.664	8.13
484.099	8.15
484.534	8.19
484.968	8.24
485.403	8.3
485.837	8.37
486.271	8.44
486.706	8.51
487.14	8.59
487.574	8.67
488.009	8.75
488.443	8.83
488.877	8.95
489.311	9.06
489.745	9.18
490.179	9.3
490.613	9.42
491.046	9.54
491.48	9.66
491.914	9.8
492.348	9.94
492.781	10.1
493.215	10.27
493.648	10.42
494.082	10.58
494.515	10.74
494.948	10.91
495.382	11.09
495.815	11.29
496.248	11.49
496.681	11.7
497.114	11.91
497.547	12.12
497.98	12.35
498.413	12.58
498.846	12.82
499.279	13.08
499.711	13.33
500.144	13.59
500.577	13.85
501.009	14.11
501.442	14.39
501.874	14.67
502.306	14.97
502.739	15.27
503.171	15.58
503.603	15.87
504.036	16.19
504.468	16.51
504.9	16.84
505.332	17.17
505.764	17.51
506.196	17.85
506.627	18.2
507.059	18.55
507.491	18.9
507.923	19.26
508.354	19.64
508.786	20.02
509.217	20.39
509.649	20.76
510.08	21.15
510.512	21.54
510.943	21.9
511.374	22.27
511.805	22.66
512.237	23.02
512.668	23.38
513.099	23.74
513.53	24.09
513.961	24.46
514.391	24.82
514.822	25.18
515.253	25.52
515.684	25.88
516.114	26.24
516.545	26.57
516.975	26.93
517.406	27.27
517.836	27.6
518.267	27.94
518.697	28.25
519.127	28.53
519.558	28.84
519.988	29.14
520.418	29.42
520.848	29.7
521.278	29.96
521.708	30.28
522.138	30.53
522.567	30.79
522.997	31.01
523.427	31.25
523.857	31.48
524.286	31.67
524.716	31.89
525.145	32.1
525.575	32.3
526.004	32.49
526.433	32.59
526.863	32.78
527.292	32.94
527.721	33.09
528.15	33.23
528.579	33.36
529.008	33.51
529.437	33.62
529.866	33.73
530.295	33.86
530.724	33.97
531.152	34.09
531.581	34.19
532.01	34.27
532.438	34.38
532.867	34.5
533.295	34.59
533.723	34.67
534.152	34.76
534.58	34.84
535.008	34.88
535.436	34.94
535.865	34.99
536.293	35.04
536.721	35.09
537.149	35.13
537.576	35.17
538.004	35.22
538.432	35.25
538.86	35.28
539.287	35.3
539.715	35.34
540.143	35.36
540.57	35.4
540.998	35.41
541.425	35.44
541.852	35.47
542.28	35.49
542.707	35.53
543.134	35.54
543.561	35.56
543.988	35.58
544.415	35.59
544.842	35.61
545.269	35.62
545.696	35.63
546.123	35.65
546.549	35.66
546.976	35.67
547.403	35.66
547.829	35.66
548.256	35.69
548.682	35.69
549.108	35.72
549.535	35.73
549.961	35.72
550.387	35.73
550.813	35.74
551.24	35.74
551.666	35.7
552.092	35.69
552.518	35.69
552.943	35.67
553.369	35.66
553.795	35.63
554.221	35.62
554.646	35.61
555.072	35.58
555.498	35.53
555.923	35.49
556.349	35.46
556.774	35.42
557.199	35.36
557.625	35.31
558.05	35.23
558.475	35.18
558.9	35.12
559.325	35.05
559.75	34.97
560.175	34.89
560.6	34.8
561.025	34.72
561.449	34.65
561.874	34.57
562.299	34.49
562.723	34.41
563.148	34.31
563.572	34.19
563.997	34.08
564.421	33.98
564.846	33.88
565.27	33.79
565.694	33.69
566.118	33.57
566.542	33.46
566.966	33.32
567.39	33.2
567.814	33.08
568.238	32.95
568.662	32.84
569.086	32.72
569.509	32.62
569.933	32.5
570.357	32.37
570.78	32.25
571.204	32.13
571.627	32.04
572.05	31.93
572.474	31.83
572.897	31.74
573.32	31.63
573.743	31.51
574.166	31.39
574.589	31.28
575.012	31.17
575.435	31.06
575.858	30.96
576.281	30.84
576.704	30.73
577.126	30.63
577.549	30.53
577.972	30.43
578.394	30.33
578.817	30.24
579.239	30.16
579.661	30.07
580.084	29.97
580.506	29.88
580.928	29.79
581.35	29.7
581.772	29.6
582.194	29.52
582.616	29.43
583.038	29.35
583.46	29.26
583.882	29.17
584.303	29.08
584.725	29.02
585.147	28.94
585.568	28.88
585.99	28.83
586.411	28.76
586.833	28.67
587.254	28.59
587.675	28.52
588.096	28.46
588.518	28.41
588.939	28.38
589.36	28.32
589.781	28.26
590.202	28.2
590.623	28.14
591.043	28.09
591.464	28.06
591.885	28.02
592.305	27.99
592.726	27.96
593.147	27.92
593.567	27.87
593.987	27.83
594.408	27.79
594.828	27.77
595.248	27.75
595.669	27.71
596.089	27.67
596.509	27.64
596.929	27.6
597.349	27.55
597.769	27.51
598.189	27.46
598.608	27.44
599.028	27.4
599.448	27.36
599.867	27.3
600.287	27.25
600.706	27.21
601.126	27.16
601.545	27.11
601.965	27.07
602.384	27.01
602.803	26.97
603.222	26.9
603.641	26.83
604.061	26.77
604.48	26.7
604.898	26.63
605.317	26.56
605.736	26.5
606.155	26.43
606.574	26.35
606.992	26.25
607.411	26.16
607.829	26.05
608.248	25.94
608.666	25.86
609.085	25.77
609.503	25.68
609.921	25.58
610.339	25.47
610.758	25.38
611.176	25.27
611.594	25.19
612.012	25.09
612.43	25.02
612.847	24.94
613.265	24.83
613.683	24.74
614.101	24.66
614.518	24.57
614.936	24.48
615.353	24.38
615.771	24.29
616.188	24.21
616.606	24.13
617.023	24.06
617.44	23.99
617.857	23.92
618.274	23.84
618.691	23.77
619.108	23.7
619.525	23.62
619.942	23.57
620.359	23.52
620.776	23.48
621.192	23.43
621.609	23.38
622.026	23.34
622.442	23.3
622.859	23.27
623.275	23.23
623.691	23.2
624.108	23.19
624.524	23.17
624.94	23.14
625.356	23.1
625.772	23.08
626.188	23.07
626.604	23.05
627.02	23.04
627.436	23.03
627.852	23
628.268	23
628.683	22.97
629.099	22.95
629.514	22.93
629.93	22.92
630.345	22.88
630.761	22.84
631.176	22.78
631.591	22.72
632.007	22.66
632.422	22.6
632.837	22.51
633.252	22.44
633.667	22.34
634.082	22.23
634.497	22.11
634.911	22
635.326	21.88
635.741	21.76
636.155	21.62
636.57	21.49
636.984	21.36
637.399	21.19
637.813	21.02
638.228	20.86
638.642	20.69
639.056	20.51
639.47	20.32
639.884	20.12
640.298	19.92
640.712	19.72
641.126	19.5
641.54	19.27
641.954	19.06
642.368	18.84
642.781	18.65
643.195	18.45
643.609	18.25
644.022	18.04
644.436	17.85
644.849	17.67
645.262	17.48
645.676	17.31
646.089	17.15
646.502	17.01
646.915	16.87
647.328	16.72
647.741	16.59
648.154	16.47
648.567	16.37
648.98	16.26
649.393	16.17
649.805	16.09
650.218	16
650.631	15.93
651.043	15.84
651.456	15.76
651.868	15.67
652.28	15.57
652.693	15.5
653.105	15.4
653.517	15.29
653.929	15.18
654.341	15.06
654.753	14.93
655.165	14.79
655.577	14.64
655.989	14.49
656.401	14.34
656.813	14.19
657.224	13.99
657.636	13.8
658.047	13.62
658.459	13.42
658.87	13.22
659.282	13.01
659.693	12.81
660.104	12.6
660.515	12.37
660.926	12.15
661.338	11.93
661.749	11.72
662.159	11.52
662.57	11.33
662.981	11.14
663.392	10.94
663.803	10.74
664.213	10.54
664.624	10.36
665.035	10.19
665.445	10.02
665.855	9.86
666.266	9.71
666.676	9.56
667.086	9.41
667.497	9.28
667.907	9.16
668.317	9.05
668.727	8.96
669.137	8.85
669.547	8.77
669.956	8.69
670.366	8.61
670.776	8.53
671.186	8.47
671.595	8.41
672.005	8.36
672.414	8.32
672.824	8.29
673.233	8.27
673.642	8.26
674.052	8.25
674.461	8.25
674.87	8.26
675.279	8.29
675.688	8.31
676.097	8.34
676.506	8.39
676.915	8.44
677.323	8.5
677.732	8.57
678.141	8.66
678.549	8.76
678.958	8.88
679.366	9.01
679.775	9.16
680.183	9.36
680.592	9.57
681	9.8
681.408	10.07
681.816	10.35
682.224	10.68
682.632	11.03
683.04	11.42
683.448	11.83
683.856	12.27
684.264	12.75
684.671	13.24
685.079	13.77
685.487	14.34
685.894	14.92
686.302	15.55
686.709	16.18
687.116	16.85
687.524	17.52
687.931	18.21
688.338	18.92
688.745	19.64
689.152	20.36
689.559	21.09
689.966	21.82
690.373	22.55
690.78	23.28
691.187	24
691.593	24.71
692	25.41
692.407	26.1
692.813	26.77
693.22	27.42
693.626	28.06
694.032	28.69
694.439	29.3
694.845	29.9
695.251	30.46
695.657	31.02
696.063	31.57
696.469	32.1
696.875	32.63
697.281	33.12
697.687	33.61
698.093	34.1
698.498	34.54
698.904	34.98
699.31	35.38
699.715	35.78
700.12	36.17
700.526	36.56
700.931	36.93
701.337	37.3
701.742	37.62
702.147	37.95
702.552	38.27
702.957	38.56
703.362	38.83
703.767	39.11
704.172	39.38
704.577	39.62
704.981	39.86
705.386	40.08
705.791	40.29
706.195	40.54
706.6	40.77
707.004	40.96
707.408	41.19
707.813	41.43
708.217	41.64
708.621	41.85
709.025	42.05
709.43	42.22
709.834	42.42
710.237	42.6
710.641	42.75
711.045	42.91
711.449	43.09
711.853	43.27
712.256	43.4
712.66	43.54
713.064	43.7
713.467	43.82
713.87	43.99
714.274	44.11
714.677	44.23
715.08	44.36
715.484	44.48
715.887	44.64
716.29	44.73
716.693	44.86
717.096	44.99
717.499	45.1
717.901	45.23
718.304	45.33
718.707	45.43
719.109	45.56
719.512	45.67
719.915	45.78
720.317	45.83
720.719	45.91
721.122	45.99
721.524	46.09
721.926	46.19
722.328	46.27
722.731	46.33
723.133	46.43
723.535	46.48
723.937	46.55
724.338	46.63
724.74	46.7
725.142	46.88
725.544	46.92
725.945	46.99
726.347	47.01
726.748	47.05
727.15	47.11
727.551	47.16
727.952	47.2
728.354	47.25
728.755	47.26
729.156	47.29
729.557	47.23
729.958	47.26
730.359	47.28
730.76	47.33
731.161	47.38
731.562	47.42
731.962	47.41
732.363	47.47
732.763	47.49
733.164	47.56
733.564	47.58
733.965	47.62
734.365	47.67
734.766	47.7
735.166	47.72
735.566	47.75
735.966	47.78
736.366	47.81
736.766	47.82
737.166	47.84
737.566	47.85
737.966	47.88
738.365	47.88
738.765	47.91
739.165	47.9
739.564	47.91
739.964	47.9
740.363	47.9
740.763	47.92
741.162	47.93
741.561	47.93
741.96	47.93
742.36	47.93
742.759	47.95
743.158	47.92
743.557	47.92
743.955	47.94
744.354	47.95
744.753	47.98
745.152	48
745.55	47.99
745.949	48.01
746.348	48.03
746.746	48
747.144	47.99
747.543	48.01
747.941	48.03
748.339	48.01
748.737	48
749.136	47.98
749.534	47.96
749.932	47.95
750.33	47.93
750.727	47.94
751.125	47.97
751.523	47.97
751.921	47.98
752.318	48.01
752.716	48.02
753.113	48.04
753.511	48.06
753.908	48.08
754.305	48.11
754.703	48.11
755.1	48.1
755.497	48.11
755.894	48.1
756.291	48.08
756.688	48.05
757.085	48.05
757.482	48.04
757.878	48.05
758.275	48.01
758.672	47.99
759.068	48.03
759.465	48.04
759.861	48.04
760.258	48.04
760.654	48.07
761.05	48.1
761.447	48.11
761.843	48.09
762.239	48.08
762.635	48.09
763.031	48.08
763.427	48.06
763.822	48.03
764.218	48.02
764.614	48.03
765.01	48
765.405	47.98
765.801	47.99
766.196	48
766.592	47.99
766.987	48.01
767.382	48.02
767.778	48.01
768.173	48.05
768.568	48.05
768.963	48.04
769.358	48.08
769.753	48.09
770.148	48.08
770.542	48.09
770.937	48.08
771.332	48.08
771.726	48.09
772.121	48.1
772.515	48.08
772.91	48.08
773.304	48.08
773.699	48.06
774.093	48.04
774.487	48.05
774.881	48.05
775.275	48.04
775.669	48.02
776.063	48.01
776.457	48.01
776.851	48.01
777.245	47.99
777.638	47.96
778.032	47.98
778.425	47.99
778.819	47.96
779.212	47.98
779.606	47.99
779.999	48
780.392	48.04
780.786	48.04
781.179	48.04
781.572	48.06
781.965	48.09
782.358	48.09
782.751	48.09
783.143	48.1
783.536	48.08
783.929	48.07
784.322	48.06
784.714	48.04
785.107	48.08
785.499	48.07
785.891	48.09
786.284	48.1
786.676	48.1
787.068	48.12
787.46	48.12
787.852	48.14
788.245	48.16
788.636	48.17
789.028	48.17
789.42	48.15
789.812	48.18
790.204	48.19
790.595	48.17
790.987	48.16
791.378	48.17
791.77	48.18
792.161	48.17
792.553	48.16
792.944	48.15
793.335	48.16
793.726	48.15
794.117	48.11
794.508	48.07
794.899	48.06
795.29	48.05
795.681	48
796.072	47.99
796.463	48.03
796.853	48.05
797.244	48.05
797.634	48.05
798.025	48.08
798.415	48.11
798.806	48.11
799.196	48.11
799.586	48.14
799.976	48.21
800.366	48.22
800.756	48.21
801.146	48.19
801.536	48.21
801.926	48.2
802.316	48.21
802.706	48.2
803.095	48.24
803.485	48.26
803.874	48.24
804.264	48.22
804.653	48.23
805.043	48.22
805.432	48.25
805.821	48.24
806.21	48.25
806.599	48.26
806.988	48.27
807.377	48.25
807.766	48.25
808.155	48.25
808.544	48.26
808.933	48.25
809.321	48.25
809.71	48.25
810.098	48.27
810.487	48.25
810.875	48.24
811.264	48.24
811.652	48.26
812.04	48.25
812.428	48.29
812.816	48.29
813.204	48.29
813.592	48.28
813.98	48.28
814.368	48.29
814.756	48.29
815.144	48.29
815.531	48.29
815.919	48.27
816.306	48.26
816.694	48.24
817.081	48.24
817.469	48.24
817.856	48.23
818.243	48.21
818.63	48.19
819.017	48.2
819.404	48.21
819.791	48.2
820.178	48.22
820.565	48.21
820.952	48.23
821.339	48.21
821.725	48.25
822.112	48.28
822.498	48.3
822.885	48.32
823.271	48.32
823.657	48.29
824.044	48.3
824.43	48.33
824.816	48.33
825.202	48.31
825.588	48.31
825.974	48.28
826.36	48.26
826.746	48.26
827.132	48.25
827.517	48.27
827.903	48.32
828.289	48.34
828.674	48.33
829.06	48.35
829.445	48.33
829.83	48.35
830.216	48.35
830.601	48.38
830.986	48.41
831.371	48.4
831.756	48.44
832.141	48.4
832.526	48.39
832.911	48.37
833.295	48.36
833.68	48.4
834.065	48.42
834.449	48.42
834.834	48.42
835.218	48.41
835.603	48.43
835.987	48.4
836.371	48.39
836.755	48.4
837.139	48.4
837.524	48.41
837.908	48.43
838.291	48.45
838.675	48.45
839.059	48.44
839.443	48.44
839.827	48.42
840.21	48.43
840.594	48.45
840.977	48.44
841.361	48.46
841.744	48.44
842.127	48.42
842.511	48.39
842.894	48.38
843.277	48.38
843.66	48.35
844.043	48.36
844.426	48.37
844.809	48.39
845.191	48.42
845.574	48.41
845.957	48.43
846.339	48.44
846.722	48.44
847.104	48.46
847.487	48.46
847.869	48.48
848.252	48.5
848.634	48.49
849.016	48.47
849.398	48.46
849.78	48.47
850.162	48.47
850.544	48.45
850.926	48.45
851.307	48.45
851.689	48.45
852.071	48.46
852.452	48.45
852.834	48.45
853.215	48.46
853.597	48.45
853.978	48.45
854.359	48.47
854.741	48.47
855.122	48.45
855.503	48.43
855.884	48.45
856.265	48.44
856.646	48.42
857.026	48.44
857.407	48.45
857.788	48.44
858.169	48.44
858.549	48.43
858.93	48.45
859.31	48.47
859.69	48.48
860.071	48.51
860.451	48.51
860.831	48.51
861.211	48.5
861.591	48.48
861.971	48.5
862.351	48.51
862.731	48.52
863.111	48.51
863.491	48.52
863.87	48.52
864.25	48.49
864.629	48.51
865.009	48.54
865.388	48.54
865.768	48.54
866.147	48.53
866.526	48.54
866.905	48.54
867.284	48.55
867.663	48.54
868.042	48.53
868.421	48.54
868.8	48.53
869.179	48.52
869.558	48.52
869.936	48.5
870.315	48.51
870.693	48.51
871.072	48.5
871.45	48.5
871.828	48.52
872.207	48.53
872.585	48.53
872.963	48.53
873.341	48.55
873.719	48.56
874.097	48.57
874.475	48.56
874.853	48.54
875.23	48.57
875.608	48.59
875.986	48.6
876.363	48.6
876.741	48.6
877.118	48.59
877.495	48.57
877.873	48.58
878.25	48.61
878.627	48.63
879.004	48.65
879.381	48.63
879.758	48.59
880.135	48.59
880.512	48.58
880.889	48.59
881.265	48.58
881.642	48.58
882.019	48.6
882.395	48.59
882.772	48.59
883.148	48.58
883.524	48.56
883.901	48.58
884.277	48.53
884.653	48.52
885.029	48.5
885.405	48.5
885.781	48.5
886.157	48.46
886.532	48.45
886.908	48.44
887.284	48.43
887.659	48.42
888.035	48.41
888.411	48.42
888.786	48.43
889.161	48.45
889.537	48.45
889.912	48.44
890.287	48.44
890.662	48.43
891.037	48.43
891.412	48.41
891.787	48.41
892.162	48.41
892.536	48.42
892.911	48.41
893.286	48.41
893.66	48.41
894.035	48.43
894.409	48.42
894.784	48.43
895.158	48.43
895.532	48.44
895.906	48.45
896.281	48.45
896.655	48.45
897.029	48.46
897.402	48.45
897.776	48.47
898.15	48.47
898.524	48.52
898.898	48.51
899.271	48.53
899.645	48.56
900.018	48.55
900.392	48.58
900.765	48.59
901.138	48.58
901.511	48.58
901.884	48.59
902.258	48.58
902.631	48.56
903.003	48.57
903.376	48.54
903.749	48.51
904.122	48.53
904.495	48.54
904.867	48.55
905.24	48.58
905.612	48.6
905.985	48.56
906.357	48.55
906.729	48.57
907.102	48.58
907.474	48.6
907.846	48.62
908.218	48.6
908.59	48.6
908.962	48.58
909.334	48.58
909.705	48.55
910.077	48.59
910.449	48.6
910.82	48.6
911.192	48.57
911.563	48.55
911.935	48.57
912.306	48.59
912.677	48.59
913.048	48.6
913.419	48.57
913.79	48.58
914.161	48.59
914.532	48.56
914.903	48.56
915.274	48.57
915.645	48.61
916.015	48.61
916.386	48.58
916.756	48.59
917.127	48.59
917.497	48.6
917.868	48.61
918.238	48.58
918.608	48.63
918.978	48.63
919.348	48.64
919.718	48.61
920.088	48.61
920.458	48.64
920.828	48.6
921.198	48.59
921.567	48.61
921.937	48.62
922.306	48.62
922.676	48.59
923.045	48.57
923.415	48.56
923.784	48.54
924.153	48.57
924.522	48.55
924.891	48.55
925.26	48.55
925.629	48.55
925.998	48.54
926.367	48.53
926.736	48.56
927.104	48.56
927.473	48.54
927.842	48.53
928.21	48.51
928.578	48.54
928.947	48.54
929.315	48.5
929.683	48.5
930.051	48.48
930.42	48.47
930.788	48.42
931.156	48.42
931.523	48.44
931.891	48.48
932.259	48.46
932.627	48.45
932.994	48.45
933.362	48.5
933.729	48.49
934.097	48.5
934.464	48.56
934.831	48.54
935.199	48.56
935.566	48.54
935.933	48.47
936.3	48.46
936.667	48.39
937.034	48.43
937.401	48.42
937.767	48.42
938.134	48.44
938.501	48.39
938.867	48.45
939.234	48.43
939.6	48.44
939.967	48.53
940.333	48.51
940.699	48.57
941.065	48.49
941.431	48.52
941.798	48.5
942.163	48.46
942.529	48.46
942.895	48.46
943.261	48.37
943.627	48.35
943.992	48.28
944.358	48.26
944.723	48.26
945.089	48.26
945.454	48.28
945.82	48.27
946.185	48.29
946.55	48.22
946.915	48.17
947.28	48.18
947.645	48.17
948.01	48.23
948.375	48.25
948.74	48.23
949.104	48.26
949.469	48.19
949.834	48.12
950.198	48.11
950.562	48.13
950.927	48.08
951.291	48.05
951.655	47.96
952.02	47.91
952.384	47.85
952.748	47.82
953.112	47.79
953.476	47.81
953.839	47.81
954.203	47.81
954.567	47.8
954.931	47.79
955.294	47.8
955.658	47.85
956.021	47.86
956.385	47.84
956.748	47.82
957.111	47.79
957.474	47.78
957.837	47.78
958.2	47.75
958.563	47.74
958.926	47.74
959.289	47.77
959.652	47.77
960.015	47.76
960.377	47.78
960.74	47.81
961.102	47.81
961.465	47.82
961.827	47.9
962.189	47.9
962.552	47.9
962.914	47.91
963.276	47.94
963.638	47.94
964	47.96
964.362	47.98
964.724	47.93
965.085	47.92
965.447	47.87
965.809	47.78
966.17	47.8
966.532	47.79
966.893	47.79
967.255	47.79
967.616	47.78
967.977	47.74
968.338	47.71
968.699	47.71
969.061	47.78
969.421	47.79
969.782	47.85
970.143	47.8
970.504	47.82
970.865	47.87
971.225	47.78
971.586	47.8
971.946	47.78
972.307	47.79
972.667	47.81
973.027	47.76
973.388	47.78
973.748	47.76
974.108	47.84
974.468	47.82
974.828	47.85
975.188	47.83
975.548	47.82
975.907	47.84
976.267	47.83
976.627	47.82
976.986	47.81
977.346	47.78
977.705	47.77
978.064	47.73
978.424	47.75
978.783	47.65
979.142	47.7
979.501	47.73
979.86	47.73
980.219	47.71
980.578	47.71
980.937	47.73
981.296	47.69
981.654	47.66
982.013	47.64
982.371	47.64
982.73	47.69
983.088	47.65
983.447	47.56
983.805	47.6
984.163	47.56
984.521	47.59
984.879	47.52
985.237	47.56
985.595	47.62
985.953	47.59
986.311	47.57
986.669	47.57
987.026	47.58
987.384	47.62
987.741	47.51
988.099	47.62
988.456	47.58
988.814	47.65
989.171	47.68
989.528	47.66
989.885	47.61
990.242	47.58
990.599	47.55
990.956	47.61
991.313	47.66
991.67	47.76
992.027	47.81
992.383	47.83
992.74	47.88
993.096	47.85
993.453	47.82
993.809	48
994.165	48.08
994.522	48.14
994.878	48.17
995.234	48.12
995.59	48.13
995.946	48.03
996.302	47.99
996.658	47.95
997.013	47.97
997.369	47.99
997.725	47.93
998.08	47.91
998.436	47.87
998.791	47.92
999.147	47.94
999.502	47.97
999.857	47.99
1000.212	48.01
1000.567	48.04
1000.922	47.99
1001.277	48.01
1001.632	47.92
1001.987	47.95
1002.342	47.89
1002.696	47.76
1003.051	47.86
1003.406	47.97
1003.76	47.95
1004.114	47.93
1004.469	47.94
1004.823	48.19
1005.177	48.12
1005.531	48.2
1005.885	48.23
1006.239	48.34
1006.593	48.47
1006.947	48.43
1007.301	48.2
1007.655	48.14
1008.008	48.17
1008.362	48.11
1008.715	48.07
1009.069	48.18
1009.422	48.22
1009.776	48.19
1010.129	48.22
1010.482	48.05
1010.835	48.06
1011.188	48.18
1011.541	48.29
1011.894	48.36
1012.247	48.44
1012.6	48.3
1012.952	48.19
1013.305	48.28
1013.657	48.37
1014.01	48.32
1014.362	48.44
1014.715	48.38
1015.067	48.33
1015.419	48.33
1015.771	48.33
1016.123	48.35
1016.475	48.45
1016.827	48.64
1017.179	48.6
1017.531	48.72
1017.883	48.64
1018.234	48.69
1018.586	48.82
1018.938	49
1019.289	48.99
1019.64	49
1019.992	48.85
1020.343	48.97
1020.694	48.93
1021.045	48.89
1021.396	48.62
1021.747	48.92
1022.098	49.06
1022.449	49
1022.8	48.95
1023.151	49.18
1023.501	49.29
1023.852	49.31
1024.202	49.11
1024.553	49.14
1024.903	49.28
1025.253	49.57
1025.604	49.49
1025.954	49.13
1026.304	49.26
1026.654	49.27
1027.004	48.91
1027.354	48.67
1027.703	48.69
1028.053	48.8
1028.403	48.79
1028.753	48.38
1029.102	48.43
1029.452	48.55
1029.801	49.03
1030.15	48.94
1030.499	48.84
897.758	1264.54
901.051	1271.55
904.343	1263.94
907.636	1288.98
910.928	1252.24
914.22	1254.64
917.511	1238.71
920.803	1184.82
924.094	1176.29
927.384	1147.48
930.675	1102.75
933.965	1094.82
937.255	1033.12
940.544	993.99
943.834	946.5
947.123	939.99
950.411	883.2
953.7	865.4
956.988	817.74
960.276	788.28
963.563	774.08
966.851	749.21
970.138	742.05
973.424	717.5
976.711	721.37
979.997	684.45
983.283	680.52
986.568	666.61
989.853	646.07
993.138	635.71
996.423	609.93
999.708	593.53
1002.992	586.94
1006.275	560.16
1009.559	555.29
1012.842	535.02
1016.125	521.06
1019.408	512.7
1022.69	505.07
1025.972	495.01
1029.254	482.43
1032.536	475.07
1035.817	465.95
1039.098	459.84
1042.379	452.79
1045.659	446.87
1048.939	436.78
1052.219	428.54
1055.498	421.31
1058.778	411.78
1062.057	403.14
1065.335	399.52
1068.614	394.14
1071.892	389.84
1075.17	376.99
1078.447	368.29
1081.724	366.05
1085.001	363.53
1088.278	355.8
1091.554	348.75
1094.83	348.9
1098.106	346.27
1101.382	343.3
1104.657	341.06
1107.932	335.63
1111.206	338.12
1114.481	330.52
1117.755	327.5
1121.029	324.1
1124.302	324.21
1127.575	317.59
1130.848	314.45
1134.121	310.81
1137.393	309.14
1140.665	302.81
1143.937	300.56
1147.208	298.44
1150.48	297.55
1153.75	293.53
1157.021	290.23
1160.291	289.59
1163.561	287.39
1166.831	286.64
1170.101	284.59
1173.37	284.1
1176.639	284.78
1179.907	282.25
1183.176	278.65
1186.444	279.2
1189.711	278.67
1192.979	277.04
1196.246	276.32
1199.513	277.12
1202.78	275.03
1206.046	274.96
1209.312	273.03
1212.578	272.78
1215.843	275.63
1219.108	273.89
1222.373	279.14
1225.638	281.44
1228.902	285.53
1232.166	285.64
1235.43	288.03
1238.693	292.13
1241.956	293.87
1245.219	297.44
1248.482	297.47
1251.744	296.81
1255.006	298.42
1258.268	290.08
1261.529	287.48
1264.79	286.05
1268.051	283.98
1271.312	280.23
1274.572	277.24
1277.832	274.26
1281.092	270.45
1284.351	268.81
1287.61	268.48
1290.869	264.58
1294.128	263.56
1297.386	263.71
1300.644	260
1303.902	260.88
1307.159	260.05
1310.416	260.23
1313.673	260.38
1316.93	262.21
1320.186	261.88
1323.442	262.96
1326.697	267.45
1329.953	268.42
1333.208	269.28
1336.463	273.58
1339.717	273.6
1342.972	276.74
1346.226	279.14
1349.479	279.53
1352.733	281.57
1355.986	283.04
1359.238	282.7
1362.491	284.38
1365.743	287.25
1368.995	287.12
1372.247	285.74
1375.498	285.94
1378.749	288.49
1382	285.47
1385.251	285.93
1388.501	284.22
1391.751	285.43
1395	284.25
1398.25	282.11
1401.499	280.37
1404.748	280.12
1407.996	278.57
1411.244	277.35
1414.492	275.66
1417.74	273.51
1420.987	269.2
1424.234	268.99
1427.481	265.95
1430.728	265.58
1433.974	263.06
1437.22	261.07
1440.465	260.16
1443.711	257.9
1446.956	255.86
1450.201	252.89
1453.445	249.96
1456.689	250.03
1459.933	246.09
1463.177	243.71
1466.42	239.61
1469.663	237.32
1472.906	235.77
1476.148	229.74
1479.391	226.97
1482.633	225.29
1485.874	221.84
1489.115	220.71
1492.356	218.01
1495.597	217.7
1498.838	214.72
1502.078	214.13
1505.318	212.41
1508.557	212.55
1511.797	212.26
1515.036	211.14
1518.274	210.46
1521.513	209.31
1524.751	208.72
1527.989	208.06
1531.227	206.87
1534.464	207.38
1537.701	205.58
1540.938	205.3
1544.174	202.77
1547.41	203.14
1550.646	202.06
1553.882	202.07
1557.117	199.42
1560.352	198.74
1563.587	198.48
1566.821	196.71
1570.055	195.08
1573.289	193.93
1576.523	193.41
1579.756	192.06
1582.989	190.67
1586.222	190.44
1589.454	188.96
1592.686	190.18
1595.918	189.3
1599.15	188.41
1602.381	189.36
1605.612	188.92
1608.843	189.38
1612.073	189.21
1615.303	190.07
1618.533	190.27
1621.762	190.18
1624.992	190.9
1628.221	190.32
1631.449	190.19
1634.678	189.68
1637.906	190.1
1641.134	189.95
1644.361	189.91
1647.588	190.23
1650.815	189.41
1654.042	188.34
1657.269	189.67
1660.495	189.4
1663.72	189.25
1666.946	189.95
1670.171	190.46
1673.396	190
1676.621	190.71
1679.845	190.99
1683.069	190.93
1686.293	192.5
1689.517	193.74
1692.74	193.13
1695.963	193.31
1699.185	195.14
1702.408	194.56
1705.63	195.66
1708.852	196.29
1712.073	196.31
1715.294	196.65
1718.515	198.29
1721.736	197.39
1724.956	198.04
1728.176	198.13
1731.396	200.07
1734.616	199.22
1737.835	200.58
1741.054	198.88
1744.272	199.51
1747.491	201.43
1750.709	201.28
1753.927	200.79
1757.144	201.06
1760.361	201.59
1763.578	202.31
1766.795	201.81
1770.011	203.25
1773.227	202.9
1776.443	205.8
1779.658	206.49
1782.874	205.68
1786.089	207.12
1789.303	207.82
1792.518	209.57
1795.732	210
1798.945	211.47
1802.159	212.03
1805.372	212.37
1808.585	216.21
1811.797	216.7
1815.01	217.03
1818.222	219.08
1821.434	220.21
1824.645	221.05
1827.856	224.54
1831.067	226.16
1834.278	225.68
1837.488	227.39
1840.698	229.17
1843.908	227.12
1847.117	227.56
1850.326	228.71
1853.535	228.16
1856.744	231.33
1859.952	231.75
1863.16	230.03
1866.368	228.23
1869.575	231.08
1872.782	226.89
1875.989	226.23
1879.196	225.12
1882.402	223.89
1885.608	224.55
1888.814	224.54
1892.019	223.72
1895.224	221.89
1898.429	221.43
1901.634	222.83
1904.838	221.59
1908.042	223.74
1911.246	224.12
1914.449	225.59
1917.652	225.94
1920.855	225.44
1924.058	224.77
1927.26	223.27
1930.462	224.54
1933.664	226.54
1936.865	224.59
1940.066	224.88
1943.267	223.91
1946.467	223.3
1949.668	224.58
1952.868	226.92
1956.067	226.94
1959.267	228.02
1962.466	228.92
1965.665	228.63
1968.863	228.86
1972.061	231.97
1975.259	234.28
1978.457	236.65
1981.654	238.96
1984.852	239.3
1988.048	238.86
1991.245	241.42
1994.441	244.7
1997.637	245.88
2000.833	250.44
2004.028	253.39
2007.223	254.65
2010.418	257.2
2013.613	261.31
2016.807	263.9
2020.001	266.64
2023.194	270.66
2026.388	276.39
2029.581	282.6
2032.774	285.15
2035.966	290.69
2039.158	291.87
2042.35	298.02
2045.542	299.82
2048.733	304.31
2051.924	308.51
2055.115	313.96
2058.306	314.76
2061.496	317.4
2064.686	316.85
2067.875	323.19
2071.065	323.68
2074.254	322.13
2077.442	326.55
2080.631	327.69
2083.819	331.08
2087.007	331.74
2090.195	335.2
2093.382	337.4
2096.569	335.61
2099.756	340.61
2102.942	341.25
2106.128	343.97
2109.314	352.42
2112.5	350.39
2115.685	358.1
2118.87	358.27
2122.055	364.25
2125.239	367.13
2128.424	372.35
2131.608	375.72
2134.791	381.65
2137.974	383.19
2141.157	384.69
2144.34	385.66
2147.523	390.53
2150.705	388.03
2153.887	392.44
2157.068	393.75
2160.25	390.54
2163.431	392.07
2166.611	396.95
2169.792	403.4
2172.972	407.19
2176.152	409.1
2179.331	414.08
2182.511	422.2
2185.69	426.01
2188.868	433.94
2192.047	434.39
2195.225	446.51
2198.403	457.38
2201.58	465.11
2204.758	472.25
2207.935	481.95
2211.111	491.8
2214.288	497.22
2217.464	496.65
2220.64	506.84
2223.815	513.66
2226.991	533.5
2230.166	533.4
2233.34	542.94
2236.515	551.72
2239.689	553.35
2242.863	557.38
2246.036	572.8
2249.209	569.25
2252.382	580.48
2255.555	596.17
2258.727	597.37
2261.9	604.61
2265.071	611.14
2268.243	620.1
2271.414	626.06
2274.585	639.78
2277.756	645.75
2280.926	650.53
2284.096	665.54
2287.266	678.79
2290.436	682.39
2293.605	699.44
2296.774	716.78
2299.942	739.09
2303.111	743.89
2306.279	761.17
2309.447	771.05
2312.614	790.22
2315.781	812.41
2318.948	847.88
2322.115	836.89
2325.281	881.27
2328.447	864.08
2331.613	898.82
2334.779	887.13
2337.944	926.22
2341.109	934.32
2344.274	962.8
2347.438	994.18
2350.602	992.74
2353.766	1024.8
2356.929	1039.39
2360.092	1035.42
2363.255	1106.83
2366.418	1105.7
2369.58	1129.83
2372.742	1196.9
2375.904	1226.64
2379.066	1217.13
2382.227	1198.95
2385.388	1302.74
2388.548	1298.9
2391.709	1317.87
2394.869	1464.06
2398.029	1406.12
2401.188	1443.47
2404.347	1433.89
2407.506	1410.57
2410.665	1451.54
2413.823	1536.07
2416.981	1626.43
2420.139	1569.94
2423.296	1555.68
2426.453	1620.55
2429.61	1563.49
2432.767	1629.18
2435.923	1612.75
2439.079	1761.88
2442.235	1785.85
2445.391	1771.89
2448.546	1758.3
2451.701	1702.12
2454.855	1699.29
2458.009	1806.85
2461.163	1882.56
2464.317	1947.54
2467.471	2001.7
2470.624	2006.56
2473.777	1956
2476.929	1908.28
2480.082	1847.92
2483.234	1829.72
2486.385	1928.47
2489.537	1938.61
2492.688	2004.03
2495.839	1946.02
2498.989	1903.88
2502.14	1912.44
2505.29	1924.12
2508.439	1961.12
2511.589	1953.9
2514.738	2131.02
2517.887	2081.91
2521.035	2201.8
2524.183	2217
2527.331	2237.43
2530.479	2227.03
2533.627	2242.75
