Data from N_2_DIV_IL_4N_Splice17_13-37-25-091.txt Node
Date: Sat Mar 07 13:37:25 EST 2020
User: sa697716
Spectrometer: NQ5500242
Trigger mode: 0
Integration Time (sec): 1.450000E-1
Scans to average: 20
Nonlinearity correction enabled: false
Boxcar width: 5
Storing dark spectrum: false
XAxis mode: Wavelengths
Number of Pixels in Spectrum: 512
>>>>>Begin Spectral Data<<<<<
187.83	260.65
188.298	270.95
188.766	244.86
189.233	184.92
189.701	190.31
190.169	231.51
190.636	256.78
191.104	351.78
191.571	170.31
192.039	5.48
192.506	-277.45
192.974	102.45
193.441	165.26
193.908	84.1
194.375	34.01
194.842	-19.44
195.31	39.69
195.777	20.36
196.244	73.55
196.711	82.7
197.177	86.39
197.644	86.03
198.111	86.75
198.578	86.69
199.045	87.23
199.511	87.06
199.978	87.55
200.445	88.1
200.911	88.19
201.378	88.24
201.844	88.37
202.31	87.87
202.777	88.19
203.243	87.81
203.709	87.53
204.176	86.63
204.642	86.1
205.108	85.46
205.574	84.36
206.04	83.45
206.506	82.65
206.972	81.8
207.438	81.07
207.903	79.64
208.369	78.06
208.835	76.24
209.301	74.44
209.766	72.04
210.232	69.71
210.697	67.56
211.163	65.55
211.628	63.77
212.094	61.9
212.559	60.35
213.024	58.67
213.49	57.34
213.955	55.9
214.42	54.52
214.885	52.8
215.35	50.66
215.815	47.88
216.28	44.36
216.745	40.3
217.21	36.31
217.675	32.4
218.14	29.07
218.604	26.19
219.069	23.75
219.534	21.76
219.998	20.1
220.463	18.79
220.927	17.61
221.392	16.67
221.856	15.95
222.32	15.27
222.785	14.74
223.249	14.25
223.713	13.78
224.177	13.4
224.642	13.02
225.106	12.69
225.57	12.32
226.034	12.06
226.497	11.78
226.961	11.5
227.425	11.26
227.889	11.03
228.353	10.8
228.816	10.59
229.28	10.4
229.744	10.21
230.207	10.03
230.671	9.87
231.134	9.67
231.597	9.54
232.061	9.39
232.524	9.25
232.987	9.11
233.45	9
233.914	8.88
234.377	8.75
234.84	8.65
235.303	8.56
235.766	8.47
236.229	8.38
236.691	8.29
237.154	8.21
237.617	8.13
238.08	8.04
238.542	7.94
239.005	7.88
239.468	7.82
239.93	7.75
240.393	7.68
240.855	7.6
241.317	7.52
241.78	7.44
242.242	7.36
242.704	7.3
243.166	7.24
243.629	7.2
244.091	7.12
244.553	7.04
245.015	6.96
245.477	6.9
245.939	6.84
246.4	6.78
246.862	6.73
247.324	6.67
247.786	6.6
248.247	6.53
248.709	6.45
249.17	6.39
249.632	6.35
250.093	6.3
250.555	6.24
251.016	6.19
251.477	6.13
251.939	6.09
252.4	6.04
252.861	6
253.322	5.97
253.783	5.93
254.244	5.9
254.705	5.85
255.166	5.81
255.627	5.76
256.088	5.72
256.549	5.68
257.009	5.63
257.47	5.58
257.931	5.53
258.391	5.47
258.852	5.42
259.312	5.37
259.773	5.32
260.233	5.27
260.694	5.24
261.154	5.19
261.614	5.16
262.074	5.11
262.534	5.07
262.994	5.03
263.455	5
263.915	4.97
264.374	4.93
264.834	4.91
265.294	4.87
265.754	4.84
266.214	4.81
266.673	4.79
267.133	4.78
267.593	4.75
268.052	4.74
268.512	4.72
268.971	4.71
269.431	4.69
269.89	4.67
270.349	4.66
270.809	4.65
271.268	4.64
271.727	4.62
272.186	4.61
272.645	4.6
273.104	4.59
273.563	4.57
274.022	4.56
274.481	4.54
274.94	4.53
275.399	4.51
275.857	4.49
276.316	4.48
276.775	4.47
277.233	4.46
277.692	4.46
278.15	4.46
278.609	4.46
279.067	4.46
279.525	4.45
279.984	4.45
280.442	4.46
280.9	4.46
281.358	4.46
281.816	4.46
282.274	4.45
282.732	4.44
283.19	4.43
283.648	4.42
284.106	4.42
284.564	4.42
285.021	4.43
285.479	4.41
285.937	4.4
286.394	4.41
286.852	4.39
287.309	4.38
287.767	4.37
288.224	4.35
288.682	4.34
289.139	4.32
289.596	4.29
290.053	4.27
290.511	4.25
290.968	4.23
291.425	4.19
291.882	4.18
292.339	4.16
292.796	4.14
293.252	4.14
293.709	4.12
294.166	4.11
294.623	4.1
295.079	4.08
295.536	4.07
295.992	4.07
296.449	4.06
296.905	4.06
297.362	4.05
297.818	4.04
298.274	4.04
298.731	4.02
299.187	4.01
299.643	4.01
300.099	4
300.555	4
301.011	4
301.467	4
301.923	3.98
302.379	3.98
302.835	3.97
303.291	3.97
303.746	3.97
304.202	3.97
304.658	3.98
305.113	3.98
305.569	3.98
306.024	3.98
306.479	3.97
306.935	3.98
307.39	3.98
307.845	3.99
308.301	4
308.756	4
309.211	4
309.666	4.02
310.121	4.02
310.576	4.02
311.031	4.03
311.486	4.04
311.94	4.04
312.395	4.05
312.85	4.05
313.305	4.05
313.759	4.06
314.214	4.06
314.668	4.05
315.123	4.05
315.577	4.04
316.032	4.03
316.486	4.02
316.94	4.02
317.394	4.01
317.849	3.99
318.303	3.98
318.757	3.96
319.211	3.94
319.665	3.92
320.119	3.91
320.572	3.9
321.026	3.89
321.48	3.89
321.934	3.87
322.387	3.86
322.841	3.86
323.295	3.86
323.748	3.86
324.202	3.86
324.655	3.86
325.108	3.86
325.562	3.86
326.015	3.86
326.468	3.86
326.921	3.87
327.374	3.87
327.827	3.88
328.28	3.88
328.733	3.89
329.186	3.88
329.639	3.88
330.092	3.89
330.545	3.89
330.997	3.89
331.45	3.9
331.903	3.91
332.355	3.92
332.808	3.92
333.26	3.92
333.713	3.92
334.165	3.93
334.617	3.95
335.069	3.94
335.522	3.96
335.974	3.98
336.426	3.98
336.878	3.98
337.33	3.98
337.782	3.99
338.234	4
338.686	3.99
339.137	4
339.589	3.98
340.041	3.97
340.493	3.94
340.944	3.92
341.396	3.91
341.847	3.89
342.299	3.87
342.75	3.84
343.201	3.81
343.653	3.8
344.104	3.77
344.555	3.76
345.006	3.75
345.457	3.74
345.908	3.73
346.359	3.73
346.81	3.72
347.261	3.71
347.712	3.71
348.163	3.71
348.613	3.71
349.064	3.72
349.515	3.72
349.965	3.72
350.416	3.72
350.866	3.73
351.317	3.71
351.767	3.72
352.217	3.72
352.668	3.72
353.118	3.72
353.568	3.71
354.018	3.72
354.468	3.73
354.918	3.74
355.368	3.75
355.818	3.75
356.268	3.75
356.718	3.76
357.168	3.76
357.617	3.76
358.067	3.76
358.517	3.78
358.966	3.78
359.416	3.78
359.865	3.77
360.315	3.76
360.764	3.77
361.213	3.78
361.663	3.77
362.112	3.77
362.561	3.78
363.01	3.78
363.459	3.76
363.908	3.76
364.357	3.76
364.806	3.76
365.255	3.76
365.703	3.77
366.152	3.77
366.601	3.78
367.05	3.78
367.498	3.77
367.947	3.77
368.395	3.78
368.844	3.78
369.292	3.77
369.74	3.77
370.189	3.76
370.637	3.75
371.085	3.73
371.533	3.73
371.981	3.72
372.429	3.72
372.877	3.72
373.325	3.72
373.773	3.72
374.221	3.71
374.669	3.71
375.116	3.7
375.564	3.69
376.012	3.7
376.459	3.7
376.907	3.7
377.354	3.7
377.801	3.7
378.249	3.7
378.696	3.7
379.143	3.7
379.591	3.69
380.038	3.7
380.485	3.7
380.932	3.69
381.379	3.7
381.826	3.69
382.273	3.69
382.72	3.67
383.166	3.66
383.613	3.65
384.06	3.64
384.506	3.65
384.953	3.64
385.4	3.65
385.846	3.65
386.292	3.63
386.739	3.62
387.185	3.62
387.631	3.62
388.078	3.62
388.524	3.61
388.97	3.62
389.416	3.62
389.862	3.64
390.308	3.65
390.754	3.67
391.2	3.69
391.645	3.7
392.091	3.72
392.537	3.73
392.983	3.75
393.428	3.77
393.874	3.78
394.319	3.78
394.765	3.79
395.21	3.79
395.655	3.79
396.101	3.81
396.546	3.83
396.991	3.84
397.436	3.86
397.881	3.9
398.326	3.93
398.771	3.95
399.216	3.98
399.661	4
400.106	4.02
400.551	4.04
400.995	4.04
401.44	4.04
401.885	4.05
402.329	4.07
402.774	4.09
403.218	4.12
403.663	4.14
404.107	4.15
404.551	4.17
404.995	4.19
405.44	4.21
405.884	4.24
406.328	4.27
406.772	4.3
407.216	4.32
407.66	4.33
408.104	4.34
408.547	4.36
408.991	4.39
409.435	4.42
409.879	4.45
410.322	4.49
410.766	4.53
411.209	4.57
411.653	4.61
412.096	4.64
412.54	4.68
412.983	4.72
413.426	4.77
413.869	4.79
414.312	4.84
414.756	4.89
415.199	4.9
415.642	4.92
416.085	4.94
416.527	4.94
416.97	4.94
417.413	4.95
417.856	4.95
418.298	4.96
418.741	4.97
419.184	4.97
419.626	4.96
420.069	4.98
420.511	5
420.953	5.02
421.396	5.05
421.838	5.08
422.28	5.1
422.722	5.14
423.164	5.16
423.606	5.18
424.048	5.2
424.49	5.22
424.932	5.23
425.374	5.19
425.816	5.17
426.258	5.16
426.699	5.15
427.141	5.15
427.582	5.15
428.024	5.17
428.465	5.19
428.907	5.18
429.348	5.18
429.789	5.19
430.231	5.23
430.672	5.27
431.113	5.31
431.554	5.34
431.995	5.37
432.436	5.38
432.877	5.41
433.318	5.43
433.759	5.49
434.2	5.54
434.64	5.57
435.081	5.6
435.522	5.63
435.962	5.65
436.403	5.69
436.843	5.71
437.284	5.72
437.724	5.72
438.164	5.71
438.604	5.72
439.045	5.74
439.485	5.76
439.925	5.76
440.365	5.77
440.805	5.79
441.245	5.81
441.685	5.84
442.125	5.88
442.564	5.9
443.004	5.92
443.444	5.94
443.883	5.95
444.323	5.98
444.762	6
445.202	6.02
445.641	6.05
446.081	6.07
446.52	6.1
446.959	6.14
447.398	6.19
447.837	6.24
448.276	6.27
448.716	6.3
449.154	6.34
449.593	6.37
450.032	6.4
450.471	6.41
450.91	6.41
451.349	6.42
451.787	6.41
452.226	6.4
452.664	6.39
453.103	6.39
453.541	6.35
453.98	6.36
454.418	6.33
454.856	6.32
455.295	6.3
455.733	6.28
456.171	6.27
456.609	6.27
457.047	6.24
457.485	6.23
457.923	6.22
458.361	6.23
458.798	6.22
459.236	6.21
459.674	6.2
460.111	6.21
460.549	6.22
460.987	6.21
461.424	6.21
461.862	6.23
462.299	6.23
462.736	6.23
463.173	6.23
463.611	6.24
464.048	6.27
464.485	6.28
464.922	6.3
465.359	6.3
465.796	6.32
466.233	6.34
466.67	6.36
467.106	6.38
467.543	6.39
467.98	6.39
468.416	6.37
468.853	6.36
469.29	6.35
469.726	6.36
470.162	6.35
470.599	6.34
471.035	6.33
471.471	6.31
471.907	6.31
472.344	6.31
472.78	6.31
473.216	6.31
473.652	6.31
474.088	6.3
474.523	6.3
474.959	6.3
475.395	6.29
475.831	6.29
476.266	6.29
476.702	6.27
477.138	6.25
477.573	6.25
478.008	6.26
478.444	6.24
478.879	6.24
479.314	6.23
479.75	6.21
480.185	6.2
480.62	6.19
481.055	6.19
481.49	6.19
481.925	6.18
482.36	6.17
482.795	6.16
483.229	6.16
483.664	6.15
484.099	6.14
484.534	6.14
484.968	6.15
485.403	6.16
485.837	6.17
486.271	6.19
486.706	6.2
487.14	6.21
487.574	6.22
488.009	6.25
488.443	6.28
488.877	6.32
489.311	6.35
489.745	6.38
490.179	6.42
490.613	6.46
491.046	6.49
491.48	6.54
491.914	6.59
492.348	6.65
492.781	6.7
493.215	6.75
493.648	6.81
494.082	6.87
494.515	6.92
494.948	6.99
495.382	7.06
495.815	7.13
496.248	7.2
496.681	7.28
497.114	7.36
497.547	7.46
497.98	7.56
498.413	7.65
498.846	7.75
499.279	7.86
499.711	7.96
500.144	8.08
500.577	8.2
501.009	8.32
501.442	8.46
501.874	8.6
502.306	8.73
502.739	8.89
503.171	9.04
503.603	9.2
504.036	9.37
504.468	9.55
504.9	9.72
505.332	9.9
505.764	10.1
506.196	10.29
506.627	10.5
507.059	10.71
507.491	10.92
507.923	11.14
508.354	11.38
508.786	11.61
509.217	11.85
509.649	12.09
510.08	12.34
510.512	12.6
510.943	12.86
511.374	13.13
511.805	13.4
512.237	13.66
512.668	13.95
513.099	14.21
513.53	14.49
513.961	14.78
514.391	15.06
514.822	15.36
515.253	15.64
515.684	15.94
516.114	16.24
516.545	16.53
516.975	16.84
517.406	17.14
517.836	17.45
518.267	17.76
518.697	18.04
519.127	18.35
519.558	18.64
519.988	18.93
520.418	19.21
520.848	19.47
521.278	19.76
521.708	20.22
522.138	20.48
522.567	20.73
522.997	20.97
523.427	21.23
523.857	21.46
524.286	21.68
524.716	21.92
525.145	22.14
525.575	22.36
526.004	22.57
526.433	22.59
526.863	22.8
527.292	23
527.721	23.17
528.15	23.34
528.579	23.5
529.008	23.66
529.437	23.81
529.866	23.96
530.295	24.1
530.724	24.24
531.152	24.37
531.581	24.5
532.01	24.61
532.438	24.74
532.867	24.86
533.295	24.96
533.723	25.07
534.152	25.17
534.58	25.26
535.008	25.33
535.436	25.4
535.865	25.47
536.293	25.53
536.721	25.58
537.149	25.64
537.576	25.69
538.004	25.77
538.432	25.81
538.86	25.87
539.287	25.91
539.715	25.96
540.143	26.01
540.57	26.05
540.998	26.09
541.425	26.14
541.852	26.17
542.28	26.21
542.707	26.23
543.134	26.27
543.561	26.31
543.988	26.33
544.415	26.35
544.842	26.38
545.269	26.41
545.696	26.43
546.123	26.45
546.549	26.49
546.976	26.52
547.403	26.56
547.829	26.58
548.256	26.6
548.682	26.62
549.108	26.64
549.535	26.67
549.961	26.68
550.387	26.69
550.813	26.71
551.24	26.71
551.666	26.7
552.092	26.69
552.518	26.68
552.943	26.67
553.369	26.66
553.795	26.63
554.221	26.61
554.646	26.57
555.072	26.54
555.498	26.5
555.923	26.46
556.349	26.41
556.774	26.36
557.199	26.31
557.625	26.26
558.05	26.21
558.475	26.17
558.9	26.1
559.325	26.05
559.75	25.98
560.175	25.91
560.6	25.81
561.025	25.75
561.449	25.68
561.874	25.57
562.299	25.48
562.723	25.37
563.148	25.25
563.572	25.11
563.997	24.99
564.421	24.86
564.846	24.74
565.27	24.62
565.694	24.5
566.118	24.37
566.542	24.24
566.966	24.1
567.39	23.97
567.814	23.85
568.238	23.74
568.662	23.62
569.086	23.5
569.509	23.38
569.933	23.26
570.357	23.12
570.78	22.96
571.204	22.84
571.627	22.73
572.05	22.61
572.474	22.51
572.897	22.38
573.32	22.25
573.743	22.12
574.166	22.01
574.589	21.89
575.012	21.78
575.435	21.69
575.858	21.59
576.281	21.48
576.704	21.38
577.126	21.26
577.549	21.18
577.972	21.09
578.394	20.99
578.817	20.91
579.239	20.84
579.661	20.76
580.084	20.68
580.506	20.61
580.928	20.54
581.35	20.45
581.772	20.38
582.194	20.3
582.616	20.22
583.038	20.15
583.46	20.05
583.882	19.98
584.303	19.9
584.725	19.83
585.147	19.77
585.568	19.7
585.99	19.66
586.411	19.6
586.833	19.54
587.254	19.48
587.675	19.44
588.096	19.39
588.518	19.34
588.939	19.31
589.36	19.26
589.781	19.2
590.202	19.16
590.623	19.11
591.043	19.06
591.464	19.02
591.885	18.98
592.305	18.95
592.726	18.91
593.147	18.87
593.567	18.83
593.987	18.79
594.408	18.75
594.828	18.7
595.248	18.68
595.669	18.64
596.089	18.62
596.509	18.61
596.929	18.57
597.349	18.52
597.769	18.48
598.189	18.44
598.608	18.4
599.028	18.38
599.448	18.34
599.867	18.29
600.287	18.26
600.706	18.21
601.126	18.16
601.545	18.13
601.965	18.1
602.384	18.06
602.803	18.02
603.222	17.97
603.641	17.9
604.061	17.85
604.48	17.78
604.898	17.71
605.317	17.64
605.736	17.57
606.155	17.51
606.574	17.43
606.992	17.34
607.411	17.26
607.829	17.16
608.248	17.09
608.666	17.01
609.085	16.93
609.503	16.86
609.921	16.79
610.339	16.71
610.758	16.62
611.176	16.53
611.594	16.45
612.012	16.36
612.43	16.3
612.847	16.22
613.265	16.14
613.683	16.07
614.101	15.99
614.518	15.9
614.936	15.82
615.353	15.72
615.771	15.65
616.188	15.59
616.606	15.54
617.023	15.48
617.44	15.42
617.857	15.35
618.274	15.28
618.691	15.22
619.108	15.18
619.525	15.13
619.942	15.09
620.359	15.06
620.776	15.01
621.192	14.96
621.609	14.91
622.026	14.88
622.442	14.87
622.859	14.84
623.275	14.81
623.691	14.78
624.108	14.76
624.524	14.74
624.94	14.72
625.356	14.71
625.772	14.69
626.188	14.68
626.604	14.67
627.02	14.65
627.436	14.64
627.852	14.64
628.268	14.63
628.683	14.61
629.099	14.6
629.514	14.58
629.93	14.56
630.345	14.54
630.761	14.5
631.176	14.46
631.591	14.43
632.007	14.39
632.422	14.34
632.837	14.3
633.252	14.25
633.667	14.19
634.082	14.13
634.497	14.07
634.911	13.98
635.326	13.92
635.741	13.85
636.155	13.75
636.57	13.67
636.984	13.57
637.399	13.46
637.813	13.36
638.228	13.25
638.642	13.14
639.056	13.01
639.47	12.91
639.884	12.78
640.298	12.65
640.712	12.53
641.126	12.39
641.54	12.27
641.954	12.14
642.368	12.01
642.781	11.89
643.195	11.76
643.609	11.65
644.022	11.52
644.436	11.42
644.849	11.3
645.262	11.2
645.676	11.09
646.089	10.99
646.502	10.9
646.915	10.82
647.328	10.74
647.741	10.67
648.154	10.6
648.567	10.54
648.98	10.47
649.393	10.4
649.805	10.36
650.218	10.31
650.631	10.26
651.043	10.2
651.456	10.15
651.868	10.08
652.28	10.03
652.693	9.97
653.105	9.91
653.517	9.84
653.929	9.79
654.341	9.71
654.753	9.64
655.165	9.56
655.577	9.48
655.989	9.4
656.401	9.31
656.813	9.23
657.224	9.12
657.636	9
658.047	8.91
658.459	8.8
658.87	8.68
659.282	8.56
659.693	8.45
660.104	8.33
660.515	8.21
660.926	8.09
661.338	7.97
661.749	7.86
662.159	7.75
662.57	7.65
662.981	7.54
663.392	7.44
663.803	7.35
664.213	7.27
664.624	7.18
665.035	7.09
665.445	7.02
665.855	6.94
666.266	6.88
666.676	6.81
667.086	6.75
667.497	6.69
667.907	6.64
668.317	6.59
668.727	6.55
669.137	6.52
669.547	6.48
669.956	6.45
670.366	6.41
670.776	6.39
671.186	6.37
671.595	6.35
672.005	6.34
672.414	6.33
672.824	6.31
673.233	6.29
673.642	6.29
674.052	6.3
674.461	6.3
674.87	6.32
675.279	6.34
675.688	6.35
676.097	6.37
676.506	6.4
676.915	6.42
677.323	6.46
677.732	6.5
678.141	6.54
678.549	6.57
678.958	6.63
679.366	6.68
679.775	6.74
680.183	6.83
680.592	6.93
681	7.03
681.408	7.14
681.816	7.28
682.224	7.42
682.632	7.59
683.04	7.77
683.448	7.96
683.856	8.17
684.264	8.41
684.671	8.66
685.079	8.93
685.487	9.22
685.894	9.55
686.302	9.9
686.709	10.27
687.116	10.67
687.524	11.09
687.931	11.53
688.338	11.99
688.745	12.46
689.152	12.95
689.559	13.47
689.966	13.99
690.373	14.52
690.78	15.06
691.187	15.62
691.593	16.18
692	16.73
692.407	17.28
692.813	17.86
693.22	18.43
693.626	19
694.032	19.57
694.439	20.13
694.845	20.7
695.251	21.26
695.657	21.79
696.063	22.31
696.469	22.84
696.875	23.38
697.281	23.87
697.687	24.37
698.093	24.86
698.498	25.35
698.904	25.83
699.31	26.28
699.715	26.72
700.12	27.18
700.526	27.62
700.931	28.05
701.337	28.46
701.742	28.86
702.147	29.27
702.552	29.65
702.957	30.01
703.362	30.39
703.767	30.72
704.172	31.06
704.577	31.39
704.981	31.72
705.386	32.05
705.791	32.36
706.195	32.68
706.6	32.98
707.004	33.27
707.408	33.56
707.813	33.83
708.217	34.13
708.621	34.42
709.025	34.68
709.43	34.93
709.834	35.2
710.237	35.43
710.641	35.66
711.045	35.9
711.449	36.14
711.853	36.38
712.256	36.62
712.66	36.81
713.064	37.01
713.467	37.23
713.87	37.45
714.274	37.61
714.677	37.83
715.08	38.02
715.484	38.21
715.887	38.42
716.29	38.58
716.693	38.76
717.096	38.96
717.499	39.13
717.901	39.29
718.304	39.46
718.707	39.65
719.109	39.82
719.512	39.99
719.915	40.15
720.317	40.26
720.719	40.38
721.122	40.51
721.524	40.62
721.926	40.77
722.328	40.91
722.731	41.02
723.133	41.13
723.535	41.24
723.937	41.35
724.338	41.45
724.74	41.58
725.142	41.79
725.544	41.88
725.945	42.03
726.347	42.08
726.748	42.17
727.15	42.23
727.551	42.32
727.952	42.37
728.354	42.43
728.755	42.49
729.156	42.53
729.557	42.49
729.958	42.54
730.359	42.57
730.76	42.66
731.161	42.72
731.562	42.78
731.962	42.8
732.363	42.87
732.763	42.92
733.164	42.98
733.564	43.04
733.965	43.07
734.365	43.15
734.766	43.18
735.166	43.22
735.566	43.27
735.966	43.31
736.366	43.37
736.766	43.39
737.166	43.46
737.566	43.48
737.966	43.5
738.365	43.53
738.765	43.55
739.165	43.57
739.564	43.61
739.964	43.62
740.363	43.65
740.763	43.66
741.162	43.68
741.561	43.67
741.96	43.69
742.36	43.71
742.759	43.73
743.158	43.73
743.557	43.74
743.955	43.75
744.354	43.76
744.753	43.79
745.152	43.83
745.55	43.87
745.949	43.89
746.348	43.89
746.746	43.93
747.144	43.96
747.543	43.96
747.941	43.98
748.339	43.96
748.737	43.95
749.136	43.92
749.534	43.88
749.932	43.86
750.33	43.86
750.727	43.86
751.125	43.85
751.523	43.82
751.921	43.85
752.318	43.86
752.716	43.86
753.113	43.87
753.511	43.89
753.908	43.94
754.305	43.97
754.703	43.97
755.1	43.97
755.497	43.96
755.894	43.96
756.291	43.93
756.688	43.89
757.085	43.9
757.482	43.89
757.878	43.89
758.275	43.87
758.672	43.84
759.068	43.85
759.465	43.84
759.861	43.84
760.258	43.85
760.654	43.87
761.05	43.9
761.447	43.9
761.843	43.9
762.239	43.9
762.635	43.89
763.031	43.91
763.427	43.91
763.822	43.93
764.218	43.96
764.614	43.99
765.01	43.97
765.405	43.98
765.801	43.97
766.196	44
766.592	44
766.987	44.01
767.382	44.01
767.778	44.01
768.173	44.01
768.568	44
768.963	43.96
769.358	44
769.753	43.98
770.148	44.01
770.542	44.01
770.937	44.03
771.332	44.02
771.726	44.02
772.121	44.02
772.515	44.02
772.91	44.02
773.304	44.06
773.699	44.05
774.093	44.07
774.487	44.04
774.881	44.03
775.275	44.03
775.669	44.06
776.063	44.05
776.457	44.07
776.851	44.06
777.245	44.05
777.638	44.02
778.032	44.05
778.425	44.06
778.819	44.1
779.212	44.13
779.606	44.12
779.999	44.1
780.392	44.11
780.786	44.08
781.179	44.12
781.572	44.14
781.965	44.15
782.358	44.15
782.751	44.13
783.143	44.11
783.536	44.1
783.929	44.11
784.322	44.1
784.714	44.1
785.107	44.12
785.499	44.12
785.891	44.12
786.284	44.11
786.676	44.12
787.068	44.12
787.46	44.1
787.852	44.07
788.245	44.05
788.636	44.06
789.028	44.06
789.42	44.02
789.812	44.02
790.204	44.02
790.595	44.02
790.987	44
791.378	44.02
791.77	44.02
792.161	44.05
792.553	44.07
792.944	44.07
793.335	44.06
793.726	44.12
794.117	44.11
794.508	44.09
794.899	44.09
795.29	44.11
795.681	44.08
796.072	44.06
796.463	44.1
796.853	44.11
797.244	44.07
797.634	44.07
798.025	44.05
798.415	44.05
798.806	44.07
799.196	44.04
799.586	44.02
799.976	44.03
800.366	44.03
800.756	43.99
801.146	43.99
801.536	44.03
801.926	44.03
802.316	44.02
802.706	44.04
803.095	44.03
803.485	44.04
803.874	44.03
804.264	44.04
804.653	44.03
805.043	44.03
805.432	44.01
805.821	44.01
806.21	44.01
806.599	44.02
806.988	43.98
807.377	43.94
807.766	43.94
808.155	43.92
808.544	43.93
808.933	43.94
809.321	43.94
809.71	43.94
810.098	43.93
810.487	43.92
810.875	43.92
811.264	43.92
811.652	43.95
812.04	43.92
812.428	43.97
812.816	43.95
813.204	43.94
813.592	43.9
813.98	43.91
814.368	43.89
814.756	43.88
815.144	43.85
815.531	43.86
815.919	43.83
816.306	43.84
816.694	43.8
817.081	43.81
817.469	43.81
817.856	43.84
818.243	43.82
818.63	43.84
819.017	43.83
819.404	43.84
819.791	43.82
820.178	43.84
820.565	43.82
820.952	43.82
821.339	43.81
821.725	43.81
822.112	43.81
822.498	43.79
822.885	43.79
823.271	43.77
823.657	43.73
824.044	43.74
824.43	43.73
824.816	43.74
825.202	43.73
825.588	43.69
825.974	43.7
826.36	43.67
826.746	43.66
827.132	43.66
827.517	43.68
827.903	43.72
828.289	43.73
828.674	43.71
829.06	43.7
829.445	43.69
829.83	43.7
830.216	43.67
830.601	43.67
830.986	43.67
831.371	43.63
831.756	43.62
832.141	43.6
832.526	43.56
832.911	43.56
833.295	43.55
833.68	43.54
834.065	43.52
834.449	43.52
834.834	43.48
835.218	43.47
835.603	43.48
835.987	43.44
836.371	43.42
836.755	43.41
837.139	43.39
837.524	43.37
837.908	43.38
838.291	43.39
838.675	43.38
839.059	43.4
839.443	43.39
839.827	43.37
840.21	43.38
840.594	43.38
840.977	43.38
841.361	43.36
841.744	43.35
842.127	43.32
842.511	43.29
842.894	43.26
843.277	43.25
843.66	43.24
844.043	43.25
844.426	43.24
844.809	43.23
845.191	43.23
845.574	43.23
845.957	43.25
846.339	43.27
846.722	43.3
847.104	43.33
847.487	43.32
847.869	43.32
848.252	43.3
848.634	43.34
849.016	43.34
849.398	43.34
849.78	43.36
850.162	43.35
850.544	43.33
850.926	43.34
851.307	43.33
851.689	43.33
852.071	43.34
852.452	43.35
852.834	43.33
853.215	43.32
853.597	43.33
853.978	43.3
854.359	43.3
854.741	43.31
855.122	43.28
855.503	43.25
855.884	43.26
856.265	43.28
856.646	43.27
857.026	43.28
857.407	43.29
857.788	43.28
858.169	43.3
858.549	43.29
858.93	43.29
859.31	43.32
859.69	43.36
860.071	43.35
860.451	43.33
860.831	43.33
861.211	43.32
861.591	43.31
861.971	43.29
862.351	43.3
862.731	43.3
863.111	43.29
863.491	43.27
863.87	43.25
864.25	43.24
864.629	43.25
865.009	43.24
865.388	43.22
865.768	43.23
866.147	43.25
866.526	43.25
866.905	43.23
867.284	43.23
867.663	43.21
868.042	43.24
868.421	43.24
868.8	43.23
869.179	43.25
869.558	43.25
869.936	43.24
870.315	43.23
870.693	43.24
871.072	43.27
871.45	43.28
871.828	43.29
872.207	43.29
872.585	43.25
872.963	43.25
873.341	43.23
873.719	43.25
874.097	43.24
874.475	43.27
874.853	43.27
875.23	43.28
875.608	43.26
875.986	43.3
876.363	43.29
876.741	43.33
877.118	43.35
877.495	43.36
877.873	43.33
878.25	43.35
878.627	43.34
879.004	43.33
879.381	43.31
879.758	43.29
880.135	43.28
880.512	43.27
880.889	43.25
881.265	43.21
881.642	43.2
882.019	43.19
882.395	43.19
882.772	43.17
883.148	43.15
883.524	43.13
883.901	43.12
884.277	43.1
884.653	43.07
885.029	43.06
885.405	43.06
885.781	43.07
886.157	43.06
886.532	43.05
886.908	43.04
887.284	43.02
887.659	43
888.035	42.97
888.411	42.97
888.786	42.98
889.161	42.99
889.537	42.98
889.912	42.97
890.287	42.98
890.662	42.97
891.037	42.97
891.412	42.96
891.787	42.94
892.162	42.98
892.536	42.98
892.911	42.95
893.286	42.94
893.66	42.93
894.035	42.93
894.409	42.91
894.784	42.92
895.158	42.91
895.532	42.95
895.906	42.96
896.281	42.94
896.655	42.93
897.029	42.96
897.402	42.96
897.776	42.98
898.15	42.98
898.524	42.99
898.898	43
899.271	43.02
899.645	43.02
900.018	43.03
900.392	43.06
900.765	43.07
901.138	43.08
901.511	43.1
901.884	43.12
902.258	43.13
902.631	43.15
903.003	43.17
903.376	43.13
903.749	43.13
904.122	43.13
904.495	43.14
904.867	43.16
905.24	43.2
905.612	43.23
905.985	43.23
906.357	43.24
906.729	43.25
907.102	43.25
907.474	43.3
907.846	43.3
908.218	43.33
908.59	43.35
908.962	43.31
909.334	43.3
909.705	43.27
910.077	43.26
910.449	43.25
910.82	43.25
911.192	43.28
911.563	43.26
911.935	43.26
912.306	43.29
912.677	43.3
913.048	43.35
913.419	43.31
913.79	43.31
914.161	43.33
914.532	43.35
914.903	43.36
915.274	43.35
915.645	43.4
916.015	43.43
916.386	43.38
916.756	43.36
917.127	43.38
917.497	43.42
917.868	43.44
918.238	43.45
918.608	43.46
918.978	43.46
919.348	43.47
919.718	43.43
920.088	43.44
920.458	43.46
920.828	43.48
921.198	43.43
921.567	43.42
921.937	43.42
922.306	43.4
922.676	43.4
923.045	43.41
923.415	43.41
923.784	43.41
924.153	43.41
924.522	43.41
924.891	43.42
925.26	43.44
925.629	43.46
925.998	43.48
926.367	43.48
926.736	43.5
927.104	43.51
927.473	43.48
927.842	43.45
928.21	43.44
928.578	43.44
928.947	43.45
929.315	43.48
929.683	43.48
930.051	43.46
930.42	43.51
930.788	43.47
931.156	43.46
931.523	43.5
931.891	43.57
932.259	43.6
932.627	43.63
932.994	43.64
933.362	43.66
933.729	43.67
934.097	43.71
934.464	43.75
934.831	43.82
935.199	43.85
935.566	43.89
935.933	43.86
936.3	43.91
936.667	43.92
937.034	44.01
937.401	44.08
937.767	44.12
938.134	44.13
938.501	44.17
938.867	44.22
939.234	44.25
939.6	44.29
939.967	44.42
940.333	44.41
940.699	44.46
941.065	44.4
941.431	44.38
941.798	44.4
942.163	44.39
942.529	44.35
942.895	44.34
943.261	44.36
943.627	44.29
943.992	44.23
944.358	44.22
944.723	44.18
945.089	44.08
945.454	44.06
945.82	44.02
946.185	43.99
946.55	43.91
946.915	43.89
947.28	43.78
947.645	43.73
948.01	43.73
948.375	43.71
948.74	43.66
949.104	43.71
949.469	43.64
949.834	43.61
950.198	43.58
950.562	43.61
950.927	43.55
951.291	43.52
951.655	43.5
952.02	43.45
952.384	43.4
952.748	43.39
953.112	43.37
953.476	43.38
953.839	43.3
954.203	43.29
954.567	43.28
954.931	43.24
955.294	43.21
955.658	43.28
956.021	43.26
956.385	43.22
956.748	43.17
957.111	43.1
957.474	43.03
957.837	43.02
958.2	43.01
958.563	42.93
958.926	42.94
959.289	42.99
959.652	42.93
960.015	42.92
960.377	42.9
960.74	42.96
961.102	42.98
961.465	43.07
961.827	43.19
962.189	43.24
962.552	43.27
962.914	43.26
963.276	43.3
963.638	43.31
964	43.3
964.362	43.36
964.724	43.32
965.085	43.3
965.447	43.27
965.809	43.2
966.17	43.17
966.532	43.19
966.893	43.18
967.255	43.11
967.616	43.15
967.977	43.14
968.338	43.1
968.699	43.13
969.061	43.14
969.421	43.16
969.782	43.19
970.143	43.17
970.504	43.18
970.865	43.26
971.225	43.28
971.586	43.22
971.946	43.28
972.307	43.33
972.667	43.3
973.027	43.38
973.388	43.42
973.748	43.43
974.108	43.5
974.468	43.5
974.828	43.55
975.188	43.56
975.548	43.6
975.907	43.58
976.267	43.59
976.627	43.72
976.986	43.68
977.346	43.58
977.705	43.57
978.064	43.57
978.424	43.61
978.783	43.57
979.142	43.62
979.501	43.68
979.86	43.77
980.219	43.73
980.578	43.67
980.937	43.66
981.296	43.71
981.654	43.81
982.013	43.87
982.371	43.86
982.73	43.88
983.088	43.88
983.447	43.87
983.805	43.9
984.163	43.94
984.521	44
984.879	44.02
985.237	44.09
985.595	44.08
985.953	44.06
986.311	44.07
986.669	44.13
987.026	44.17
987.384	44.24
987.741	44.14
988.099	44.22
988.456	44.26
988.814	44.34
989.171	44.37
989.528	44.36
989.885	44.41
990.242	44.54
990.599	44.57
990.956	44.65
991.313	44.72
991.67	44.84
992.027	45.01
992.383	45.12
992.74	45.2
993.096	45.28
993.453	45.34
993.809	45.42
994.165	45.5
994.522	45.67
994.878	45.71
995.234	45.59
995.59	45.64
995.946	45.55
996.302	45.64
996.658	45.71
997.013	45.74
997.369	45.86
997.725	45.89
998.08	45.93
998.436	45.89
998.791	45.92
999.147	46.04
999.502	46.15
999.857	46.21
1000.212	46.16
1000.567	46.25
1000.922	46.23
1001.277	46.2
1001.632	46.18
1001.987	46.09
1002.342	45.99
1002.696	46.02
1003.051	46.25
1003.406	46.3
1003.76	46.33
1004.114	46.38
1004.469	46.45
1004.823	46.83
1005.177	46.97
1005.531	47.16
1005.885	47.26
1006.239	47.38
1006.593	47.47
1006.947	47.47
1007.301	47.58
1007.655	47.61
1008.008	47.78
1008.362	47.92
1008.715	47.73
1009.069	47.76
1009.422	47.89
1009.776	47.92
1010.129	48.04
1010.482	48.18
1010.835	48.23
1011.188	48.26
1011.541	48.43
1011.894	48.62
1012.247	48.59
1012.6	48.8
1012.952	48.89
1013.305	48.96
1013.657	49.23
1014.01	49.42
1014.362	49.47
1014.715	49.72
1015.067	49.81
1015.419	50.02
1015.771	49.94
1016.123	50.13
1016.475	50.11
1016.827	50.33
1017.179	50.48
1017.531	50.6
1017.883	50.63
1018.234	50.89
1018.586	50.99
1018.938	51.41
1019.289	51.37
1019.64	51.59
1019.992	51.45
1020.343	51.53
1020.694	51.66
1021.045	51.63
1021.396	51.77
1021.747	52.14
1022.098	52.36
1022.449	52.35
1022.8	52.3
1023.151	52.6
1023.501	52.72
1023.852	53.12
1024.202	53.53
1024.553	53.7
1024.903	54.05
1025.253	54.29
1025.604	54.27
1025.954	54.01
1026.304	54.37
1026.654	54.51
1027.004	54.53
1027.354	54.42
1027.703	54.43
1028.053	54.37
1028.403	54.66
1028.753	54.24
1029.102	54.46
1029.452	54.74
1029.801	55.23
1030.15	55.13
1030.499	55.1
897.758	1684.77
901.051	1698.07
904.343	1686.63
907.636	1717.52
910.928	1670.88
914.22	1666.9
917.511	1645.56
920.803	1576.48
924.094	1570.57
927.384	1535.93
930.675	1469.85
933.965	1459.66
937.255	1371.96
940.544	1318.75
943.834	1254.36
947.123	1242.91
950.411	1172.63
953.7	1146.35
956.988	1080.62
960.276	1034.57
963.563	1018.74
966.851	983.62
970.138	974.75
973.424	943.11
976.711	950.04
979.997	901.31
983.283	897.69
986.568	877.33
989.853	848.76
993.138	836.18
996.423	805.11
999.708	781.69
1002.992	772.87
1006.275	734.46
1009.559	727.54
1012.842	700.96
1016.125	681.48
1019.408	668.93
1022.69	660.18
1025.972	647.68
1029.254	630.62
1032.536	619.13
1035.817	605.07
1039.098	596.5
1042.379	585.85
1045.659	579.04
1048.939	563.35
1052.219	552.3
1055.498	542.72
1058.778	530.27
1062.057	516.32
1065.335	510.91
1068.614	504.65
1071.892	500.98
1075.17	482.88
1078.447	474.12
1081.724	471.09
1085.001	467.82
1088.278	457.94
1091.554	448.2
1094.83	447.8
1098.106	445.85
1101.382	440.59
1104.657	437.91
1107.932	429.88
1111.206	434.49
1114.481	421.54
1117.755	417.16
1121.029	413.62
1124.302	413.24
1127.575	405.44
1130.848	400.23
1134.121	395.65
1137.393	395.31
1140.665	385.48
1143.937	383.58
1147.208	378.65
1150.48	379.68
1153.75	373.92
1157.021	368.18
1160.291	368.17
1163.561	364.75
1166.831	363.92
1170.101	361.22
1173.37	359.72
1176.639	361.15
1179.907	356.71
1183.176	354.32
1186.444	353.62
1189.711	353.8
1192.979	352.81
1196.246	349.98
1199.513	350.69
1202.78	349.02
1206.046	349.11
1209.312	344.99
1212.578	345.36
1215.843	349.04
1219.108	345.99
1222.373	353.15
1225.638	355.19
1228.902	361.08
1232.166	361.36
1235.43	364.82
1238.693	370.21
1241.956	371.48
1245.219	378.16
1248.482	377.28
1251.744	376.6
1255.006	378.84
1258.268	369.69
1261.529	365.82
1264.79	362.37
1268.051	360.36
1271.312	355.4
1274.572	350.98
1277.832	347.48
1281.092	341.45
1284.351	339.3
1287.61	339.03
1290.869	333.63
1294.128	331.5
1297.386	331.91
1300.644	328.21
1303.902	329.66
1307.159	328.08
1310.416	328.15
1313.673	328.45
1316.93	331.63
1320.186	332.22
1323.442	333.19
1326.697	339.51
1329.953	340.42
1333.208	341.99
1336.463	345.79
1339.717	346.3
1342.972	351.36
1346.226	352.69
1349.479	352.95
1352.733	355.41
1355.986	357.07
1359.238	356.8
1362.491	359.25
1365.743	361.89
1368.995	362.94
1372.247	362.82
1375.498	363.45
1378.749	366.84
1382	362.68
1385.251	364.86
1388.501	362
1391.751	364.5
1395	362.87
1398.25	359.51
1401.499	359.65
1404.748	358.69
1407.996	354.44
1411.244	352.54
1414.492	350.67
1417.74	350.04
1420.987	344.45
1424.234	345.49
1427.481	339.75
1430.728	340.01
1433.974	336.49
1437.22	333.25
1440.465	331.62
1443.711	330.47
1446.956	328.91
1450.201	323.39
1453.445	319.98
1456.689	319.16
1459.933	312.78
1463.177	310.68
1466.42	305.66
1469.663	301.95
1472.906	299.88
1476.148	292.39
1479.391	288.3
1482.633	284.75
1485.874	280.64
1489.115	278.69
1492.356	274.79
1495.597	274.27
1498.838	269.72
1502.078	267.94
1505.318	266.58
1508.557	266.2
1511.797	265.32
1515.036	263.75
1518.274	263.34
1521.513	260.45
1524.751	260.36
1527.989	259.16
1531.227	258.01
1534.464	258.67
1537.701	256.41
1540.938	255.48
1544.174	251.96
1547.41	251.83
1550.646	250.48
1553.882	250.06
1557.117	247.43
1560.352	244.77
1563.587	244.66
1566.821	242.57
1570.055	239.68
1573.289	237.56
1576.523	237.61
1579.756	235.7
1582.989	233.72
1586.222	233.79
1589.454	232.14
1592.686	233.77
1595.918	233.31
1599.15	231.9
1602.381	232.03
1605.612	231.94
1608.843	233.78
1612.073	232.91
1615.303	234.09
1618.533	234.71
1621.762	233.89
1624.992	233.85
1628.221	233.64
1631.449	233.12
1634.678	232.61
1637.906	233.64
1641.134	233.73
1644.361	232.68
1647.588	234.07
1650.815	233.16
1654.042	232.04
1657.269	233.35
1660.495	233.68
1663.72	231.75
1666.946	232.9
1670.171	233.54
1673.396	233.43
1676.621	233.42
1679.845	233.57
1683.069	232.57
1686.293	234.52
1689.517	235.9
1692.74	235.34
1695.963	236.32
1699.185	239.65
1702.408	239.65
1705.63	240.52
1708.852	241.08
1712.073	241.72
1715.294	242.32
1718.515	244.47
1721.736	243.8
1724.956	244.19
1728.176	244.3
1731.396	246.85
1734.616	245.6
1737.835	246.8
1741.054	245.38
1744.272	246.3
1747.491	248.9
1750.709	249.42
1753.927	248.86
1757.144	247.86
1760.361	249.71
1763.578	250.63
1766.795	249.45
1770.011	251.65
1773.227	251.77
1776.443	255.16
1779.658	256.44
1782.874	255.25
1786.089	256.5
1789.303	257.4
1792.518	261.02
1795.732	260.71
1798.945	263.65
1802.159	263.81
1805.372	264.57
1808.585	269.53
1811.797	270.05
1815.01	269.95
1818.222	272.81
1821.434	274.73
1824.645	276.04
1827.856	280.57
1831.067	282.99
1834.278	280.79
1837.488	283.64
1840.698	285.87
1843.908	282.68
1847.117	284.84
1850.326	287.12
1853.535	285.44
1856.744	290.62
1859.952	290.53
1863.16	289.11
1866.368	287.56
1869.575	292.84
1872.782	287.89
1875.989	287.66
1879.196	286.83
1882.402	285.34
1885.608	287.21
1888.814	289.32
1892.019	288.55
1895.224	288.2
1898.429	287.15
1901.634	289.49
1904.838	289.3
1908.042	293.97
1911.246	294.83
1914.449	297.16
1917.652	297.19
1920.855	296.62
1924.058	296.01
1927.26	294.43
1930.462	296.07
1933.664	299.65
1936.865	297.01
1940.066	297.04
1943.267	294.46
1946.467	294.61
1949.668	297
1952.868	300.66
1956.067	300.17
1959.267	301.47
1962.466	302.35
1965.665	300.72
1968.863	301.24
1972.061	305.54
1975.259	307.76
1978.457	310.64
1981.654	312.51
1984.852	312.72
1988.048	311.64
1991.245	314.44
1994.441	317.42
1997.637	319.67
2000.833	325.88
2004.028	329.69
2007.223	331.48
2010.418	334.85
2013.613	340.23
2016.807	343.91
2020.001	346.96
2023.194	353.03
2026.388	360.48
2029.581	368.69
2032.774	371.63
2035.966	378.56
2039.158	379.45
2042.35	387.24
2045.542	389.22
2048.733	395.24
2051.924	400.04
2055.115	407.45
2058.306	407.2
2061.496	412.9
2064.686	410.91
2067.875	419.42
2071.065	420.53
2074.254	419.16
2077.442	422.75
2080.631	425.35
2083.819	429.72
2087.007	430.26
2090.195	434.56
2093.382	437.79
2096.569	433.6
2099.756	442.58
2102.942	442.6
2106.128	447.53
2109.314	458.5
2112.5	457
2115.685	466.65
2118.87	467.09
2122.055	476.34
2125.239	479.63
2128.424	486.34
2131.608	490.32
2134.791	495.65
2137.974	498.33
2141.157	499.95
2144.34	499.01
2147.523	508.02
2150.705	504.03
2153.887	508.27
2157.068	509.45
2160.25	504.13
2163.431	507.49
2166.611	513.05
2169.792	522.88
2172.972	528.53
2176.152	529.94
2179.331	538.47
2182.511	547.62
2185.69	555.37
2188.868	567.02
2192.047	568.75
2195.225	585.87
2198.403	599.13
2201.58	609.83
2204.758	623.07
2207.935	636
2211.111	648.96
2214.288	655.67
2217.464	657.15
2220.64	665.68
2223.815	674.97
2226.991	701.98
2230.166	703.62
2233.34	717.41
2236.515	728.76
2239.689	727.69
2242.863	732.19
2246.036	755.34
2249.209	748.51
2252.382	759.87
2255.555	784.3
2258.727	787.05
2261.9	791.79
2265.071	799.89
2268.243	812.52
2271.414	822.97
2274.585	842.67
2277.756	850.12
2280.926	857.27
2284.096	877.52
2287.266	898.11
2290.436	903.28
2293.605	926.8
2296.774	954.8
2299.942	987.09
2303.111	992.05
2306.279	1018.1
2309.447	1029.25
2312.614	1057.58
2315.781	1084.62
2318.948	1135.12
2322.115	1118.06
2325.281	1179.54
2328.447	1150.1
2331.613	1204.02
2334.779	1186.91
2337.944	1238.34
2341.109	1248.45
2344.274	1284.06
2347.438	1330.14
2350.602	1329.28
2353.766	1370.04
2356.929	1391.06
2360.092	1379.26
2363.255	1484.39
2366.418	1471.34
2369.58	1504.31
2372.742	1598.72
2375.904	1638.66
2379.066	1627.68
2382.227	1594.36
2385.388	1730.05
2388.548	1736.16
2391.709	1761.22
2394.869	1962.7
2398.029	1873.55
2401.188	1932.41
2404.347	1918.62
2407.506	1885.42
2410.665	1943.71
2413.823	2063.2
2416.981	2186.06
2420.139	2109.83
2423.296	2085.07
2426.453	2171.95
2429.61	2088.66
2432.767	2192.36
2435.923	2167.49
2439.079	2366.33
2442.235	2397.64
2445.391	2366.67
2448.546	2350.57
2451.701	2286.81
2454.855	2290.17
2458.009	2427.34
2461.163	2521.29
2464.317	2619.9
2467.471	2687.93
2470.624	2685.61
2473.777	2615.87
2476.929	2554.52
2480.082	2486.13
2483.234	2452.72
2486.385	2572.32
2489.537	2584.51
2492.688	2682.54
2495.839	2611.37
2498.989	2554.84
2502.14	2566.51
2505.29	2596.48
2508.439	2638.29
2511.589	2628.57
2514.738	2866.14
2517.887	2807.06
2521.035	2969.58
2524.183	2989.92
2527.331	3013.48
2530.479	3005.46
2533.627	3025.06
