Data from N_2_DIV_WI_4N_Splice17_13-19-19-723.txt Node
Date: Sat Mar 07 13:19:19 EST 2020
User: sa697716
Spectrometer: NQ5500242
Trigger mode: 0
Integration Time (sec): 1.450000E-1
Scans to average: 20
Nonlinearity correction enabled: false
Boxcar width: 5
Storing dark spectrum: false
XAxis mode: Wavelengths
Number of Pixels in Spectrum: 512
>>>>>Begin Spectral Data<<<<<
187.83	170.33
188.298	168.54
188.766	155.99
189.233	138.61
189.701	145.33
190.169	172.31
190.636	178.54
191.104	290.6
191.571	298.47
192.039	100.48
192.506	252.25
192.974	14.18
193.441	-84.23
193.908	-14.66
194.375	85.59
194.842	44.48
195.31	105.54
195.777	269.6
196.244	67.57
196.711	47.96
197.177	46.74
197.644	45.65
198.111	44.61
198.578	45.29
199.045	45.15
199.511	44.62
199.978	44.7
200.445	44.6
200.911	44.56
201.378	44.52
201.844	44.37
202.31	44.18
202.777	44.36
203.243	44.7
203.709	44.2
204.176	43.93
204.642	43.67
205.108	43.63
205.574	43.37
206.04	42.65
206.506	42.18
206.972	42.31
207.438	42.02
207.903	41.62
208.369	40.53
208.835	39.65
209.301	38.88
209.766	37.89
210.232	36.76
210.697	35.97
211.163	35.21
211.628	34.42
212.094	33.5
212.559	32.76
213.024	31.85
213.49	31.47
213.955	30.92
214.42	30.29
214.885	29.52
215.35	28.7
215.815	27.5
216.28	25.98
216.745	24.29
217.21	22.55
217.675	21.06
218.14	19.8
218.604	18.6
219.069	17.67
219.534	16.87
219.998	16.19
220.463	15.68
220.927	15.16
221.392	14.79
221.856	14.48
222.32	14.2
222.785	13.93
223.249	13.68
223.713	13.45
224.177	13.3
224.642	13.09
225.106	12.88
225.57	12.68
226.034	12.55
226.497	12.39
226.961	12.22
227.425	12.08
227.889	11.92
228.353	11.77
228.816	11.64
229.28	11.48
229.744	11.35
230.207	11.23
230.671	11.09
231.134	10.92
231.597	10.8
232.061	10.68
232.524	10.56
232.987	10.47
233.45	10.37
233.914	10.25
234.377	10.13
234.84	10.03
235.303	9.93
235.766	9.85
236.229	9.78
236.691	9.68
237.154	9.6
237.617	9.51
238.08	9.42
238.542	9.34
239.005	9.27
239.468	9.18
239.93	9.1
240.393	9.04
240.855	8.94
241.317	8.85
241.78	8.77
242.242	8.69
242.704	8.63
243.166	8.55
243.629	8.49
244.091	8.42
244.553	8.35
245.015	8.27
245.477	8.2
245.939	8.13
246.4	8.07
246.862	8.01
247.324	7.95
247.786	7.88
248.247	7.81
248.709	7.74
249.17	7.66
249.632	7.62
250.093	7.57
250.555	7.52
251.016	7.47
251.477	7.41
251.939	7.37
252.4	7.31
252.861	7.26
253.322	7.23
253.783	7.19
254.244	7.15
254.705	7.09
255.166	7.05
255.627	7
256.088	6.97
256.549	6.93
257.009	6.88
257.47	6.84
257.931	6.79
258.391	6.73
258.852	6.68
259.312	6.64
259.773	6.59
260.233	6.55
260.694	6.5
261.154	6.45
261.614	6.41
262.074	6.36
262.534	6.32
262.994	6.29
263.455	6.25
263.915	6.22
264.374	6.19
264.834	6.15
265.294	6.12
265.754	6.1
266.214	6.07
266.673	6.04
267.133	6.02
267.593	6
268.052	5.98
268.512	5.96
268.971	5.94
269.431	5.91
269.89	5.9
270.349	5.88
270.809	5.86
271.268	5.83
271.727	5.81
272.186	5.8
272.645	5.77
273.104	5.75
273.563	5.73
274.022	5.71
274.481	5.69
274.94	5.67
275.399	5.65
275.857	5.63
276.316	5.61
276.775	5.59
277.233	5.58
277.692	5.56
278.15	5.54
278.609	5.52
279.067	5.5
279.525	5.48
279.984	5.46
280.442	5.44
280.9	5.42
281.358	5.41
281.816	5.39
282.274	5.37
282.732	5.35
283.19	5.33
283.648	5.31
284.106	5.29
284.564	5.27
285.021	5.25
285.479	5.23
285.937	5.21
286.394	5.19
286.852	5.16
287.309	5.14
287.767	5.12
288.224	5.09
288.682	5.07
289.139	5.05
289.596	5.03
290.053	5
290.511	4.97
290.968	4.95
291.425	4.91
291.882	4.9
292.339	4.88
292.796	4.86
293.252	4.85
293.709	4.83
294.166	4.82
294.623	4.8
295.079	4.78
295.536	4.77
295.992	4.76
296.449	4.75
296.905	4.73
297.362	4.72
297.818	4.7
298.274	4.69
298.731	4.68
299.187	4.66
299.643	4.65
300.099	4.64
300.555	4.63
301.011	4.61
301.467	4.61
301.923	4.59
302.379	4.58
302.835	4.57
303.291	4.56
303.746	4.55
304.202	4.54
304.658	4.54
305.113	4.53
305.569	4.52
306.024	4.51
306.479	4.49
306.935	4.49
307.39	4.48
307.845	4.48
308.301	4.47
308.756	4.46
309.211	4.45
309.666	4.45
310.121	4.45
310.576	4.44
311.031	4.44
311.486	4.44
311.94	4.44
312.395	4.43
312.85	4.43
313.305	4.42
313.759	4.42
314.214	4.4
314.668	4.38
315.123	4.37
315.577	4.36
316.032	4.35
316.486	4.35
316.94	4.34
317.394	4.33
317.849	4.31
318.303	4.3
318.757	4.28
319.211	4.28
319.665	4.26
320.119	4.24
320.572	4.23
321.026	4.22
321.48	4.2
321.934	4.19
322.387	4.17
322.841	4.17
323.295	4.17
323.748	4.16
324.202	4.16
324.655	4.15
325.108	4.15
325.562	4.15
326.015	4.14
326.468	4.13
326.921	4.13
327.374	4.12
327.827	4.12
328.28	4.11
328.733	4.1
329.186	4.09
329.639	4.1
330.092	4.09
330.545	4.09
330.997	4.09
331.45	4.09
331.903	4.1
332.355	4.11
332.808	4.1
333.26	4.09
333.713	4.09
334.165	4.08
334.617	4.08
335.069	4.07
335.522	4.07
335.974	4.07
336.426	4.06
336.878	4.05
337.33	4.04
337.782	4.03
338.234	4.04
338.686	4.04
339.137	4.04
339.589	4.03
340.041	4.02
340.493	4.01
340.944	3.99
341.396	3.98
341.847	3.96
342.299	3.95
342.75	3.94
343.201	3.91
343.653	3.9
344.104	3.88
344.555	3.87
345.006	3.86
345.457	3.85
345.908	3.84
346.359	3.84
346.81	3.85
347.261	3.83
347.712	3.83
348.163	3.82
348.613	3.82
349.064	3.81
349.515	3.81
349.965	3.8
350.416	3.8
350.866	3.8
351.317	3.78
351.767	3.78
352.217	3.77
352.668	3.77
353.118	3.77
353.568	3.76
354.018	3.76
354.468	3.76
354.918	3.76
355.368	3.77
355.818	3.76
356.268	3.76
356.718	3.76
357.168	3.75
357.617	3.74
358.067	3.74
358.517	3.75
358.966	3.74
359.416	3.75
359.865	3.74
360.315	3.74
360.764	3.75
361.213	3.74
361.663	3.74
362.112	3.74
362.561	3.75
363.01	3.74
363.459	3.73
363.908	3.73
364.357	3.73
364.806	3.72
365.255	3.72
365.703	3.72
366.152	3.72
366.601	3.72
367.05	3.71
367.498	3.71
367.947	3.71
368.395	3.71
368.844	3.7
369.292	3.69
369.74	3.69
370.189	3.68
370.637	3.67
371.085	3.65
371.533	3.65
371.981	3.65
372.429	3.65
372.877	3.64
373.325	3.63
373.773	3.62
374.221	3.6
374.669	3.59
375.116	3.58
375.564	3.57
376.012	3.57
376.459	3.56
376.907	3.56
377.354	3.55
377.801	3.55
378.249	3.55
378.696	3.55
379.143	3.55
379.591	3.56
380.038	3.55
380.485	3.54
380.932	3.54
381.379	3.54
381.826	3.53
382.273	3.52
382.72	3.5
383.166	3.5
383.613	3.49
384.06	3.48
384.506	3.47
384.953	3.47
385.4	3.46
385.846	3.46
386.292	3.45
386.739	3.45
387.185	3.44
387.631	3.45
388.078	3.44
388.524	3.43
388.97	3.43
389.416	3.43
389.862	3.43
390.308	3.43
390.754	3.44
391.2	3.45
391.645	3.45
392.091	3.46
392.537	3.46
392.983	3.46
393.428	3.47
393.874	3.47
394.319	3.47
394.765	3.46
395.21	3.47
395.655	3.46
396.101	3.46
396.546	3.47
396.991	3.48
397.436	3.49
397.881	3.49
398.326	3.5
398.771	3.51
399.216	3.52
399.661	3.53
400.106	3.54
400.551	3.54
400.995	3.55
401.44	3.54
401.885	3.54
402.329	3.54
402.774	3.55
403.218	3.56
403.663	3.57
404.107	3.58
404.551	3.59
404.995	3.58
405.44	3.58
405.884	3.59
406.328	3.6
406.772	3.61
407.216	3.61
407.66	3.61
408.104	3.61
408.547	3.62
408.991	3.62
409.435	3.63
409.879	3.64
410.322	3.67
410.766	3.68
411.209	3.7
411.653	3.72
412.096	3.73
412.54	3.75
412.983	3.75
413.426	3.78
413.869	3.79
414.312	3.82
414.756	3.83
415.199	3.83
415.642	3.83
416.085	3.83
416.527	3.82
416.97	3.83
417.413	3.82
417.856	3.82
418.298	3.81
418.741	3.81
419.184	3.8
419.626	3.8
420.069	3.8
420.511	3.8
420.953	3.81
421.396	3.83
421.838	3.83
422.28	3.85
422.722	3.87
423.164	3.88
423.606	3.89
424.048	3.9
424.49	3.9
424.932	3.9
425.374	3.89
425.816	3.88
426.258	3.86
426.699	3.85
427.141	3.83
427.582	3.84
428.024	3.84
428.465	3.84
428.907	3.84
429.348	3.83
429.789	3.83
430.231	3.85
430.672	3.87
431.113	3.89
431.554	3.9
431.995	3.91
432.436	3.9
432.877	3.92
433.318	3.92
433.759	3.94
434.2	3.97
434.64	3.98
435.081	3.98
435.522	4
435.962	4.01
436.403	4.03
436.843	4.05
437.284	4.06
437.724	4.05
438.164	4.05
438.604	4.05
439.045	4.06
439.485	4.05
439.925	4.05
440.365	4.05
440.805	4.04
441.245	4.04
441.685	4.05
442.125	4.07
442.564	4.06
443.004	4.06
443.444	4.05
443.883	4.04
444.323	4.04
444.762	4.04
445.202	4.05
445.641	4.07
446.081	4.05
446.52	4.04
446.959	4.04
447.398	4.06
447.837	4.07
448.276	4.08
448.716	4.09
449.154	4.09
449.593	4.11
450.032	4.11
450.471	4.09
450.91	4.1
451.349	4.1
451.787	4.08
452.226	4.06
452.664	4.05
453.103	4.03
453.541	4.02
453.98	4.02
454.418	4
454.856	3.98
455.295	3.97
455.733	3.95
456.171	3.93
456.609	3.93
457.047	3.92
457.485	3.91
457.923	3.91
458.361	3.9
458.798	3.9
459.236	3.9
459.674	3.89
460.111	3.89
460.549	3.92
460.987	3.93
461.424	3.93
461.862	3.94
462.299	3.95
462.736	3.96
463.173	3.96
463.611	3.97
464.048	3.98
464.485	3.99
464.922	3.99
465.359	3.98
465.796	3.99
466.233	3.99
466.67	4
467.106	4
467.543	4
467.98	3.98
468.416	3.97
468.853	3.98
469.29	3.96
469.726	3.96
470.162	3.94
470.599	3.93
471.035	3.93
471.471	3.93
471.907	3.91
472.344	3.91
472.78	3.91
473.216	3.89
473.652	3.89
474.088	3.88
474.523	3.89
474.959	3.89
475.395	3.87
475.831	3.85
476.266	3.85
476.702	3.83
477.138	3.82
477.573	3.82
478.008	3.82
478.444	3.8
478.879	3.8
479.314	3.79
479.75	3.77
480.185	3.76
480.62	3.75
481.055	3.74
481.49	3.73
481.925	3.72
482.36	3.72
482.795	3.7
483.229	3.7
483.664	3.69
484.099	3.68
484.534	3.68
484.968	3.68
485.403	3.68
485.837	3.68
486.271	3.69
486.706	3.69
487.14	3.69
487.574	3.71
488.009	3.72
488.443	3.72
488.877	3.74
489.311	3.75
489.745	3.76
490.179	3.79
490.613	3.81
491.046	3.82
491.48	3.84
491.914	3.87
492.348	3.9
492.781	3.92
493.215	3.95
493.648	3.99
494.082	4.02
494.515	4.05
494.948	4.08
495.382	4.12
495.815	4.16
496.248	4.21
496.681	4.25
497.114	4.3
497.547	4.35
497.98	4.4
498.413	4.46
498.846	4.53
499.279	4.59
499.711	4.66
500.144	4.74
500.577	4.82
501.009	4.9
501.442	4.99
501.874	5.08
502.306	5.17
502.739	5.28
503.171	5.38
503.603	5.48
504.036	5.6
504.468	5.71
504.9	5.83
505.332	5.96
505.764	6.09
506.196	6.22
506.627	6.37
507.059	6.53
507.491	6.68
507.923	6.85
508.354	7.02
508.786	7.21
509.217	7.39
509.649	7.59
510.08	7.79
510.512	8
510.943	8.21
511.374	8.41
511.805	8.63
512.237	8.84
512.668	9.07
513.099	9.3
513.53	9.53
513.961	9.77
514.391	10.01
514.822	10.25
515.253	10.5
515.684	10.75
516.114	11.01
516.545	11.26
516.975	11.52
517.406	11.77
517.836	12.04
518.267	12.32
518.697	12.59
519.127	12.85
519.558	13.11
519.988	13.38
520.418	13.62
520.848	13.88
521.278	14.15
521.708	14.46
522.138	14.72
522.567	14.96
522.997	15.18
523.427	15.41
523.857	15.63
524.286	15.84
524.716	16.05
525.145	16.27
525.575	16.47
526.004	16.67
526.433	16.79
526.863	16.99
527.292	17.18
527.721	17.35
528.15	17.52
528.579	17.68
529.008	17.84
529.437	17.98
529.866	18.12
530.295	18.26
530.724	18.38
531.152	18.51
531.581	18.62
532.01	18.72
532.438	18.83
532.867	18.93
533.295	19.04
533.723	19.13
534.152	19.21
534.58	19.29
535.008	19.35
535.436	19.44
535.865	19.5
536.293	19.56
536.721	19.61
537.149	19.66
537.576	19.7
538.004	19.74
538.432	19.78
538.86	19.82
539.287	19.86
539.715	19.91
540.143	19.93
540.57	19.96
540.998	19.98
541.425	20.01
541.852	20.05
542.28	20.08
542.707	20.1
543.134	20.12
543.561	20.15
543.988	20.18
544.415	20.21
544.842	20.23
545.269	20.25
545.696	20.28
546.123	20.3
546.549	20.32
546.976	20.34
547.403	20.37
547.829	20.39
548.256	20.4
548.682	20.42
549.108	20.43
549.535	20.45
549.961	20.46
550.387	20.46
550.813	20.46
551.24	20.46
551.666	20.44
552.092	20.43
552.518	20.43
552.943	20.41
553.369	20.39
553.795	20.37
554.221	20.34
554.646	20.3
555.072	20.26
555.498	20.22
555.923	20.17
556.349	20.12
556.774	20.05
557.199	19.99
557.625	19.92
558.05	19.83
558.475	19.74
558.9	19.66
559.325	19.59
559.75	19.5
560.175	19.41
560.6	19.31
561.025	19.21
561.449	19.1
561.874	18.98
562.299	18.87
562.723	18.76
563.148	18.63
563.572	18.49
563.997	18.34
564.421	18.19
564.846	18.05
565.27	17.9
565.694	17.78
566.118	17.64
566.542	17.5
566.966	17.34
567.39	17.19
567.814	17.04
568.238	16.91
568.662	16.77
569.086	16.62
569.509	16.48
569.933	16.34
570.357	16.17
570.78	16.02
571.204	15.88
571.627	15.75
572.05	15.61
572.474	15.5
572.897	15.36
573.32	15.23
573.743	15.1
574.166	14.99
574.589	14.86
575.012	14.75
575.435	14.64
575.858	14.54
576.281	14.43
576.704	14.33
577.126	14.23
577.549	14.13
577.972	14.04
578.394	13.95
578.817	13.86
579.239	13.78
579.661	13.69
580.084	13.61
580.506	13.53
580.928	13.44
581.35	13.37
581.772	13.29
582.194	13.22
582.616	13.15
583.038	13.09
583.46	13.01
583.882	12.93
584.303	12.87
584.725	12.79
585.147	12.74
585.568	12.7
585.99	12.63
586.411	12.57
586.833	12.5
587.254	12.42
587.675	12.36
588.096	12.31
588.518	12.27
588.939	12.23
589.36	12.18
589.781	12.12
590.202	12.08
590.623	12.04
591.043	12.01
591.464	11.98
591.885	11.95
592.305	11.92
592.726	11.9
593.147	11.86
593.567	11.82
593.987	11.79
594.408	11.75
594.828	11.71
595.248	11.68
595.669	11.66
596.089	11.63
596.509	11.6
596.929	11.58
597.349	11.54
597.769	11.51
598.189	11.48
598.608	11.47
599.028	11.44
599.448	11.4
599.867	11.36
600.287	11.32
600.706	11.29
601.126	11.25
601.545	11.21
601.965	11.17
602.384	11.13
602.803	11.08
603.222	11.03
603.641	10.97
604.061	10.93
604.48	10.88
604.898	10.83
605.317	10.76
605.736	10.71
606.155	10.64
606.574	10.57
606.992	10.51
607.411	10.44
607.829	10.34
608.248	10.27
608.666	10.2
609.085	10.12
609.503	10.06
609.921	9.99
610.339	9.92
610.758	9.86
611.176	9.79
611.594	9.72
612.012	9.65
612.43	9.61
612.847	9.55
613.265	9.47
613.683	9.42
614.101	9.35
614.518	9.29
614.936	9.22
615.353	9.15
615.771	9.09
616.188	9.03
616.606	8.97
617.023	8.91
617.44	8.87
617.857	8.82
618.274	8.76
618.691	8.72
619.108	8.67
619.525	8.64
619.942	8.61
620.359	8.59
620.776	8.56
621.192	8.53
621.609	8.52
622.026	8.48
622.442	8.45
622.859	8.43
623.275	8.4
623.691	8.39
624.108	8.36
624.524	8.34
624.94	8.32
625.356	8.31
625.772	8.3
626.188	8.29
626.604	8.28
627.02	8.28
627.436	8.28
627.852	8.27
628.268	8.26
628.683	8.26
629.099	8.25
629.514	8.24
629.93	8.23
630.345	8.21
630.761	8.18
631.176	8.16
631.591	8.13
632.007	8.09
632.422	8.06
632.837	8.01
633.252	7.96
633.667	7.91
634.082	7.85
634.497	7.79
634.911	7.73
635.326	7.67
635.741	7.6
636.155	7.53
636.57	7.47
636.984	7.39
637.399	7.32
637.813	7.24
638.228	7.14
638.642	7.06
639.056	6.96
639.47	6.88
639.884	6.79
640.298	6.69
640.712	6.61
641.126	6.51
641.54	6.42
641.954	6.32
642.368	6.23
642.781	6.16
643.195	6.08
643.609	6
644.022	5.92
644.436	5.85
644.849	5.78
645.262	5.71
645.676	5.63
646.089	5.58
646.502	5.52
646.915	5.47
647.328	5.41
647.741	5.36
648.154	5.32
648.567	5.28
648.98	5.23
649.393	5.2
649.805	5.17
650.218	5.14
650.631	5.11
651.043	5.08
651.456	5.06
651.868	5.02
652.28	4.99
652.693	4.98
653.105	4.94
653.517	4.91
653.929	4.88
654.341	4.84
654.753	4.81
655.165	4.78
655.577	4.74
655.989	4.7
656.401	4.66
656.813	4.62
657.224	4.56
657.636	4.51
658.047	4.45
658.459	4.4
658.87	4.34
659.282	4.28
659.693	4.23
660.104	4.17
660.515	4.11
660.926	4.05
661.338	4
661.749	3.96
662.159	3.92
662.57	3.87
662.981	3.83
663.392	3.79
663.803	3.75
664.213	3.72
664.624	3.68
665.035	3.66
665.445	3.64
665.855	3.61
666.266	3.59
666.676	3.59
667.086	3.58
667.497	3.57
667.907	3.57
668.317	3.57
668.727	3.56
669.137	3.56
669.547	3.56
669.956	3.56
670.366	3.56
670.776	3.56
671.186	3.55
671.595	3.56
672.005	3.55
672.414	3.55
672.824	3.56
673.233	3.56
673.642	3.58
674.052	3.59
674.461	3.59
674.87	3.61
675.279	3.63
675.688	3.65
676.097	3.67
676.506	3.7
676.915	3.73
677.323	3.76
677.732	3.79
678.141	3.82
678.549	3.84
678.958	3.89
679.366	3.93
679.775	3.96
680.183	4.01
680.592	4.06
681	4.11
681.408	4.16
681.816	4.21
682.224	4.29
682.632	4.36
683.04	4.43
683.448	4.52
683.856	4.61
684.264	4.72
684.671	4.84
685.079	4.97
685.487	5.12
685.894	5.28
686.302	5.47
686.709	5.68
687.116	5.9
687.524	6.15
687.931	6.43
688.338	6.73
688.745	7.04
689.152	7.38
689.559	7.74
689.966	8.13
690.373	8.54
690.78	8.97
691.187	9.42
691.593	9.88
692	10.36
692.407	10.84
692.813	11.35
693.22	11.87
693.626	12.4
694.032	12.94
694.439	13.49
694.845	14.04
695.251	14.58
695.657	15.13
696.063	15.7
696.469	16.26
696.875	16.82
697.281	17.39
697.687	17.95
698.093	18.51
698.498	19.06
698.904	19.61
699.31	20.13
699.715	20.68
700.12	21.23
700.526	21.74
700.931	22.27
701.337	22.8
701.742	23.29
702.147	23.79
702.552	24.28
702.957	24.75
703.362	25.22
703.767	25.7
704.172	26.16
704.577	26.6
704.981	27.07
705.386	27.51
705.791	27.93
706.195	28.37
706.6	28.8
707.004	29.24
707.408	29.67
707.813	30.09
708.217	30.5
708.621	30.9
709.025	31.28
709.43	31.65
709.834	32.04
710.237	32.42
710.641	32.78
711.045	33.14
711.449	33.48
711.853	33.83
712.256	34.16
712.66	34.5
713.064	34.82
713.467	35.16
713.87	35.49
714.274	35.79
714.677	36.11
715.08	36.4
715.484	36.7
715.887	37
716.29	37.28
716.693	37.59
717.096	37.87
717.499	38.19
717.901	38.47
718.304	38.74
718.707	39.01
719.109	39.26
719.512	39.52
719.915	39.79
720.317	40.03
720.719	40.26
721.122	40.46
721.524	40.68
721.926	40.88
722.328	41.11
722.731	41.29
723.133	41.49
723.535	41.67
723.937	41.87
724.338	42.03
724.74	42.22
725.142	42.48
725.544	42.65
725.945	42.86
726.347	42.99
726.748	43.12
727.15	43.28
727.551	43.42
727.952	43.57
728.354	43.71
728.755	43.83
729.156	43.94
729.557	43.98
729.958	44.08
730.359	44.16
730.76	44.29
731.161	44.39
731.562	44.5
731.962	44.6
732.363	44.72
732.763	44.8
733.164	44.88
733.564	44.98
733.965	45.07
734.365	45.17
734.766	45.25
735.166	45.33
735.566	45.38
735.966	45.46
736.366	45.52
736.766	45.57
737.166	45.63
737.566	45.71
737.966	45.75
738.365	45.81
738.765	45.85
739.165	45.9
739.564	45.95
739.964	46.01
740.363	46.01
740.763	46.06
741.162	46.1
741.561	46.12
741.96	46.15
742.36	46.19
742.759	46.22
743.158	46.25
743.557	46.26
743.955	46.29
744.354	46.32
744.753	46.38
745.152	46.41
745.55	46.44
745.949	46.48
746.348	46.51
746.746	46.53
747.144	46.56
747.543	46.56
747.941	46.58
748.339	46.59
748.737	46.59
749.136	46.59
749.534	46.59
749.932	46.61
750.33	46.62
750.727	46.62
751.125	46.63
751.523	46.63
751.921	46.68
752.318	46.68
752.716	46.72
753.113	46.75
753.511	46.77
753.908	46.81
754.305	46.84
754.703	46.85
755.1	46.87
755.497	46.89
755.894	46.9
756.291	46.89
756.688	46.9
757.085	46.91
757.482	46.92
757.878	46.92
758.275	46.89
758.672	46.88
759.068	46.91
759.465	46.88
759.861	46.88
760.258	46.9
760.654	46.9
761.05	46.92
761.447	46.91
761.843	46.92
762.239	46.94
762.635	46.95
763.031	46.95
763.427	46.92
763.822	46.93
764.218	46.96
764.614	46.96
765.01	46.95
765.405	46.94
765.801	46.9
766.196	46.88
766.592	46.85
766.987	46.86
767.382	46.85
767.778	46.84
768.173	46.84
768.568	46.79
768.963	46.76
769.358	46.79
769.753	46.8
770.148	46.82
770.542	46.83
770.937	46.86
771.332	46.84
771.726	46.85
772.121	46.84
772.515	46.85
772.91	46.86
773.304	46.88
773.699	46.86
774.093	46.87
774.487	46.87
774.881	46.88
775.275	46.88
775.669	46.87
776.063	46.86
776.457	46.89
776.851	46.86
777.245	46.83
777.638	46.83
778.032	46.84
778.425	46.84
778.819	46.83
779.212	46.84
779.606	46.82
779.999	46.81
780.392	46.84
780.786	46.83
781.179	46.87
781.572	46.93
781.965	46.9
782.358	46.88
782.751	46.88
783.143	46.88
783.536	46.87
783.929	46.87
784.322	46.89
784.714	46.89
785.107	46.89
785.499	46.92
785.891	46.9
786.284	46.96
786.676	46.98
787.068	46.98
787.46	47
787.852	47.01
788.245	47.02
788.636	47.01
789.028	47.01
789.42	47.01
789.812	47
790.204	46.98
790.595	46.96
790.987	46.95
791.378	46.95
791.77	46.96
792.161	46.95
792.553	46.96
792.944	46.95
793.335	46.96
793.726	46.96
794.117	46.94
794.508	46.93
794.899	46.93
795.29	46.94
795.681	46.92
796.072	46.88
796.463	46.91
796.853	46.88
797.244	46.88
797.634	46.88
798.025	46.9
798.415	46.9
798.806	46.89
799.196	46.9
799.586	46.91
799.976	46.92
800.366	46.94
800.756	46.93
801.146	46.96
801.536	46.99
801.926	46.98
802.316	46.97
802.706	46.96
803.095	47.01
803.485	46.99
803.874	46.99
804.264	46.99
804.653	46.98
805.043	46.98
805.432	46.96
805.821	46.95
806.21	46.96
806.599	46.96
806.988	46.99
807.377	46.95
807.766	46.96
808.155	46.91
808.544	46.9
808.933	46.91
809.321	46.89
809.71	46.89
810.098	46.88
810.487	46.84
810.875	46.81
811.264	46.79
811.652	46.82
812.04	46.82
812.428	46.87
812.816	46.87
813.204	46.86
813.592	46.85
813.98	46.85
814.368	46.86
814.756	46.9
815.144	46.91
815.531	46.93
815.919	46.92
816.306	46.89
816.694	46.9
817.081	46.89
817.469	46.89
817.856	46.88
818.243	46.88
818.63	46.85
819.017	46.83
819.404	46.79
819.791	46.75
820.178	46.74
820.565	46.73
820.952	46.72
821.339	46.7
821.725	46.7
822.112	46.72
822.498	46.72
822.885	46.75
823.271	46.76
823.657	46.77
824.044	46.78
824.43	46.81
824.816	46.82
825.202	46.79
825.588	46.77
825.974	46.78
826.36	46.76
826.746	46.74
827.132	46.73
827.517	46.74
827.903	46.76
828.289	46.77
828.674	46.74
829.06	46.75
829.445	46.76
829.83	46.77
830.216	46.75
830.601	46.74
830.986	46.74
831.371	46.74
831.756	46.73
832.141	46.75
832.526	46.76
832.911	46.76
833.295	46.78
833.68	46.79
834.065	46.8
834.449	46.79
834.834	46.8
835.218	46.79
835.603	46.78
835.987	46.79
836.371	46.75
836.755	46.72
837.139	46.71
837.524	46.69
837.908	46.71
838.291	46.71
838.675	46.71
839.059	46.71
839.443	46.73
839.827	46.72
840.21	46.68
840.594	46.7
840.977	46.7
841.361	46.69
841.744	46.65
842.127	46.6
842.511	46.58
842.894	46.57
843.277	46.56
843.66	46.54
844.043	46.55
844.426	46.57
844.809	46.55
845.191	46.57
845.574	46.6
845.957	46.62
846.339	46.65
846.722	46.67
847.104	46.7
847.487	46.69
847.869	46.71
848.252	46.69
848.634	46.67
849.016	46.68
849.398	46.67
849.78	46.66
850.162	46.65
850.544	46.64
850.926	46.63
851.307	46.61
851.689	46.62
852.071	46.61
852.452	46.59
852.834	46.61
853.215	46.61
853.597	46.61
853.978	46.59
854.359	46.59
854.741	46.57
855.122	46.57
855.503	46.57
855.884	46.56
856.265	46.55
856.646	46.57
857.026	46.55
857.407	46.53
857.788	46.5
858.169	46.53
858.549	46.53
858.93	46.54
859.31	46.52
859.69	46.53
860.071	46.55
860.451	46.54
860.831	46.55
861.211	46.54
861.591	46.54
861.971	46.56
862.351	46.57
862.731	46.58
863.111	46.58
863.491	46.62
863.87	46.61
864.25	46.57
864.629	46.58
865.009	46.58
865.388	46.59
865.768	46.6
866.147	46.58
866.526	46.57
866.905	46.57
867.284	46.56
867.663	46.54
868.042	46.52
868.421	46.57
868.8	46.56
869.179	46.55
869.558	46.53
869.936	46.52
870.315	46.54
870.693	46.54
871.072	46.52
871.45	46.53
871.828	46.53
872.207	46.55
872.585	46.52
872.963	46.52
873.341	46.52
873.719	46.54
874.097	46.56
874.475	46.55
874.853	46.53
875.23	46.54
875.608	46.53
875.986	46.56
876.363	46.55
876.741	46.56
877.118	46.57
877.495	46.56
877.873	46.57
878.25	46.55
878.627	46.57
879.004	46.58
879.381	46.59
879.758	46.57
880.135	46.56
880.512	46.57
880.889	46.56
881.265	46.57
881.642	46.56
882.019	46.57
882.395	46.57
882.772	46.57
883.148	46.53
883.524	46.52
883.901	46.51
884.277	46.5
884.653	46.47
885.029	46.47
885.405	46.45
885.781	46.46
886.157	46.45
886.532	46.43
886.908	46.41
887.284	46.42
887.659	46.41
888.035	46.41
888.411	46.39
888.786	46.4
889.161	46.39
889.537	46.37
889.912	46.35
890.287	46.33
890.662	46.34
891.037	46.34
891.412	46.32
891.787	46.32
892.162	46.28
892.536	46.29
892.911	46.28
893.286	46.28
893.66	46.29
894.035	46.29
894.409	46.29
894.784	46.29
895.158	46.29
895.532	46.3
895.906	46.3
896.281	46.31
896.655	46.31
897.029	46.32
897.402	46.31
897.776	46.32
898.15	46.32
898.524	46.34
898.898	46.33
899.271	46.33
899.645	46.32
900.018	46.34
900.392	46.36
900.765	46.36
901.138	46.35
901.511	46.36
901.884	46.38
902.258	46.39
902.631	46.38
903.003	46.39
903.376	46.41
903.749	46.4
904.122	46.41
904.495	46.43
904.867	46.43
905.24	46.45
905.612	46.46
905.985	46.43
906.357	46.42
906.729	46.43
907.102	46.43
907.474	46.43
907.846	46.44
908.218	46.43
908.59	46.43
908.962	46.43
909.334	46.44
909.705	46.43
910.077	46.44
910.449	46.45
910.82	46.44
911.192	46.45
911.563	46.43
911.935	46.44
912.306	46.42
912.677	46.44
913.048	46.46
913.419	46.45
913.79	46.47
914.161	46.47
914.532	46.49
914.903	46.5
915.274	46.49
915.645	46.5
916.015	46.49
916.386	46.5
916.756	46.48
917.127	46.48
917.497	46.48
917.868	46.49
918.238	46.5
918.608	46.51
918.978	46.5
919.348	46.5
919.718	46.52
920.088	46.51
920.458	46.52
920.828	46.5
921.198	46.44
921.567	46.42
921.937	46.39
922.306	46.38
922.676	46.35
923.045	46.35
923.415	46.33
923.784	46.32
924.153	46.33
924.522	46.34
924.891	46.35
925.26	46.39
925.629	46.4
925.998	46.4
926.367	46.41
926.736	46.41
927.104	46.4
927.473	46.4
927.842	46.37
928.21	46.37
928.578	46.36
928.947	46.39
929.315	46.37
929.683	46.37
930.051	46.33
930.42	46.32
930.788	46.29
931.156	46.27
931.523	46.29
931.891	46.33
932.259	46.34
932.627	46.34
932.994	46.32
933.362	46.32
933.729	46.33
934.097	46.4
934.464	46.44
934.831	46.46
935.199	46.52
935.566	46.49
935.933	46.49
936.3	46.49
936.667	46.48
937.034	46.49
937.401	46.49
937.767	46.52
938.134	46.47
938.501	46.46
938.867	46.46
939.234	46.44
939.6	46.47
939.967	46.44
940.333	46.41
940.699	46.41
941.065	46.37
941.431	46.4
941.798	46.33
942.163	46.34
942.529	46.28
942.895	46.28
943.261	46.21
943.627	46.14
943.992	46.1
944.358	46.11
944.723	46.1
945.089	46.02
945.454	46
945.82	46
946.185	45.96
946.55	45.9
946.915	45.87
947.28	45.88
947.645	45.92
948.01	45.92
948.375	45.89
948.74	45.88
949.104	45.97
949.469	45.96
949.834	45.93
950.198	45.89
950.562	45.92
950.927	45.87
951.291	45.81
951.655	45.74
952.02	45.74
952.384	45.72
952.748	45.65
953.112	45.61
953.476	45.56
953.839	45.54
954.203	45.53
954.567	45.45
954.931	45.38
955.294	45.36
955.658	45.43
956.021	45.4
956.385	45.34
956.748	45.38
957.111	45.32
957.474	45.32
957.837	45.28
958.2	45.27
958.563	45.27
958.926	45.34
959.289	45.41
959.652	45.31
960.015	45.3
960.377	45.33
960.74	45.31
961.102	45.37
961.465	45.44
961.827	45.52
962.189	45.55
962.552	45.56
962.914	45.57
963.276	45.58
963.638	45.61
964	45.55
964.362	45.59
964.724	45.58
965.085	45.57
965.447	45.5
965.809	45.45
966.17	45.44
966.532	45.43
966.893	45.42
967.255	45.37
967.616	45.41
967.977	45.47
968.338	45.44
968.699	45.43
969.061	45.38
969.421	45.41
969.782	45.42
970.143	45.39
970.504	45.45
970.865	45.47
971.225	45.5
971.586	45.45
971.946	45.43
972.307	45.42
972.667	45.39
973.027	45.46
973.388	45.45
973.748	45.47
974.108	45.53
974.468	45.49
974.828	45.51
975.188	45.46
975.548	45.47
975.907	45.49
976.267	45.49
976.627	45.54
976.986	45.5
977.346	45.45
977.705	45.39
978.064	45.35
978.424	45.37
978.783	45.29
979.142	45.31
979.501	45.32
979.86	45.38
980.219	45.36
980.578	45.41
980.937	45.45
981.296	45.5
981.654	45.5
982.013	45.48
982.371	45.47
982.73	45.55
983.088	45.56
983.447	45.5
983.805	45.48
984.163	45.5
984.521	45.44
984.879	45.39
985.237	45.41
985.595	45.53
985.953	45.51
986.311	45.41
986.669	45.37
987.026	45.35
987.384	45.43
987.741	45.37
988.099	45.42
988.456	45.35
988.814	45.31
989.171	45.27
989.528	45.23
989.885	45.29
990.242	45.38
990.599	45.41
990.956	45.43
991.313	45.39
991.67	45.45
992.027	45.6
992.383	45.65
992.74	45.74
993.096	45.8
993.453	45.75
993.809	45.82
994.165	45.85
994.522	45.87
994.878	45.93
995.234	45.89
995.59	45.91
995.946	45.76
996.302	45.85
996.658	45.89
997.013	45.93
997.369	45.97
997.725	46
998.08	46.03
998.436	46.03
998.791	46.06
999.147	46.09
999.502	46.05
999.857	46.02
1000.212	45.9
1000.567	45.89
1000.922	45.81
1001.277	45.88
1001.632	45.75
1001.987	45.82
1002.342	45.79
1002.696	45.75
1003.051	45.93
1003.406	45.94
1003.76	45.85
1004.114	45.9
1004.469	45.87
1004.823	46.06
1005.177	45.97
1005.531	46.13
1005.885	46.11
1006.239	46.27
1006.593	46.36
1006.947	46.31
1007.301	46.35
1007.655	46.5
1008.008	46.56
1008.362	46.55
1008.715	46.44
1009.069	46.56
1009.422	46.51
1009.776	46.48
1010.129	46.44
1010.482	46.34
1010.835	46.36
1011.188	46.34
1011.541	46.33
1011.894	46.39
1012.247	46.48
1012.6	46.52
1012.952	46.42
1013.305	46.5
1013.657	46.54
1014.01	46.39
1014.362	46.46
1014.715	46.47
1015.067	46.51
1015.419	46.67
1015.771	46.67
1016.123	46.63
1016.475	46.63
1016.827	46.81
1017.179	46.89
1017.531	46.86
1017.883	46.98
1018.234	47.01
1018.586	47.08
1018.938	47.28
1019.289	47.11
1019.64	47.03
1019.992	47.04
1020.343	47.04
1020.694	46.96
1021.045	46.81
1021.396	46.79
1021.747	47.07
1022.098	47.08
1022.449	46.99
1022.8	46.93
1023.151	46.89
1023.501	47.13
1023.852	47.03
1024.202	47.17
1024.553	47.13
1024.903	47.19
1025.253	47.29
1025.604	47.07
1025.954	46.8
1026.304	46.86
1026.654	46.9
1027.004	46.99
1027.354	46.92
1027.703	47.01
1028.053	46.9
1028.403	47.12
1028.753	47.02
1029.102	47.2
1029.452	47.31
1029.801	47.75
1030.15	47.75
1030.499	47.62
897.758	1351.93
901.051	1359.62
904.343	1357.45
907.636	1381.52
910.928	1341.31
914.22	1345.55
917.511	1323.1
920.803	1267.88
924.094	1261.85
927.384	1229.66
930.675	1184.51
933.965	1176.88
937.255	1106.66
940.544	1061.53
943.834	1009.7
947.123	1003.47
950.411	940.5
953.7	923.09
956.988	872.88
960.276	835.94
963.563	824.73
966.851	793.7
970.138	786.99
973.424	763.35
976.711	766.43
979.997	730.06
983.283	726.07
986.568	711.18
989.853	690.53
993.138	678.05
996.423	652.56
999.708	632.9
1002.992	626.3
1006.275	599.47
1009.559	593.73
1012.842	572.1
1016.125	556.09
1019.408	545.15
1022.69	538.93
1025.972	527.72
1029.254	514.97
1032.536	507.09
1035.817	496.27
1039.098	489.37
1042.379	479.23
1045.659	473.6
1048.939	462.48
1052.219	453.47
1055.498	446.35
1058.778	435.28
1062.057	425.58
1065.335	421.42
1068.614	416.06
1071.892	411.47
1075.17	399.1
1078.447	391.21
1081.724	387.78
1085.001	385.13
1088.278	377.68
1091.554	370.88
1094.83	370.78
1098.106	368.85
1101.382	365.04
1104.657	362.9
1107.932	357.55
1111.206	358.4
1114.481	349.05
1117.755	346.44
1121.029	343.51
1124.302	342.72
1127.575	336.09
1130.848	332.33
1134.121	327.57
1137.393	325.97
1140.665	318.76
1143.937	316.2
1147.208	314.74
1150.48	314.26
1153.75	310.3
1157.021	306.04
1160.291	306.06
1163.561	302.53
1166.831	302.73
1170.101	300.76
1173.37	299.68
1176.639	300.5
1179.907	298.29
1183.176	294.62
1186.444	295.11
1189.711	294.25
1192.979	293.65
1196.246	291.51
1199.513	292.42
1202.78	289.7
1206.046	290.17
1209.312	287.44
1212.578	287.43
1215.843	290.26
1219.108	287.91
1222.373	293.28
1225.638	295.75
1228.902	299.24
1232.166	299.68
1235.43	302.67
1238.693	306.66
1241.956	307.37
1245.219	313.13
1248.482	312.98
1251.744	311.78
1255.006	314.03
1258.268	306.25
1261.529	302.65
1264.79	301.38
1268.051	299.41
1271.312	295.72
1274.572	291.96
1277.832	290.04
1281.092	285.46
1284.351	283.26
1287.61	283.31
1290.869	278.82
1294.128	276.81
1297.386	277.59
1300.644	273.45
1303.902	274.32
1307.159	273.86
1310.416	274.45
1313.673	273.66
1316.93	275.95
1320.186	275.88
1323.442	277.11
1326.697	281.78
1329.953	283
1333.208	283.68
1336.463	287.35
1339.717	287.94
1342.972	289.62
1346.226	292.86
1349.479	293.32
1352.733	294.9
1355.986	296.05
1359.238	295.76
1362.491	297.65
1365.743	299.76
1368.995	300.38
1372.247	299.98
1375.498	299.94
1378.749	303.22
1382	299.01
1385.251	300.05
1388.501	298.07
1391.751	299.92
1395	297.97
1398.25	295.39
1401.499	294.42
1404.748	293.07
1407.996	290.7
1411.244	289.44
1414.492	287.44
1417.74	284.97
1420.987	280.58
1424.234	280.34
1427.481	276.53
1430.728	276.18
1433.974	272.8
1437.22	271.04
1440.465	270.2
1443.711	267.95
1446.956	265.78
1450.201	262.41
1453.445	259.98
1456.689	259.18
1459.933	254.18
1463.177	252.13
1466.42	248.09
1469.663	246.3
1472.906	243.89
1476.148	237.36
1479.391	234.93
1482.633	233.23
1485.874	229.62
1489.115	228.08
1492.356	225.52
1495.597	225.11
1498.838	221.98
1502.078	220.86
1505.318	219.42
1508.557	219.47
1511.797	220.07
1515.036	217.87
1518.274	217
1521.513	215.49
1524.751	215.12
1527.989	214.44
1531.227	213.5
1534.464	214.07
1537.701	211.98
1540.938	211.55
1544.174	208.91
1547.41	208.21
1550.646	207.39
1553.882	207.42
1557.117	204.84
1560.352	203.11
1563.587	202.6
1566.821	201.3
1570.055	199.86
1573.289	198.23
1576.523	197.89
1579.756	196.58
1582.989	195.56
1586.222	195.08
1589.454	193.76
1592.686	195.09
1595.918	194.47
1599.15	193.92
1602.381	194.24
1605.612	193.38
1608.843	194.96
1612.073	194.74
1615.303	195.4
1618.533	195.43
1621.762	195.75
1624.992	195.64
1628.221	195.63
1631.449	195.55
1634.678	194.53
1637.906	195.33
1641.134	195.34
1644.361	194.62
1647.588	195.57
1650.815	194.66
1654.042	193.78
1657.269	194.95
1660.495	195.15
1663.72	194.03
1666.946	195.16
1670.171	196.02
1673.396	195.25
1676.621	195.76
1679.845	195.98
1683.069	195.04
1686.293	196.66
1689.517	198.32
1692.74	197.59
1695.963	198.59
1699.185	200.69
1702.408	200.08
1705.63	200.91
1708.852	201.24
1712.073	201.48
1715.294	202.01
1718.515	203.33
1721.736	202.98
1724.956	202.95
1728.176	203.26
1731.396	204.92
1734.616	204.27
1737.835	205.35
1741.054	204.21
1744.272	205.22
1747.491	206.89
1750.709	207.24
1753.927	207.34
1757.144	206.71
1760.361	207.9
1763.578	208.34
1766.795	207.51
1770.011	208.9
1773.227	208.96
1776.443	211.38
1779.658	212.39
1782.874	211.71
1786.089	212.68
1789.303	213.53
1792.518	216.2
1795.732	216.2
1798.945	218.3
1802.159	218.18
1805.372	218.92
1808.585	222.61
1811.797	222.97
1815.01	223.8
1818.222	225.66
1821.434	227.59
1824.645	228.37
1827.856	231.79
1831.067	233.76
1834.278	232.46
1837.488	234.61
1840.698	235.92
1843.908	233.67
1847.117	235.38
1850.326	236.52
1853.535	236.26
1856.744	239.43
1859.952	239.6
1863.16	237.93
1866.368	235.86
1869.575	239.31
1872.782	235.58
1875.989	235.25
1879.196	235.08
1882.402	233.54
1885.608	233.66
1888.814	233.92
1892.019	233.44
1895.224	232.58
1898.429	231.73
1901.634	233.26
1904.838	233.05
1908.042	235.87
1911.246	236.4
1914.449	237.52
1917.652	238.32
1920.855	238.4
1924.058	237.91
1927.26	236.34
1930.462	237.42
1933.664	240.24
1936.865	238.26
1940.066	237.62
1943.267	236.51
1946.467	236.57
1949.668	237.8
1952.868	239.82
1956.067	240.29
1959.267	240.32
1962.466	241.06
1965.665	239.54
1968.863	240.06
1972.061	244.58
1975.259	246.87
1978.457	248.63
1981.654	250.43
1984.852	250.83
1988.048	249.93
1991.245	252.6
1994.441	255.81
1997.637	257.99
2000.833	263.28
2004.028	267.01
2007.223	267.12
2010.418	270.09
2013.613	274.55
2016.807	277.67
2020.001	279.93
2023.194	284.83
2026.388	290.28
2029.581	297.33
2032.774	299.7
2035.966	305.17
2039.158	305.09
2042.35	312.07
2045.542	313.4
2048.733	318.31
2051.924	322.69
2055.115	328.57
2058.306	328.58
2061.496	331.5
2064.686	331.19
2067.875	337.13
2071.065	338.53
2074.254	337.04
2077.442	340.26
2080.631	342.35
2083.819	345.97
2087.007	345.88
2090.195	349.56
2093.382	353.2
2096.569	350.93
2099.756	356.2
2102.942	356.63
2106.128	360.05
2109.314	368.57
2112.5	367.27
2115.685	375.53
2118.87	375.47
2122.055	383.22
2125.239	386.39
2128.424	390.88
2131.608	394.89
2134.791	401.06
2137.974	402.36
2141.157	402.64
2144.34	403.19
2147.523	410.04
2150.705	406.92
2153.887	411.02
2157.068	412.52
2160.25	407.82
2163.431	409.44
2166.611	413.51
2169.792	420.52
2172.972	426.87
2176.152	429.22
2179.331	436.03
2182.511	442.53
2185.69	447.71
2188.868	458.09
2192.047	458.32
2195.225	472.3
2198.403	484.41
2201.58	494.35
2204.758	503.43
2207.935	512.33
2211.111	522.7
2214.288	527.4
2217.464	529.32
2220.64	537
2223.815	542.64
2226.991	565.7
2230.166	566.92
2233.34	576.29
2236.515	584.35
2239.689	584.63
2242.863	587.24
2246.036	604.2
2249.209	600.12
2252.382	610.95
2255.555	629.8
2258.727	632.3
2261.9	636.13
2265.071	643.09
2268.243	652.71
2271.414	661.13
2274.585	676.42
2277.756	684.43
2280.926	692.04
2284.096	705.56
2287.266	721.29
2290.436	726.16
2293.605	743.42
2296.774	762.81
2299.942	787.7
2303.111	793.18
2306.279	809.75
2309.447	819.75
2312.614	841.12
2315.781	859.9
2318.948	906.54
2322.115	891.75
2325.281	939.9
2328.447	918.88
2331.613	959.27
2334.779	945.41
2337.944	986.23
2341.109	996.84
2344.274	1026.62
2347.438	1059.34
2350.602	1061.41
2353.766	1091.73
2356.929	1108.41
2360.092	1101.68
2363.255	1182.94
2366.418	1178.59
2369.58	1205.07
2372.742	1277.32
2375.904	1310.09
2379.066	1300.55
2382.227	1280.71
2385.388	1389.29
2388.548	1384.4
2391.709	1401.62
2394.869	1562.79
2398.029	1492.62
2401.188	1535.82
2404.347	1525.46
2407.506	1502.63
2410.665	1541.11
2413.823	1636.32
2416.981	1730.92
2420.139	1672.61
2423.296	1660.45
2426.453	1727.92
2429.61	1663.73
2432.767	1741.58
2435.923	1724.67
2439.079	1889.47
2442.235	1908.53
2445.391	1897.52
2448.546	1882.21
2451.701	1829.17
2454.855	1826.66
2458.009	1934.09
2461.163	2019.35
2464.317	2088.83
2467.471	2147.19
2470.624	2145.9
2473.777	2082.46
2476.929	2038.46
2480.082	1975.68
2483.234	1953.34
2486.385	2056.21
2489.537	2066.73
2492.688	2144.31
2495.839	2080.12
2498.989	2035.13
2502.14	2044.95
2505.29	2071.07
2508.439	2102.31
2511.589	2093.84
2514.738	2283.51
2517.887	2230.31
2521.035	2358.75
2524.183	2377.97
2527.331	2394.58
2530.479	2390.04
2533.627	2407.8
