Data from N_2_DEC_OH_4N_Splice17_13-04-05-573.txt Node
Date: Sat Mar 07 13:04:05 EST 2020
User: sa697716
Spectrometer: NQ5500242
Trigger mode: 0
Integration Time (sec): 1.450000E-1
Scans to average: 20
Nonlinearity correction enabled: false
Boxcar width: 5
Storing dark spectrum: false
XAxis mode: Wavelengths
Number of Pixels in Spectrum: 512
>>>>>Begin Spectral Data<<<<<
187.83	144.83
188.298	140.73
188.766	117.17
189.233	101.62
189.701	119.24
190.169	130.99
190.636	158.88
191.104	172.96
191.571	136.67
192.039	-104.19
192.506	-179.64
192.974	164.4
193.441	133.71
193.908	100.06
194.375	61.1
194.842	36.62
195.31	71.8
195.777	216.29
196.244	29.6
196.711	33.55
197.177	35.62
197.644	36.09
198.111	35.44
198.578	35.59
199.045	35.88
199.511	36.28
199.978	36.4
200.445	36.56
200.911	36.7
201.378	36.99
201.844	36.9
202.31	36.55
202.777	36.59
203.243	36.68
203.709	36.69
204.176	36.19
204.642	36.01
205.108	36.03
205.574	35.75
206.04	35.24
206.506	34.96
206.972	34.91
207.438	34.67
207.903	34.18
208.369	33.49
208.835	32.77
209.301	32.08
209.766	30.98
210.232	30.16
210.697	29.37
211.163	28.78
211.628	28.09
212.094	27.4
212.559	27.09
213.024	26.55
213.49	26.19
213.955	25.54
214.42	24.87
214.885	24.43
215.35	23.59
215.815	22.59
216.28	21.03
216.745	19.49
217.21	18.03
217.675	16.51
218.14	15.32
218.604	14.24
219.069	13.4
219.534	12.69
219.998	12.05
220.463	11.55
220.927	11.09
221.392	10.77
221.856	10.46
222.32	10.19
222.785	9.97
223.249	9.75
223.713	9.57
224.177	9.42
224.642	9.27
225.106	9.1
225.57	8.95
226.034	8.83
226.497	8.7
226.961	8.59
227.425	8.47
227.889	8.36
228.353	8.25
228.816	8.11
229.28	7.99
229.744	7.9
230.207	7.79
230.671	7.68
231.134	7.57
231.597	7.5
232.061	7.41
232.524	7.32
232.987	7.23
233.45	7.16
233.914	7.1
234.377	7.02
234.84	6.95
235.303	6.88
235.766	6.83
236.229	6.76
236.691	6.67
237.154	6.6
237.617	6.55
238.08	6.48
238.542	6.41
239.005	6.36
239.468	6.29
239.93	6.23
240.393	6.19
240.855	6.12
241.317	6.06
241.78	6.01
242.242	5.94
242.704	5.89
243.166	5.85
243.629	5.8
244.091	5.75
244.553	5.7
245.015	5.64
245.477	5.58
245.939	5.54
246.4	5.49
246.862	5.45
247.324	5.42
247.786	5.37
248.247	5.32
248.709	5.26
249.17	5.21
249.632	5.18
250.093	5.14
250.555	5.11
251.016	5.07
251.477	5.03
251.939	5
252.4	4.97
252.861	4.93
253.322	4.91
253.783	4.89
254.244	4.87
254.705	4.83
255.166	4.8
255.627	4.78
256.088	4.75
256.549	4.74
257.009	4.71
257.47	4.68
257.931	4.65
258.391	4.62
258.852	4.59
259.312	4.56
259.773	4.54
260.233	4.51
260.694	4.49
261.154	4.46
261.614	4.44
262.074	4.41
262.534	4.39
262.994	4.37
263.455	4.35
263.915	4.33
264.374	4.31
264.834	4.3
265.294	4.28
265.754	4.26
266.214	4.25
266.673	4.24
267.133	4.23
267.593	4.22
268.052	4.21
268.512	4.2
268.971	4.19
269.431	4.18
269.89	4.17
270.349	4.16
270.809	4.14
271.268	4.14
271.727	4.12
272.186	4.11
272.645	4.11
273.104	4.1
273.563	4.08
274.022	4.07
274.481	4.06
274.94	4.06
275.399	4.06
275.857	4.05
276.316	4.04
276.775	4.03
277.233	4.02
277.692	4.01
278.15	3.99
278.609	3.98
279.067	3.97
279.525	3.96
279.984	3.94
280.442	3.93
280.9	3.93
281.358	3.92
281.816	3.91
282.274	3.91
282.732	3.9
283.19	3.89
283.648	3.87
284.106	3.86
284.564	3.85
285.021	3.85
285.479	3.84
285.937	3.83
286.394	3.82
286.852	3.81
287.309	3.79
287.767	3.78
288.224	3.78
288.682	3.76
289.139	3.75
289.596	3.73
290.053	3.71
290.511	3.69
290.968	3.68
291.425	3.66
291.882	3.65
292.339	3.64
292.796	3.62
293.252	3.61
293.709	3.61
294.166	3.6
294.623	3.59
295.079	3.58
295.536	3.58
295.992	3.57
296.449	3.56
296.905	3.55
297.362	3.54
297.818	3.54
298.274	3.53
298.731	3.52
299.187	3.51
299.643	3.5
300.099	3.5
300.555	3.48
301.011	3.47
301.467	3.46
301.923	3.45
302.379	3.45
302.835	3.45
303.291	3.44
303.746	3.44
304.202	3.44
304.658	3.44
305.113	3.43
305.569	3.43
306.024	3.43
306.479	3.42
306.935	3.41
307.39	3.41
307.845	3.4
308.301	3.4
308.756	3.4
309.211	3.39
309.666	3.39
310.121	3.39
310.576	3.39
311.031	3.39
311.486	3.39
311.94	3.39
312.395	3.39
312.85	3.39
313.305	3.38
313.759	3.38
314.214	3.38
314.668	3.38
315.123	3.37
315.577	3.36
316.032	3.36
316.486	3.35
316.94	3.35
317.394	3.34
317.849	3.32
318.303	3.31
318.757	3.3
319.211	3.29
319.665	3.28
320.119	3.27
320.572	3.26
321.026	3.25
321.48	3.25
321.934	3.24
322.387	3.22
322.841	3.22
323.295	3.22
323.748	3.22
324.202	3.21
324.655	3.2
325.108	3.2
325.562	3.19
326.015	3.2
326.468	3.19
326.921	3.2
327.374	3.2
327.827	3.19
328.28	3.18
328.733	3.18
329.186	3.19
329.639	3.19
330.092	3.18
330.545	3.18
330.997	3.17
331.45	3.18
331.903	3.18
332.355	3.18
332.808	3.18
333.26	3.18
333.713	3.17
334.165	3.16
334.617	3.16
335.069	3.15
335.522	3.16
335.974	3.16
336.426	3.16
336.878	3.15
337.33	3.14
337.782	3.15
338.234	3.16
338.686	3.16
339.137	3.16
339.589	3.15
340.041	3.15
340.493	3.14
340.944	3.13
341.396	3.12
341.847	3.12
342.299	3.1
342.75	3.09
343.201	3.07
343.653	3.05
344.104	3.03
344.555	3.03
345.006	3.02
345.457	3.02
345.908	3.01
346.359	3.01
346.81	3
347.261	3
347.712	2.99
348.163	2.99
348.613	2.99
349.064	3
349.515	2.99
349.965	2.99
350.416	2.97
350.866	2.98
351.317	2.96
351.767	2.97
352.217	2.97
352.668	2.97
353.118	2.97
353.568	2.96
354.018	2.97
354.468	2.97
354.918	2.97
355.368	2.97
355.818	2.98
356.268	2.98
356.718	2.97
357.168	2.96
357.617	2.96
358.067	2.95
358.517	2.96
358.966	2.96
359.416	2.97
359.865	2.96
360.315	2.97
360.764	2.97
361.213	2.96
361.663	2.96
362.112	2.97
362.561	2.98
363.01	2.97
363.459	2.95
363.908	2.95
364.357	2.95
364.806	2.95
365.255	2.95
365.703	2.95
366.152	2.95
366.601	2.96
367.05	2.96
367.498	2.96
367.947	2.96
368.395	2.97
368.844	2.98
369.292	2.97
369.74	2.98
370.189	2.98
370.637	2.97
371.085	2.96
371.533	2.96
371.981	2.96
372.429	2.96
372.877	2.96
373.325	2.96
373.773	2.95
374.221	2.95
374.669	2.94
375.116	2.94
375.564	2.94
376.012	2.94
376.459	2.94
376.907	2.94
377.354	2.94
377.801	2.95
378.249	2.95
378.696	2.96
379.143	2.96
379.591	2.96
380.038	2.97
380.485	2.97
380.932	2.98
381.379	2.99
381.826	2.99
382.273	3
382.72	2.99
383.166	2.99
383.613	2.98
384.06	2.98
384.506	2.98
384.953	2.98
385.4	2.98
385.846	2.98
386.292	2.98
386.739	2.98
387.185	2.98
387.631	3
388.078	3.01
388.524	3.02
388.97	3.03
389.416	3.04
389.862	3.06
390.308	3.07
390.754	3.09
391.2	3.11
391.645	3.12
392.091	3.13
392.537	3.14
392.983	3.15
393.428	3.17
393.874	3.19
394.319	3.19
394.765	3.19
395.21	3.19
395.655	3.2
396.101	3.21
396.546	3.22
396.991	3.24
397.436	3.24
397.881	3.27
398.326	3.29
398.771	3.31
399.216	3.32
399.661	3.35
400.106	3.37
400.551	3.39
400.995	3.4
401.44	3.42
401.885	3.42
402.329	3.44
402.774	3.45
403.218	3.48
403.663	3.49
404.107	3.51
404.551	3.51
404.995	3.52
405.44	3.54
405.884	3.55
406.328	3.56
406.772	3.57
407.216	3.58
407.66	3.58
408.104	3.56
408.547	3.56
408.991	3.58
409.435	3.59
409.879	3.6
410.322	3.61
410.766	3.62
411.209	3.64
411.653	3.65
412.096	3.66
412.54	3.68
412.983	3.7
413.426	3.72
413.869	3.73
414.312	3.75
414.756	3.76
415.199	3.77
415.642	3.78
416.085	3.79
416.527	3.79
416.97	3.79
417.413	3.8
417.856	3.81
418.298	3.8
418.741	3.8
419.184	3.79
419.626	3.78
420.069	3.79
420.511	3.78
420.953	3.79
421.396	3.8
421.838	3.8
422.28	3.81
422.722	3.81
423.164	3.81
423.606	3.83
424.048	3.84
424.49	3.86
424.932	3.85
425.374	3.84
425.816	3.82
426.258	3.82
426.699	3.83
427.141	3.82
427.582	3.82
428.024	3.84
428.465	3.83
428.907	3.83
429.348	3.82
429.789	3.81
430.231	3.85
430.672	3.86
431.113	3.89
431.554	3.89
431.995	3.9
432.436	3.91
432.877	3.91
433.318	3.93
433.759	3.95
434.2	3.98
434.64	4
435.081	4
435.522	4
435.962	4
436.403	4.02
436.843	4.03
437.284	4.03
437.724	4.04
438.164	4.02
438.604	4.02
439.045	4.01
439.485	4.01
439.925	4.01
440.365	3.98
440.805	3.98
441.245	3.99
441.685	4
442.125	4.01
442.564	4
443.004	3.99
443.444	3.98
443.883	3.99
444.323	3.98
444.762	3.97
445.202	3.99
445.641	4
446.081	3.98
446.52	3.97
446.959	3.96
447.398	3.98
447.837	3.98
448.276	3.99
448.716	3.99
449.154	4
449.593	4.01
450.032	4.01
450.471	3.99
450.91	3.98
451.349	3.98
451.787	3.96
452.226	3.93
452.664	3.93
453.103	3.91
453.541	3.9
453.98	3.9
454.418	3.87
454.856	3.86
455.295	3.86
455.733	3.84
456.171	3.83
456.609	3.83
457.047	3.82
457.485	3.8
457.923	3.81
458.361	3.81
458.798	3.8
459.236	3.81
459.674	3.8
460.111	3.8
460.549	3.8
460.987	3.81
461.424	3.82
461.862	3.83
462.299	3.84
462.736	3.84
463.173	3.84
463.611	3.86
464.048	3.86
464.485	3.86
464.922	3.86
465.359	3.88
465.796	3.89
466.233	3.88
466.67	3.88
467.106	3.89
467.543	3.89
467.98	3.89
468.416	3.88
468.853	3.86
469.29	3.86
469.726	3.86
470.162	3.85
470.599	3.83
471.035	3.82
471.471	3.8
471.907	3.78
472.344	3.78
472.78	3.78
473.216	3.76
473.652	3.76
474.088	3.73
474.523	3.74
474.959	3.73
475.395	3.72
475.831	3.71
476.266	3.72
476.702	3.7
477.138	3.69
477.573	3.69
478.008	3.69
478.444	3.68
478.879	3.69
479.314	3.68
479.75	3.67
480.185	3.67
480.62	3.66
481.055	3.65
481.49	3.64
481.925	3.64
482.36	3.64
482.795	3.63
483.229	3.63
483.664	3.63
484.099	3.61
484.534	3.61
484.968	3.61
485.403	3.61
485.837	3.6
486.271	3.6
486.706	3.59
487.14	3.59
487.574	3.59
488.009	3.59
488.443	3.58
488.877	3.59
489.311	3.6
489.745	3.6
490.179	3.62
490.613	3.64
491.046	3.64
491.48	3.66
491.914	3.67
492.348	3.69
492.781	3.72
493.215	3.74
493.648	3.77
494.082	3.79
494.515	3.8
494.948	3.81
495.382	3.82
495.815	3.85
496.248	3.87
496.681	3.9
497.114	3.92
497.547	3.94
497.98	3.97
498.413	4.01
498.846	4.04
499.279	4.08
499.711	4.11
500.144	4.16
500.577	4.2
501.009	4.25
501.442	4.3
501.874	4.36
502.306	4.41
502.739	4.48
503.171	4.53
503.603	4.59
504.036	4.67
504.468	4.75
504.9	4.82
505.332	4.89
505.764	4.97
506.196	5.06
506.627	5.15
507.059	5.26
507.491	5.34
507.923	5.44
508.354	5.57
508.786	5.69
509.217	5.81
509.649	5.94
510.08	6.08
510.512	6.22
510.943	6.36
511.374	6.5
511.805	6.64
512.237	6.8
512.668	6.96
513.099	7.11
513.53	7.27
513.961	7.44
514.391	7.62
514.822	7.81
515.253	8
515.684	8.19
516.114	8.39
516.545	8.59
516.975	8.8
517.406	9
517.836	9.21
518.267	9.44
518.697	9.65
519.127	9.86
519.558	10.07
519.988	10.28
520.418	10.49
520.848	10.7
521.278	10.91
521.708	11.31
522.138	11.52
522.567	11.73
522.997	11.91
523.427	12.11
523.857	12.31
524.286	12.48
524.716	12.67
525.145	12.85
525.575	13.03
526.004	13.22
526.433	13.19
526.863	13.35
527.292	13.51
527.721	13.66
528.15	13.79
528.579	13.93
529.008	14.08
529.437	14.2
529.866	14.31
530.295	14.42
530.724	14.52
531.152	14.63
531.581	14.74
532.01	14.83
532.438	14.92
532.867	15.02
533.295	15.1
533.723	15.17
534.152	15.26
534.58	15.34
535.008	15.39
535.436	15.45
535.865	15.51
536.293	15.55
536.721	15.6
537.149	15.65
537.576	15.68
538.004	15.73
538.432	15.76
538.86	15.77
539.287	15.79
539.715	15.83
540.143	15.85
540.57	15.88
540.998	15.91
541.425	15.95
541.852	15.97
542.28	15.99
542.707	16.01
543.134	16.03
543.561	16.07
543.988	16.11
544.415	16.14
544.842	16.16
545.269	16.18
545.696	16.18
546.123	16.2
546.549	16.22
546.976	16.24
547.403	16.26
547.829	16.28
548.256	16.29
548.682	16.3
549.108	16.32
549.535	16.33
549.961	16.34
550.387	16.35
550.813	16.36
551.24	16.34
551.666	16.33
552.092	16.31
552.518	16.3
552.943	16.27
553.369	16.24
553.795	16.21
554.221	16.18
554.646	16.13
555.072	16.08
555.498	16.03
555.923	16
556.349	15.94
556.774	15.88
557.199	15.82
557.625	15.75
558.05	15.68
558.475	15.6
558.9	15.53
559.325	15.47
559.75	15.38
560.175	15.3
560.6	15.2
561.025	15.11
561.449	15
561.874	14.9
562.299	14.79
562.723	14.68
563.148	14.56
563.572	14.42
563.997	14.29
564.421	14.16
564.846	14.02
565.27	13.9
565.694	13.77
566.118	13.65
566.542	13.52
566.966	13.38
567.39	13.25
567.814	13.11
568.238	13
568.662	12.87
569.086	12.75
569.509	12.64
569.933	12.52
570.357	12.4
570.78	12.27
571.204	12.15
571.627	12.04
572.05	11.93
572.474	11.82
572.897	11.7
573.32	11.6
573.743	11.5
574.166	11.39
574.589	11.28
575.012	11.17
575.435	11.09
575.858	11
576.281	10.91
576.704	10.82
577.126	10.76
577.549	10.68
577.972	10.59
578.394	10.51
578.817	10.44
579.239	10.36
579.661	10.29
580.084	10.22
580.506	10.15
580.928	10.09
581.35	10.02
581.772	9.95
582.194	9.9
582.616	9.84
583.038	9.78
583.46	9.71
583.882	9.66
584.303	9.6
584.725	9.54
585.147	9.5
585.568	9.45
585.99	9.4
586.411	9.34
586.833	9.28
587.254	9.23
587.675	9.17
588.096	9.13
588.518	9.08
588.939	9.06
589.36	9.01
589.781	8.95
590.202	8.94
590.623	8.9
591.043	8.86
591.464	8.82
591.885	8.79
592.305	8.76
592.726	8.74
593.147	8.71
593.567	8.67
593.987	8.65
594.408	8.62
594.828	8.58
595.248	8.56
595.669	8.54
596.089	8.53
596.509	8.51
596.929	8.49
597.349	8.46
597.769	8.44
598.189	8.41
598.608	8.39
599.028	8.37
599.448	8.35
599.867	8.3
600.287	8.28
600.706	8.25
601.126	8.22
601.545	8.19
601.965	8.16
602.384	8.12
602.803	8.08
603.222	8.05
603.641	8.01
604.061	7.98
604.48	7.94
604.898	7.89
605.317	7.85
605.736	7.81
606.155	7.77
606.574	7.72
606.992	7.68
607.411	7.64
607.829	7.56
608.248	7.51
608.666	7.45
609.085	7.41
609.503	7.38
609.921	7.33
610.339	7.28
610.758	7.23
611.176	7.18
611.594	7.14
612.012	7.09
612.43	7.07
612.847	7.03
613.265	6.99
613.683	6.94
614.101	6.9
614.518	6.85
614.936	6.81
615.353	6.76
615.771	6.72
616.188	6.67
616.606	6.63
617.023	6.59
617.44	6.55
617.857	6.52
618.274	6.48
618.691	6.44
619.108	6.4
619.525	6.38
619.942	6.35
620.359	6.33
620.776	6.31
621.192	6.28
621.609	6.27
622.026	6.25
622.442	6.23
622.859	6.22
623.275	6.21
623.691	6.2
624.108	6.18
624.524	6.18
624.94	6.18
625.356	6.18
625.772	6.18
626.188	6.17
626.604	6.17
627.02	6.15
627.436	6.14
627.852	6.14
628.268	6.13
628.683	6.13
629.099	6.12
629.514	6.1
629.93	6.1
630.345	6.08
630.761	6.05
631.176	6.03
631.591	6.01
632.007	6
632.422	5.97
632.837	5.94
633.252	5.9
633.667	5.86
634.082	5.82
634.497	5.78
634.911	5.73
635.326	5.68
635.741	5.63
636.155	5.58
636.57	5.53
636.984	5.49
637.399	5.44
637.813	5.39
638.228	5.32
638.642	5.27
639.056	5.2
639.47	5.16
639.884	5.11
640.298	5.05
640.712	4.99
641.126	4.93
641.54	4.87
641.954	4.8
642.368	4.75
642.781	4.71
643.195	4.66
643.609	4.63
644.022	4.58
644.436	4.53
644.849	4.49
645.262	4.45
645.676	4.4
646.089	4.37
646.502	4.35
646.915	4.33
647.328	4.3
647.741	4.27
648.154	4.24
648.567	4.22
648.98	4.2
649.393	4.18
649.805	4.17
650.218	4.16
650.631	4.15
651.043	4.14
651.456	4.12
651.868	4.11
652.28	4.09
652.693	4.08
653.105	4.06
653.517	4.05
653.929	4.04
654.341	4.03
654.753	4.01
655.165	4
655.577	3.99
655.989	3.97
656.401	3.96
656.813	3.95
657.224	3.92
657.636	3.9
658.047	3.89
658.459	3.86
658.87	3.83
659.282	3.8
659.693	3.79
660.104	3.76
660.515	3.74
660.926	3.71
661.338	3.68
661.749	3.67
662.159	3.65
662.57	3.63
662.981	3.61
663.392	3.6
663.803	3.59
664.213	3.58
664.624	3.56
665.035	3.55
665.445	3.55
665.855	3.55
666.266	3.55
666.676	3.56
667.086	3.54
667.497	3.55
667.907	3.56
668.317	3.57
668.727	3.58
669.137	3.59
669.547	3.6
669.956	3.61
670.366	3.62
670.776	3.63
671.186	3.65
671.595	3.67
672.005	3.68
672.414	3.69
672.824	3.69
673.233	3.7
673.642	3.72
674.052	3.75
674.461	3.76
674.87	3.78
675.279	3.81
675.688	3.83
676.097	3.86
676.506	3.88
676.915	3.91
677.323	3.94
677.732	3.97
678.141	3.99
678.549	4.01
678.958	4.03
679.366	4.06
679.775	4.07
680.183	4.11
680.592	4.14
681	4.17
681.408	4.2
681.816	4.23
682.224	4.27
682.632	4.31
683.04	4.36
683.448	4.41
683.856	4.46
684.264	4.52
684.671	4.57
685.079	4.63
685.487	4.7
685.894	4.79
686.302	4.89
686.709	4.99
687.116	5.11
687.524	5.25
687.931	5.4
688.338	5.56
688.745	5.75
689.152	5.95
689.559	6.2
689.966	6.45
690.373	6.71
690.78	6.99
691.187	7.29
691.593	7.61
692	7.94
692.407	8.28
692.813	8.66
693.22	9.06
693.626	9.45
694.032	9.85
694.439	10.29
694.845	10.74
695.251	11.19
695.657	11.65
696.063	12.13
696.469	12.61
696.875	13.11
697.281	13.59
697.687	14.09
698.093	14.6
698.498	15.1
698.904	15.59
699.31	16.09
699.715	16.61
700.12	17.14
700.526	17.66
700.931	18.17
701.337	18.68
701.742	19.19
702.147	19.69
702.552	20.2
702.957	20.69
703.362	21.2
703.767	21.68
704.172	22.16
704.577	22.63
704.981	23.11
705.386	23.58
705.791	24.04
706.195	24.5
706.6	24.98
707.004	25.43
707.408	25.91
707.813	26.37
708.217	26.82
708.621	27.29
709.025	27.72
709.43	28.15
709.834	28.62
710.237	29.06
710.641	29.5
711.045	29.91
711.449	30.35
711.853	30.79
712.256	31.2
712.66	31.6
713.064	31.98
713.467	32.39
713.87	32.78
714.274	33.16
714.677	33.55
715.08	33.9
715.484	34.29
715.887	34.68
716.29	35.02
716.693	35.37
717.096	35.74
717.499	36.11
717.901	36.45
718.304	36.81
718.707	37.14
719.109	37.48
719.512	37.83
719.915	38.14
720.317	38.42
720.719	38.68
721.122	38.97
721.524	39.26
721.926	39.54
722.328	39.82
722.731	40.07
723.133	40.35
723.535	40.61
723.937	40.88
724.338	41.12
724.74	41.38
725.142	41.77
725.544	41.99
725.945	42.26
726.347	42.44
726.748	42.66
727.15	42.84
727.551	43.05
727.952	43.21
728.354	43.39
728.755	43.56
729.156	43.72
729.557	43.76
729.958	43.93
730.359	44.06
730.76	44.24
731.161	44.39
731.562	44.57
731.962	44.67
732.363	44.82
732.763	44.94
733.164	45.07
733.564	45.2
733.965	45.3
734.365	45.44
734.766	45.55
735.166	45.63
735.566	45.72
735.966	45.84
736.366	45.95
736.766	46.03
737.166	46.13
737.566	46.22
737.966	46.28
738.365	46.38
738.765	46.46
739.165	46.52
739.564	46.6
739.964	46.68
740.363	46.72
740.763	46.78
741.162	46.84
741.561	46.86
741.96	46.92
742.36	46.98
742.759	47.01
743.158	47.03
743.557	47.07
743.955	47.13
744.354	47.16
744.753	47.22
745.152	47.26
745.55	47.3
745.949	47.37
746.348	47.41
746.746	47.43
747.144	47.49
747.543	47.54
747.941	47.57
748.339	47.55
748.737	47.57
749.136	47.58
749.534	47.59
749.932	47.6
750.33	47.61
750.727	47.62
751.125	47.64
751.523	47.63
751.921	47.65
752.318	47.66
752.716	47.7
753.113	47.72
753.511	47.73
753.908	47.77
754.305	47.79
754.703	47.77
755.1	47.79
755.497	47.81
755.894	47.82
756.291	47.8
756.688	47.78
757.085	47.78
757.482	47.79
757.878	47.82
758.275	47.8
758.672	47.79
759.068	47.82
759.465	47.82
759.861	47.81
760.258	47.83
760.654	47.87
761.05	47.92
761.447	47.95
761.843	47.94
762.239	47.92
762.635	47.92
763.031	47.94
763.427	47.92
763.822	47.9
764.218	47.93
764.614	47.94
765.01	47.91
765.405	47.91
765.801	47.88
766.196	47.89
766.592	47.88
766.987	47.9
767.382	47.9
767.778	47.92
768.173	47.93
768.568	47.91
768.963	47.87
769.358	47.88
769.753	47.85
770.148	47.86
770.542	47.86
770.937	47.86
771.332	47.85
771.726	47.84
772.121	47.83
772.515	47.83
772.91	47.83
773.304	47.87
773.699	47.87
774.093	47.87
774.487	47.86
774.881	47.88
775.275	47.9
775.669	47.87
776.063	47.87
776.457	47.88
776.851	47.87
777.245	47.84
777.638	47.79
778.032	47.79
778.425	47.83
778.819	47.83
779.212	47.81
779.606	47.79
779.999	47.78
780.392	47.8
780.786	47.81
781.179	47.8
781.572	47.83
781.965	47.86
782.358	47.89
782.751	47.87
783.143	47.87
783.536	47.87
783.929	47.86
784.322	47.88
784.714	47.87
785.107	47.87
785.499	47.9
785.891	47.91
786.284	47.9
786.676	47.89
787.068	47.87
787.46	47.88
787.852	47.87
788.245	47.9
788.636	47.88
789.028	47.88
789.42	47.86
789.812	47.86
790.204	47.86
790.595	47.86
790.987	47.85
791.378	47.87
791.77	47.87
792.161	47.87
792.553	47.87
792.944	47.86
793.335	47.88
793.726	47.87
794.117	47.83
794.508	47.8
794.899	47.78
795.29	47.78
795.681	47.73
796.072	47.73
796.463	47.75
796.853	47.72
797.244	47.72
797.634	47.7
798.025	47.74
798.415	47.75
798.806	47.74
799.196	47.74
799.586	47.75
799.976	47.8
800.366	47.8
800.756	47.77
801.146	47.79
801.536	47.79
801.926	47.8
802.316	47.78
802.706	47.78
803.095	47.77
803.485	47.78
803.874	47.78
804.264	47.73
804.653	47.73
805.043	47.72
805.432	47.74
805.821	47.74
806.21	47.73
806.599	47.72
806.988	47.7
807.377	47.71
807.766	47.69
808.155	47.65
808.544	47.66
808.933	47.63
809.321	47.64
809.71	47.61
810.098	47.59
810.487	47.58
810.875	47.56
811.264	47.56
811.652	47.56
812.04	47.55
812.428	47.6
812.816	47.57
813.204	47.59
813.592	47.56
813.98	47.56
814.368	47.58
814.756	47.57
815.144	47.57
815.531	47.56
815.919	47.54
816.306	47.56
816.694	47.53
817.081	47.55
817.469	47.55
817.856	47.56
818.243	47.54
818.63	47.5
819.017	47.49
819.404	47.48
819.791	47.48
820.178	47.46
820.565	47.42
820.952	47.4
821.339	47.38
821.725	47.37
822.112	47.35
822.498	47.37
822.885	47.4
823.271	47.39
823.657	47.36
824.044	47.37
824.43	47.39
824.816	47.41
825.202	47.41
825.588	47.42
825.974	47.4
826.36	47.4
826.746	47.37
827.132	47.36
827.517	47.37
827.903	47.42
828.289	47.42
828.674	47.43
829.06	47.43
829.445	47.42
829.83	47.42
830.216	47.42
830.601	47.46
830.986	47.48
831.371	47.47
831.756	47.47
832.141	47.45
832.526	47.45
832.911	47.45
833.295	47.44
833.68	47.46
834.065	47.46
834.449	47.46
834.834	47.45
835.218	47.48
835.603	47.49
835.987	47.48
836.371	47.47
836.755	47.47
837.139	47.44
837.524	47.45
837.908	47.46
838.291	47.5
838.675	47.5
839.059	47.49
839.443	47.45
839.827	47.44
840.21	47.43
840.594	47.45
840.977	47.46
841.361	47.49
841.744	47.48
842.127	47.45
842.511	47.39
842.894	47.37
843.277	47.35
843.66	47.33
844.043	47.34
844.426	47.35
844.809	47.33
845.191	47.32
845.574	47.31
845.957	47.33
846.339	47.34
846.722	47.36
847.104	47.39
847.487	47.38
847.869	47.41
848.252	47.41
848.634	47.41
849.016	47.41
849.398	47.43
849.78	47.42
850.162	47.38
850.544	47.37
850.926	47.37
851.307	47.36
851.689	47.36
852.071	47.35
852.452	47.36
852.834	47.37
853.215	47.38
853.597	47.37
853.978	47.38
854.359	47.4
854.741	47.4
855.122	47.39
855.503	47.36
855.884	47.34
856.265	47.35
856.646	47.33
857.026	47.33
857.407	47.32
857.788	47.31
858.169	47.31
858.549	47.31
858.93	47.31
859.31	47.32
859.69	47.34
860.071	47.39
860.451	47.37
860.831	47.37
861.211	47.34
861.591	47.34
861.971	47.34
862.351	47.34
862.731	47.36
863.111	47.35
863.491	47.34
863.87	47.33
864.25	47.29
864.629	47.33
865.009	47.33
865.388	47.34
865.768	47.35
866.147	47.32
866.526	47.3
866.905	47.27
867.284	47.27
867.663	47.27
868.042	47.27
868.421	47.29
868.8	47.29
869.179	47.3
869.558	47.29
869.936	47.26
870.315	47.27
870.693	47.28
871.072	47.29
871.45	47.29
871.828	47.28
872.207	47.3
872.585	47.26
872.963	47.24
873.341	47.23
873.719	47.23
874.097	47.24
874.475	47.24
874.853	47.23
875.23	47.24
875.608	47.25
875.986	47.28
876.363	47.27
876.741	47.3
877.118	47.32
877.495	47.34
877.873	47.34
878.25	47.37
878.627	47.38
879.004	47.39
879.381	47.41
879.758	47.4
880.135	47.37
880.512	47.36
880.889	47.34
881.265	47.31
881.642	47.28
882.019	47.28
882.395	47.25
882.772	47.25
883.148	47.22
883.524	47.21
883.901	47.21
884.277	47.2
884.653	47.19
885.029	47.2
885.405	47.2
885.781	47.23
886.157	47.22
886.532	47.22
886.908	47.2
887.284	47.21
887.659	47.18
888.035	47.16
888.411	47.16
888.786	47.16
889.161	47.16
889.537	47.15
889.912	47.14
890.287	47.13
890.662	47.14
891.037	47.14
891.412	47.14
891.787	47.12
892.162	47.14
892.536	47.12
892.911	47.12
893.286	47.1
893.66	47.1
894.035	47.11
894.409	47.11
894.784	47.08
895.158	47.08
895.532	47.09
895.906	47.11
896.281	47.07
896.655	47.08
897.029	47.1
897.402	47.1
897.776	47.1
898.15	47.1
898.524	47.1
898.898	47.1
899.271	47.08
899.645	47.07
900.018	47.07
900.392	47.1
900.765	47.11
901.138	47.09
901.511	47.08
901.884	47.08
902.258	47.1
902.631	47.1
903.003	47.12
903.376	47.14
903.749	47.15
904.122	47.16
904.495	47.18
904.867	47.19
905.24	47.21
905.612	47.24
905.985	47.25
906.357	47.22
906.729	47.24
907.102	47.25
907.474	47.26
907.846	47.26
908.218	47.25
908.59	47.27
908.962	47.26
909.334	47.27
909.705	47.24
910.077	47.23
910.449	47.26
910.82	47.24
911.192	47.21
911.563	47.22
911.935	47.19
912.306	47.21
912.677	47.2
913.048	47.21
913.419	47.19
913.79	47.21
914.161	47.24
914.532	47.23
914.903	47.26
915.274	47.29
915.645	47.27
916.015	47.3
916.386	47.29
916.756	47.29
917.127	47.3
917.497	47.31
917.868	47.32
918.238	47.31
918.608	47.35
918.978	47.34
919.348	47.34
919.718	47.36
920.088	47.32
920.458	47.3
920.828	47.29
921.198	47.26
921.567	47.27
921.937	47.27
922.306	47.24
922.676	47.17
923.045	47.18
923.415	47.17
923.784	47.16
924.153	47.18
924.522	47.22
924.891	47.21
925.26	47.23
925.629	47.2
925.998	47.2
926.367	47.21
926.736	47.23
927.104	47.21
927.473	47.19
927.842	47.16
928.21	47.17
928.578	47.14
928.947	47.16
929.315	47.13
929.683	47.12
930.051	47.11
930.42	47.09
930.788	47.09
931.156	47.08
931.523	47.1
931.891	47.14
932.259	47.18
932.627	47.24
932.994	47.25
933.362	47.29
933.729	47.32
934.097	47.33
934.464	47.35
934.831	47.36
935.199	47.38
935.566	47.4
935.933	47.37
936.3	47.31
936.667	47.26
937.034	47.26
937.401	47.26
937.767	47.25
938.134	47.23
938.501	47.25
938.867	47.25
939.234	47.25
939.6	47.25
939.967	47.28
940.333	47.26
940.699	47.3
941.065	47.21
941.431	47.19
941.798	47.17
942.163	47.16
942.529	47.11
942.895	47.1
943.261	47.03
943.627	46.95
943.992	46.88
944.358	46.87
944.723	46.84
945.089	46.78
945.454	46.77
945.82	46.68
946.185	46.71
946.55	46.65
946.915	46.63
947.28	46.6
947.645	46.61
948.01	46.62
948.375	46.62
948.74	46.57
949.104	46.66
949.469	46.61
949.834	46.69
950.198	46.68
950.562	46.65
950.927	46.6
951.291	46.57
951.655	46.5
952.02	46.5
952.384	46.46
952.748	46.42
953.112	46.39
953.476	46.35
953.839	46.26
954.203	46.28
954.567	46.31
954.931	46.31
955.294	46.32
955.658	46.39
956.021	46.35
956.385	46.34
956.748	46.32
957.111	46.27
957.474	46.29
957.837	46.29
958.2	46.17
958.563	46.15
958.926	46.13
959.289	46.11
959.652	46.05
960.015	46.05
960.377	46.06
960.74	46.13
961.102	46.18
961.465	46.25
961.827	46.32
962.189	46.41
962.552	46.4
962.914	46.37
963.276	46.42
963.638	46.41
964	46.37
964.362	46.36
964.724	46.35
965.085	46.29
965.447	46.25
965.809	46.22
966.17	46.2
966.532	46.28
966.893	46.36
967.255	46.35
967.616	46.4
967.977	46.42
968.338	46.44
968.699	46.36
969.061	46.4
969.421	46.44
969.782	46.39
970.143	46.35
970.504	46.31
970.865	46.29
971.225	46.31
971.586	46.27
971.946	46.26
972.307	46.25
972.667	46.3
973.027	46.33
973.388	46.3
973.748	46.38
974.108	46.48
974.468	46.38
974.828	46.41
975.188	46.35
975.548	46.35
975.907	46.43
976.267	46.48
976.627	46.52
976.986	46.42
977.346	46.35
977.705	46.31
978.064	46.29
978.424	46.39
978.783	46.4
979.142	46.44
979.501	46.48
979.86	46.48
980.219	46.42
980.578	46.36
980.937	46.44
981.296	46.47
981.654	46.47
982.013	46.45
982.371	46.45
982.73	46.45
983.088	46.43
983.447	46.36
983.805	46.36
984.163	46.34
984.521	46.35
984.879	46.27
985.237	46.39
985.595	46.39
985.953	46.38
986.311	46.33
986.669	46.29
987.026	46.3
987.384	46.39
987.741	46.3
988.099	46.39
988.456	46.4
988.814	46.43
989.171	46.3
989.528	46.34
989.885	46.27
990.242	46.32
990.599	46.36
990.956	46.35
991.313	46.29
991.67	46.34
992.027	46.45
992.383	46.46
992.74	46.55
993.096	46.65
993.453	46.56
993.809	46.58
994.165	46.65
994.522	46.71
994.878	46.73
995.234	46.77
995.59	46.77
995.946	46.67
996.302	46.71
996.658	46.8
997.013	46.79
997.369	46.94
997.725	47.06
998.08	46.96
998.436	46.85
998.791	46.95
999.147	46.94
999.502	47.02
999.857	46.9
1000.212	46.84
1000.567	46.73
1000.922	46.56
1001.277	46.43
1001.632	46.25
1001.987	46.28
1002.342	46.36
1002.696	46.29
1003.051	46.43
1003.406	46.42
1003.76	46.46
1004.114	46.38
1004.469	46.46
1004.823	46.79
1005.177	46.79
1005.531	46.93
1005.885	46.95
1006.239	46.91
1006.593	46.92
1006.947	46.82
1007.301	46.66
1007.655	46.7
1008.008	46.82
1008.362	46.81
1008.715	46.6
1009.069	46.7
1009.422	46.7
1009.776	46.62
1010.129	46.63
1010.482	46.59
1010.835	46.49
1011.188	46.53
1011.541	46.49
1011.894	46.67
1012.247	46.67
1012.6	46.71
1012.952	46.8
1013.305	46.86
1013.657	47.03
1014.01	47.05
1014.362	47.12
1014.715	47.41
1015.067	47.59
1015.419	47.72
1015.771	47.55
1016.123	47.51
1016.475	47.58
1016.827	47.47
1017.179	47.36
1017.531	47.31
1017.883	47.29
1018.234	47.37
1018.586	47.39
1018.938	47.44
1019.289	47.34
1019.64	47.3
1019.992	47.23
1020.343	47.2
1020.694	47.16
1021.045	47.33
1021.396	47.36
1021.747	47.44
1022.098	47.44
1022.449	47.26
1022.8	47.15
1023.151	47.08
1023.501	47.1
1023.852	47.3
1024.202	47.15
1024.553	47.08
1024.903	46.81
1025.253	46.91
1025.604	46.96
1025.954	46.71
1026.304	46.65
1026.654	46.92
1027.004	46.85
1027.354	46.68
1027.703	46.33
1028.053	46.7
1028.403	46.77
1028.753	46.54
1029.102	46.47
1029.452	46.39
1029.801	46.59
1030.15	46.56
1030.499	46.18
897.758	1265.09
901.051	1279.42
904.343	1275.16
907.636	1299.17
910.928	1267.37
914.22	1265.92
917.511	1248.96
920.803	1190.89
924.094	1187.94
927.384	1162.34
930.675	1115.73
933.965	1110.28
937.255	1041.28
940.544	999.01
943.834	951.61
947.123	942.54
950.411	887.63
953.7	869.55
956.988	826.61
960.276	792.82
963.563	779.98
966.851	753.68
970.138	745.69
973.424	724.12
976.711	728
979.997	692.23
983.283	688.01
986.568	674.33
989.853	652.26
993.138	640.31
996.423	614.88
999.708	595.95
1002.992	589.73
1006.275	564.42
1009.559	558.99
1012.842	539.94
1016.125	525.76
1019.408	516.29
1022.69	506.91
1025.972	497.9
1029.254	486.56
1032.536	479.46
1035.817	468.48
1039.098	463.13
1042.379	454
1045.659	449.11
1048.939	437.15
1052.219	429.12
1055.498	421.96
1058.778	413.46
1062.057	404.54
1065.335	399.77
1068.614	394.7
1071.892	391.88
1075.17	377.98
1078.447	370.32
1081.724	366.35
1085.001	364.75
1088.278	356.14
1091.554	349.18
1094.83	349.68
1098.106	346.7
1101.382	344.15
1104.657	341.46
1107.932	336.55
1111.206	338.33
1114.481	330.37
1117.755	328.23
1121.029	324.97
1124.302	325.06
1127.575	318.61
1130.848	315
1134.121	310.84
1137.393	308.92
1140.665	302.3
1143.937	299.74
1147.208	298.52
1150.48	298.06
1153.75	293.81
1157.021	289.37
1160.291	289.07
1163.561	287.02
1166.831	287.05
1170.101	285.48
1173.37	284.51
1176.639	285.58
1179.907	283.54
1183.176	279.35
1186.444	279.32
1189.711	278.64
1192.979	277.96
1196.246	276.13
1199.513	276.95
1202.78	274.78
1206.046	274.66
1209.312	272.83
1212.578	272.65
1215.843	274.77
1219.108	273.25
1222.373	278.31
1225.638	280.91
1228.902	284.63
1232.166	285
1235.43	288.02
1238.693	291.13
1241.956	293.05
1245.219	297.4
1248.482	297.81
1251.744	297.36
1255.006	298.46
1258.268	291.61
1261.529	288.95
1264.79	287.08
1268.051	285.9
1271.312	280.75
1274.572	278.61
1277.832	275.08
1281.092	270.97
1284.351	268.77
1287.61	268.48
1290.869	265.5
1294.128	263.72
1297.386	263.22
1300.644	260.58
1303.902	260.8
1307.159	259.58
1310.416	259.66
1313.673	259.8
1316.93	262.08
1320.186	261.68
1323.442	262.65
1326.697	265.95
1329.953	267.24
1333.208	268.11
1336.463	271.26
1339.717	271.5
1342.972	276.08
1346.226	277.83
1349.479	278.5
1352.733	279.19
1355.986	281.38
1359.238	280.97
1362.491	283.46
1365.743	284.87
1368.995	285.45
1372.247	284.2
1375.498	284.1
1378.749	285.62
1382	282.3
1385.251	283.07
1388.501	281.11
1391.751	281.53
1395	280.49
1398.25	278.07
1401.499	276.66
1404.748	276.26
1407.996	273.92
1411.244	272.81
1414.492	271.45
1417.74	269.26
1420.987	265.39
1424.234	265.14
1427.481	261.65
1430.728	261.27
1433.974	258.95
1437.22	256.32
1440.465	255.48
1443.711	253.6
1446.956	251.96
1450.201	248.59
1453.445	245.75
1456.689	244.87
1459.933	240.89
1463.177	239.28
1466.42	234.96
1469.663	231.71
1472.906	230.99
1476.148	225.02
1479.391	222.03
1482.633	220.29
1485.874	216.63
1489.115	215.63
1492.356	213.02
1495.597	213.01
1498.838	209.28
1502.078	208.65
1505.318	207.83
1508.557	207.45
1511.797	207.66
1515.036	206.55
1518.274	205.37
1521.513	204.16
1524.751	203.3
1527.989	202.9
1531.227	201.87
1534.464	202.17
1537.701	200.33
1540.938	199.99
1544.174	197.96
1547.41	197.33
1550.646	196.79
1553.882	197.04
1557.117	194.61
1560.352	194.25
1563.587	193.43
1566.821	191.91
1570.055	190.43
1573.289	189.36
1576.523	188.94
1579.756	187.44
1582.989	186.3
1586.222	186.12
1589.454	184.64
1592.686	185.72
1595.918	184.69
1599.15	184.32
1602.381	184.54
1605.612	184.41
1608.843	185.53
1612.073	185.11
1615.303	186.11
1618.533	186.43
1621.762	186.23
1624.992	186.94
1628.221	186.72
1631.449	186.4
1634.678	185.63
1637.906	186.88
1641.134	186.53
1644.361	186.37
1647.588	187.03
1650.815	186.07
1654.042	185.16
1657.269	186.38
1660.495	186.39
1663.72	186.06
1666.946	186.53
1670.171	187.43
1673.396	187.09
1676.621	187.35
1679.845	187.26
1683.069	187.16
1686.293	188.87
1689.517	189.99
1692.74	189.48
1695.963	189.72
1699.185	191.52
1702.408	191.86
1705.63	192.77
1708.852	193.06
1712.073	193.5
1715.294	193.99
1718.515	194.8
1721.736	194.12
1724.956	194.59
1728.176	194.82
1731.396	196.56
1734.616	195.78
1737.835	196.85
1741.054	195.07
1744.272	195.67
1747.491	197.6
1750.709	197.74
1753.927	197.9
1757.144	197.11
1760.361	197.98
1763.578	198.26
1766.795	197.86
1770.011	199.11
1773.227	199.15
1776.443	201.85
1779.658	202.31
1782.874	202.04
1786.089	203.08
1789.303	203.73
1792.518	206.45
1795.732	206.14
1798.945	208
1802.159	208.53
1805.372	209.11
1808.585	212.56
1811.797	213.16
1815.01	213.38
1818.222	214.82
1821.434	215.88
1824.645	216.83
1827.856	220.44
1831.067	222.27
1834.278	221.65
1837.488	223.25
1840.698	224.83
1843.908	222.32
1847.117	223.83
1850.326	225.64
1853.535	224.28
1856.744	227.75
1859.952	227.19
1863.16	225.37
1866.368	223.88
1869.575	226.19
1872.782	222.33
1875.989	221.33
1879.196	221.35
1882.402	219.6
1885.608	219.88
1888.814	221.07
1892.019	219.56
1895.224	219.04
1898.429	218.75
1901.634	220.31
1904.838	219.85
1908.042	222.08
1911.246	222.8
1914.449	223.62
1917.652	223.71
1920.855	223.7
1924.058	223.18
1927.26	222.95
1930.462	223.72
1933.664	225.8
1936.865	223.59
1940.066	223.48
1943.267	222.42
1946.467	222.43
1949.668	223.43
1952.868	225.77
1956.067	225.65
1959.267	226.57
1962.466	227.1
1965.665	226.04
1968.863	226.47
1972.061	229.65
1975.259	231.89
1978.457	233.97
1981.654	235.89
1984.852	236.75
1988.048	236.51
1991.245	237.84
1994.441	240.61
1997.637	242.15
2000.833	246.83
2004.028	250.63
2007.223	252.24
2010.418	254.84
2013.613	259.24
2016.807	261.95
2020.001	263.68
2023.194	267.95
2026.388	274.88
2029.581	281.23
2032.774	283.71
2035.966	289.42
2039.158	288.87
2042.35	294.76
2045.542	296.91
2048.733	301.34
2051.924	306.09
2055.115	310.98
2058.306	311.2
2061.496	313.57
2064.686	313.12
2067.875	318.27
2071.065	319.68
2074.254	318.17
2077.442	321.48
2080.631	323.13
2083.819	326.17
2087.007	325.73
2090.195	330.5
2093.382	333.17
2096.569	331.46
2099.756	336.04
2102.942	337.75
2106.128	340.47
2109.314	348.32
2112.5	347.47
2115.685	354.45
2118.87	354.46
2122.055	361.92
2125.239	364
2128.424	368.84
2131.608	372.01
2134.791	376.78
2137.974	378.43
2141.157	379.81
2144.34	381.07
2147.523	386.98
2150.705	384.7
2153.887	388.61
2157.068	388.8
2160.25	385.84
2163.431	386.7
2166.611	391.87
2169.792	398.49
2172.972	402.8
2176.152	404.43
2179.331	409.27
2182.511	416.53
2185.69	421.04
2188.868	429.38
2192.047	430.53
2195.225	443.13
2198.403	454.56
2201.58	461.56
2204.758	470.22
2207.935	478.99
2211.111	489.69
2214.288	495.69
2217.464	494.75
2220.64	504.61
2223.815	511.9
2226.991	532.26
2230.166	532.49
2233.34	542.02
2236.515	550.34
2239.689	551.54
2242.863	554.88
2246.036	570.3
2249.209	567.93
2252.382	578.08
2255.555	593.15
2258.727	594.68
2261.9	599.28
2265.071	604.89
2268.243	615.65
2271.414	622.6
2274.585	637.86
2277.756	642.95
2280.926	647.69
2284.096	661.41
2287.266	675.45
2290.436	680.96
2293.605	696.77
2296.774	716.11
2299.942	737.43
2303.111	740
2306.279	758.86
2309.447	765.88
2312.614	788.5
2315.781	808.57
2318.948	844.78
2322.115	834.2
2325.281	877.49
2328.447	860.38
2331.613	893.95
2334.779	886.21
2337.944	925.5
2341.109	933.06
2344.274	960.72
2347.438	996.1
2350.602	995.56
2353.766	1027.05
2356.929	1041.91
2360.092	1034.82
2363.255	1108.42
2366.418	1107.44
2369.58	1130.42
2372.742	1198.53
2375.904	1229.81
2379.066	1223.77
2382.227	1194.35
2385.388	1301.78
2388.548	1297.92
2391.709	1314.87
2394.869	1463.86
2398.029	1403.53
2401.188	1446.45
2404.347	1436.32
2407.506	1416.45
2410.665	1455.71
2413.823	1542.85
2416.981	1640.46
2420.139	1579.52
2423.296	1568.26
2426.453	1633.3
2429.61	1572.8
2432.767	1644.19
2435.923	1625.39
2439.079	1779
2442.235	1798.68
2445.391	1781.21
2448.546	1762.33
2451.701	1712.41
2454.855	1710.53
2458.009	1812.71
2461.163	1890.74
2464.317	1960.22
2467.471	2006.55
2470.624	2011.79
2473.777	1958.65
2476.929	1909.79
2480.082	1854.83
2483.234	1837.51
2486.385	1925.11
2489.537	1935.81
2492.688	2009.73
2495.839	1953.97
2498.989	1910.11
2502.14	1926.45
2505.29	1941.03
2508.439	1968.01
2511.589	1963.2
2514.738	2146.09
2517.887	2096.96
2521.035	2219.13
2524.183	2237.72
2527.331	2251.36
2530.479	2241
2533.627	2257.9
