Data from N_2_DEC_NC_4N_Splice17_13-26-47-905.txt Node
Date: Sat Mar 07 13:26:47 EST 2020
User: sa697716
Spectrometer: NQ5500242
Trigger mode: 0
Integration Time (sec): 1.450000E-1
Scans to average: 20
Nonlinearity correction enabled: false
Boxcar width: 5
Storing dark spectrum: false
XAxis mode: Wavelengths
Number of Pixels in Spectrum: 512
>>>>>Begin Spectral Data<<<<<
187.83	211.6
188.298	235.18
188.766	203.86
189.233	172.54
189.701	179.42
190.169	191.94
190.636	193.88
191.104	324.95
191.571	68.01
192.039	117.22
192.506	-60.95
192.974	151.21
193.441	272.53
193.908	101.57
194.375	111.69
194.842	69.77
195.31	35.39
195.777	-80.68
196.244	43.43
196.711	38.66
197.177	41.81
197.644	41.84
198.111	41.43
198.578	42.04
199.045	42.99
199.511	43
199.978	43
200.445	43.29
200.911	43.22
201.378	43.05
201.844	43.24
202.31	43.27
202.777	43.13
203.243	43.17
203.709	42.92
204.176	42.23
204.642	42.07
205.108	42.12
205.574	41.75
206.04	41.23
206.506	40.94
206.972	40.78
207.438	40.1
207.903	39.53
208.369	39
208.835	38.37
209.301	37.76
209.766	36.5
210.232	35.57
210.697	34.8
211.163	34.42
211.628	33.6
212.094	32.56
212.559	32.05
213.024	31.49
213.49	30.82
213.955	30.01
214.42	29.34
214.885	28.72
215.35	27.97
215.815	26.83
216.28	25.26
216.745	23.77
217.21	22.39
217.675	20.95
218.14	19.73
218.604	18.68
219.069	17.79
219.534	17.06
219.998	16.51
220.463	16.05
220.927	15.54
221.392	15.18
221.856	14.9
222.32	14.64
222.785	14.44
223.249	14.22
223.713	14.03
224.177	13.89
224.642	13.72
225.106	13.54
225.57	13.33
226.034	13.21
226.497	13.08
226.961	12.95
227.425	12.83
227.889	12.69
228.353	12.57
228.816	12.43
229.28	12.28
229.744	12.16
230.207	12.03
230.671	11.9
231.134	11.76
231.597	11.66
232.061	11.54
232.524	11.43
232.987	11.32
233.45	11.24
233.914	11.14
234.377	11.05
234.84	10.96
235.303	10.88
235.766	10.82
236.229	10.74
236.691	10.67
237.154	10.58
237.617	10.51
238.08	10.44
238.542	10.34
239.005	10.28
239.468	10.21
239.93	10.14
240.393	10.07
240.855	9.98
241.317	9.91
241.78	9.84
242.242	9.76
242.704	9.7
243.166	9.63
243.629	9.58
244.091	9.51
244.553	9.45
245.015	9.38
245.477	9.32
245.939	9.27
246.4	9.22
246.862	9.18
247.324	9.14
247.786	9.08
248.247	9.03
248.709	8.97
249.17	8.92
249.632	8.9
250.093	8.86
250.555	8.82
251.016	8.78
251.477	8.74
251.939	8.71
252.4	8.69
252.861	8.65
253.322	8.63
253.783	8.59
254.244	8.56
254.705	8.52
255.166	8.48
255.627	8.45
256.088	8.41
256.549	8.37
257.009	8.32
257.47	8.26
257.931	8.21
258.391	8.15
258.852	8.11
259.312	8.07
259.773	8.02
260.233	7.98
260.694	7.93
261.154	7.88
261.614	7.84
262.074	7.79
262.534	7.76
262.994	7.73
263.455	7.69
263.915	7.66
264.374	7.63
264.834	7.61
265.294	7.58
265.754	7.56
266.214	7.54
266.673	7.52
267.133	7.51
267.593	7.49
268.052	7.48
268.512	7.46
268.971	7.44
269.431	7.42
269.89	7.4
270.349	7.38
270.809	7.36
271.268	7.33
271.727	7.31
272.186	7.29
272.645	7.27
273.104	7.24
273.563	7.21
274.022	7.19
274.481	7.18
274.94	7.17
275.399	7.14
275.857	7.12
276.316	7.1
276.775	7.08
277.233	7.06
277.692	7.04
278.15	7.02
278.609	7.01
279.067	6.99
279.525	6.96
279.984	6.93
280.442	6.91
280.9	6.89
281.358	6.86
281.816	6.84
282.274	6.82
282.732	6.79
283.19	6.76
283.648	6.73
284.106	6.71
284.564	6.68
285.021	6.65
285.479	6.61
285.937	6.58
286.394	6.55
286.852	6.52
287.309	6.49
287.767	6.46
288.224	6.43
288.682	6.4
289.139	6.37
289.596	6.34
290.053	6.32
290.511	6.3
290.968	6.29
291.425	6.27
291.882	6.25
292.339	6.24
292.796	6.23
293.252	6.21
293.709	6.2
294.166	6.2
294.623	6.19
295.079	6.17
295.536	6.16
295.992	6.14
296.449	6.13
296.905	6.12
297.362	6.1
297.818	6.08
298.274	6.07
298.731	6.06
299.187	6.03
299.643	6.02
300.099	6.01
300.555	6.01
301.011	6
301.467	5.99
301.923	5.97
302.379	5.97
302.835	5.96
303.291	5.96
303.746	5.95
304.202	5.95
304.658	5.94
305.113	5.94
305.569	5.93
306.024	5.92
306.479	5.91
306.935	5.9
307.39	5.9
307.845	5.89
308.301	5.89
308.756	5.89
309.211	5.88
309.666	5.88
310.121	5.88
310.576	5.87
311.031	5.87
311.486	5.87
311.94	5.87
312.395	5.86
312.85	5.86
313.305	5.85
313.759	5.84
314.214	5.84
314.668	5.83
315.123	5.81
315.577	5.8
316.032	5.8
316.486	5.79
316.94	5.78
317.394	5.76
317.849	5.74
318.303	5.73
318.757	5.72
319.211	5.71
319.665	5.7
320.119	5.7
320.572	5.69
321.026	5.68
321.48	5.67
321.934	5.66
322.387	5.66
322.841	5.65
323.295	5.66
323.748	5.65
324.202	5.65
324.655	5.64
325.108	5.63
325.562	5.64
326.015	5.63
326.468	5.62
326.921	5.62
327.374	5.62
327.827	5.62
328.28	5.61
328.733	5.61
329.186	5.6
329.639	5.6
330.092	5.6
330.545	5.59
330.997	5.59
331.45	5.59
331.903	5.59
332.355	5.59
332.808	5.58
333.26	5.58
333.713	5.57
334.165	5.56
334.617	5.56
335.069	5.55
335.522	5.55
335.974	5.53
336.426	5.52
336.878	5.51
337.33	5.49
337.782	5.48
338.234	5.48
338.686	5.47
339.137	5.47
339.589	5.44
340.041	5.44
340.493	5.42
340.944	5.41
341.396	5.4
341.847	5.39
342.299	5.37
342.75	5.36
343.201	5.34
343.653	5.33
344.104	5.31
344.555	5.3
345.006	5.28
345.457	5.28
345.908	5.27
346.359	5.26
346.81	5.27
347.261	5.26
347.712	5.26
348.163	5.25
348.613	5.26
349.064	5.26
349.515	5.25
349.965	5.26
350.416	5.25
350.866	5.25
351.317	5.23
351.767	5.23
352.217	5.23
352.668	5.22
353.118	5.23
353.568	5.21
354.018	5.22
354.468	5.23
354.918	5.22
355.368	5.23
355.818	5.23
356.268	5.23
356.718	5.23
357.168	5.22
357.617	5.22
358.067	5.23
358.517	5.23
358.966	5.24
359.416	5.24
359.865	5.23
360.315	5.24
360.764	5.25
361.213	5.25
361.663	5.25
362.112	5.26
362.561	5.28
363.01	5.27
363.459	5.27
363.908	5.27
364.357	5.28
364.806	5.29
365.255	5.29
365.703	5.3
366.152	5.31
366.601	5.33
367.05	5.34
367.498	5.33
367.947	5.35
368.395	5.36
368.844	5.37
369.292	5.36
369.74	5.37
370.189	5.38
370.637	5.38
371.085	5.38
371.533	5.39
371.981	5.39
372.429	5.4
372.877	5.4
373.325	5.41
373.773	5.42
374.221	5.43
374.669	5.43
375.116	5.44
375.564	5.44
376.012	5.47
376.459	5.48
376.907	5.5
377.354	5.51
377.801	5.53
378.249	5.56
378.696	5.56
379.143	5.58
379.591	5.61
380.038	5.63
380.485	5.66
380.932	5.67
381.379	5.69
381.826	5.73
382.273	5.75
382.72	5.76
383.166	5.78
383.613	5.82
384.06	5.85
384.506	5.88
384.953	5.91
385.4	5.94
385.846	5.98
386.292	6
386.739	6.03
387.185	6.06
387.631	6.11
388.078	6.14
388.524	6.18
388.97	6.22
389.416	6.27
389.862	6.31
390.308	6.36
390.754	6.4
391.2	6.45
391.645	6.5
392.091	6.55
392.537	6.58
392.983	6.63
393.428	6.69
393.874	6.73
394.319	6.77
394.765	6.81
395.21	6.84
395.655	6.88
396.101	6.92
396.546	6.95
396.991	7
397.436	7.05
397.881	7.1
398.326	7.14
398.771	7.17
399.216	7.2
399.661	7.26
400.106	7.31
400.551	7.35
400.995	7.38
401.44	7.42
401.885	7.46
402.329	7.49
402.774	7.51
403.218	7.56
403.663	7.6
404.107	7.63
404.551	7.66
404.995	7.68
405.44	7.7
405.884	7.73
406.328	7.75
406.772	7.77
407.216	7.79
407.66	7.8
408.104	7.78
408.547	7.79
408.991	7.81
409.435	7.81
409.879	7.83
410.322	7.84
410.766	7.85
411.209	7.86
411.653	7.88
412.096	7.89
412.54	7.9
412.983	7.92
413.426	7.97
413.869	7.98
414.312	8.02
414.756	8.03
415.199	8.04
415.642	8.05
416.085	8.06
416.527	8.06
416.97	8.05
417.413	8.05
417.856	8.05
418.298	8.03
418.741	8.04
419.184	8.02
419.626	8.04
420.069	8.05
420.511	8.06
420.953	8.07
421.396	8.08
421.838	8.08
422.28	8.09
422.722	8.12
423.164	8.12
423.606	8.11
424.048	8.11
424.49	8.11
424.932	8.09
425.374	8.08
425.816	8.05
426.258	8.04
426.699	8.03
427.141	8.02
427.582	8.01
428.024	8
428.465	7.99
428.907	7.97
429.348	7.95
429.789	7.94
430.231	7.94
430.672	7.95
431.113	7.95
431.554	7.96
431.995	7.96
432.436	7.96
432.877	7.96
433.318	7.98
433.759	8
434.2	8.02
434.64	8.04
435.081	8.04
435.522	8.04
435.962	8.05
436.403	8.07
436.843	8.07
437.284	8.08
437.724	8.09
438.164	8.08
438.604	8.1
439.045	8.11
439.485	8.13
439.925	8.13
440.365	8.16
440.805	8.16
441.245	8.2
441.685	8.24
442.125	8.25
442.564	8.28
443.004	8.31
443.444	8.35
443.883	8.38
444.323	8.38
444.762	8.43
445.202	8.47
445.641	8.52
446.081	8.54
446.52	8.57
446.959	8.62
447.398	8.65
447.837	8.69
448.276	8.71
448.716	8.76
449.154	8.82
449.593	8.85
450.032	8.87
450.471	8.88
450.91	8.91
451.349	8.94
451.787	8.94
452.226	8.95
452.664	8.98
453.103	8.98
453.541	8.99
453.98	9
454.418	9
454.856	9.01
455.295	9.01
455.733	9
456.171	9
456.609	9.02
457.047	9.02
457.485	9.01
457.923	9.02
458.361	9.02
458.798	9.02
459.236	9.02
459.674	9.01
460.111	9.01
460.549	9.02
460.987	9.03
461.424	9.01
461.862	9
462.299	9.01
462.736	9.01
463.173	9
463.611	9.01
464.048	9.01
464.485	9.02
464.922	9.03
465.359	9.03
465.796	9.04
466.233	9.06
466.67	9.07
467.106	9.08
467.543	9.07
467.98	9.07
468.416	9.05
468.853	9.06
469.29	9.07
469.726	9.08
470.162	9.09
470.599	9.1
471.035	9.09
471.471	9.09
471.907	9.08
472.344	9.11
472.78	9.11
473.216	9.12
473.652	9.12
474.088	9.11
474.523	9.12
474.959	9.12
475.395	9.11
475.831	9.12
476.266	9.14
476.702	9.15
477.138	9.15
477.573	9.17
478.008	9.18
478.444	9.18
478.879	9.19
479.314	9.18
479.75	9.2
480.185	9.2
480.62	9.2
481.055	9.19
481.49	9.2
481.925	9.22
482.36	9.22
482.795	9.23
483.229	9.25
483.664	9.27
484.099	9.29
484.534	9.3
484.968	9.32
485.403	9.35
485.837	9.39
486.271	9.41
486.706	9.43
487.14	9.46
487.574	9.49
488.009	9.53
488.443	9.56
488.877	9.61
489.311	9.66
489.745	9.71
490.179	9.77
490.613	9.83
491.046	9.89
491.48	9.96
491.914	10.03
492.348	10.1
492.781	10.18
493.215	10.26
493.648	10.34
494.082	10.42
494.515	10.5
494.948	10.58
495.382	10.66
495.815	10.76
496.248	10.87
496.681	10.96
497.114	11.07
497.547	11.17
497.98	11.28
498.413	11.39
498.846	11.51
499.279	11.63
499.711	11.74
500.144	11.87
500.577	12
501.009	12.12
501.442	12.26
501.874	12.4
502.306	12.54
502.739	12.69
503.171	12.86
503.603	13.03
504.036	13.2
504.468	13.38
504.9	13.55
505.332	13.73
505.764	13.93
506.196	14.12
506.627	14.32
507.059	14.53
507.491	14.73
507.923	14.94
508.354	15.14
508.786	15.35
509.217	15.57
509.649	15.79
510.08	16.02
510.512	16.25
510.943	16.47
511.374	16.68
511.805	16.91
512.237	17.13
512.668	17.36
513.099	17.58
513.53	17.81
513.961	18.04
514.391	18.27
514.822	18.5
515.253	18.73
515.684	18.97
516.114	19.2
516.545	19.43
516.975	19.66
517.406	19.88
517.836	20.11
518.267	20.33
518.697	20.54
519.127	20.75
519.558	20.96
519.988	21.18
520.418	21.37
520.848	21.55
521.278	21.75
521.708	22.09
522.138	22.29
522.567	22.46
522.997	22.63
523.427	22.81
523.857	22.96
524.286	23.1
524.716	23.24
525.145	23.4
525.575	23.55
526.004	23.7
526.433	23.66
526.863	23.79
527.292	23.91
527.721	24.03
528.15	24.14
528.579	24.26
529.008	24.37
529.437	24.47
529.866	24.56
530.295	24.65
530.724	24.75
531.152	24.84
531.581	24.91
532.01	25.01
532.438	25.08
532.867	25.15
533.295	25.22
533.723	25.27
534.152	25.33
534.58	25.38
535.008	25.43
535.436	25.47
535.865	25.53
536.293	25.58
536.721	25.61
537.149	25.64
537.576	25.67
538.004	25.71
538.432	25.74
538.86	25.78
539.287	25.8
539.715	25.84
540.143	25.86
540.57	25.88
540.998	25.89
541.425	25.9
541.852	25.92
542.28	25.95
542.707	25.96
543.134	25.98
543.561	26.01
543.988	26.01
544.415	26.01
544.842	26.02
545.269	26.04
545.696	26.07
546.123	26.09
546.549	26.11
546.976	26.14
547.403	26.16
547.829	26.15
548.256	26.16
548.682	26.18
549.108	26.2
549.535	26.23
549.961	26.22
550.387	26.21
550.813	26.21
551.24	26.21
551.666	26.2
552.092	26.19
552.518	26.2
552.943	26.2
553.369	26.19
553.795	26.17
554.221	26.16
554.646	26.14
555.072	26.14
555.498	26.11
555.923	26.09
556.349	26.05
556.774	26.03
557.199	25.99
557.625	25.98
558.05	25.95
558.475	25.92
558.9	25.88
559.325	25.86
559.75	25.81
560.175	25.77
560.6	25.72
561.025	25.66
561.449	25.61
561.874	25.55
562.299	25.48
562.723	25.4
563.148	25.33
563.572	25.25
563.997	25.18
564.421	25.09
564.846	25.01
565.27	24.95
565.694	24.87
566.118	24.79
566.542	24.69
566.966	24.6
567.39	24.51
567.814	24.43
568.238	24.34
568.662	24.25
569.086	24.17
569.509	24.08
569.933	23.98
570.357	23.89
570.78	23.79
571.204	23.71
571.627	23.62
572.05	23.54
572.474	23.46
572.897	23.37
573.32	23.28
573.743	23.19
574.166	23.12
574.589	23.04
575.012	22.96
575.435	22.89
575.858	22.82
576.281	22.76
576.704	22.67
577.126	22.59
577.549	22.52
577.972	22.45
578.394	22.39
578.817	22.31
579.239	22.24
579.661	22.18
580.084	22.1
580.506	22.05
580.928	22
581.35	21.95
581.772	21.91
582.194	21.85
582.616	21.81
583.038	21.73
583.46	21.66
583.882	21.62
584.303	21.57
584.725	21.52
585.147	21.48
585.568	21.43
585.99	21.35
586.411	21.3
586.833	21.26
587.254	21.21
587.675	21.18
588.096	21.15
588.518	21.13
588.939	21.11
589.36	21.07
589.781	21.04
590.202	21.01
590.623	20.99
591.043	20.96
591.464	20.94
591.885	20.93
592.305	20.9
592.726	20.89
593.147	20.87
593.567	20.83
593.987	20.81
594.408	20.78
594.828	20.75
595.248	20.75
595.669	20.74
596.089	20.72
596.509	20.7
596.929	20.68
597.349	20.67
597.769	20.63
598.189	20.62
598.608	20.61
599.028	20.6
599.448	20.57
599.867	20.54
600.287	20.49
600.706	20.47
601.126	20.44
601.545	20.4
601.965	20.35
602.384	20.32
602.803	20.27
603.222	20.22
603.641	20.17
604.061	20.13
604.48	20.08
604.898	20.02
605.317	19.97
605.736	19.91
606.155	19.86
606.574	19.8
606.992	19.74
607.411	19.68
607.829	19.57
608.248	19.5
608.666	19.43
609.085	19.36
609.503	19.3
609.921	19.22
610.339	19.16
610.758	19.1
611.176	19.02
611.594	18.95
612.012	18.87
612.43	18.84
612.847	18.78
613.265	18.71
613.683	18.65
614.101	18.59
614.518	18.52
614.936	18.45
615.353	18.37
615.771	18.32
616.188	18.25
616.606	18.2
617.023	18.14
617.44	18.09
617.857	18.05
618.274	18.01
618.691	17.98
619.108	17.95
619.525	17.91
619.942	17.88
620.359	17.85
620.776	17.83
621.192	17.81
621.609	17.79
622.026	17.77
622.442	17.74
622.859	17.72
623.275	17.69
623.691	17.65
624.108	17.63
624.524	17.62
624.94	17.62
625.356	17.6
625.772	17.59
626.188	17.58
626.604	17.57
627.02	17.56
627.436	17.56
627.852	17.55
628.268	17.56
628.683	17.55
629.099	17.54
629.514	17.53
629.93	17.53
630.345	17.52
630.761	17.48
631.176	17.46
631.591	17.41
632.007	17.39
632.422	17.36
632.837	17.32
633.252	17.28
633.667	17.23
634.082	17.16
634.497	17.09
634.911	17.02
635.326	16.95
635.741	16.88
636.155	16.83
636.57	16.75
636.984	16.66
637.399	16.56
637.813	16.47
638.228	16.38
638.642	16.28
639.056	16.18
639.47	16.09
639.884	16
640.298	15.89
640.712	15.77
641.126	15.66
641.54	15.54
641.954	15.44
642.368	15.33
642.781	15.23
643.195	15.13
643.609	15.03
644.022	14.91
644.436	14.8
644.849	14.69
645.262	14.6
645.676	14.5
646.089	14.41
646.502	14.32
646.915	14.24
647.328	14.16
647.741	14.07
648.154	14.01
648.567	13.95
648.98	13.89
649.393	13.83
649.805	13.77
650.218	13.71
650.631	13.66
651.043	13.61
651.456	13.56
651.868	13.49
652.28	13.44
652.693	13.38
653.105	13.31
653.517	13.25
653.929	13.19
654.341	13.11
654.753	13.02
655.165	12.93
655.577	12.84
655.989	12.75
656.401	12.65
656.813	12.56
657.224	12.45
657.636	12.33
658.047	12.22
658.459	12.1
658.87	11.98
659.282	11.86
659.693	11.74
660.104	11.62
660.515	11.48
660.926	11.35
661.338	11.2
661.749	11.07
662.159	10.96
662.57	10.84
662.981	10.74
663.392	10.63
663.803	10.54
664.213	10.43
664.624	10.34
665.035	10.25
665.445	10.17
665.855	10.1
666.266	10.03
666.676	9.95
667.086	9.87
667.497	9.8
667.907	9.73
668.317	9.67
668.727	9.62
669.137	9.56
669.547	9.52
669.956	9.48
670.366	9.45
670.776	9.41
671.186	9.38
671.595	9.36
672.005	9.33
672.414	9.32
672.824	9.3
673.233	9.29
673.642	9.29
674.052	9.29
674.461	9.29
674.87	9.29
675.279	9.31
675.688	9.32
676.097	9.34
676.506	9.36
676.915	9.39
677.323	9.44
677.732	9.48
678.141	9.53
678.549	9.57
678.958	9.62
679.366	9.7
679.775	9.77
680.183	9.88
680.592	10
681	10.14
681.408	10.27
681.816	10.41
682.224	10.59
682.632	10.79
683.04	11
683.448	11.24
683.856	11.47
684.264	11.74
684.671	12.01
685.079	12.3
685.487	12.61
685.894	12.95
686.302	13.3
686.709	13.67
687.116	14.04
687.524	14.44
687.931	14.85
688.338	15.29
688.745	15.73
689.152	16.17
689.559	16.63
689.966	17.1
690.373	17.56
690.78	18.04
691.187	18.49
691.593	18.95
692	19.41
692.407	19.88
692.813	20.33
693.22	20.76
693.626	21.2
694.032	21.63
694.439	22.04
694.845	22.47
695.251	22.87
695.657	23.27
696.063	23.68
696.469	24.05
696.875	24.41
697.281	24.78
697.687	25.15
698.093	25.5
698.498	25.84
698.904	26.17
699.31	26.48
699.715	26.82
700.12	27.13
700.526	27.41
700.931	27.72
701.337	28
701.742	28.27
702.147	28.53
702.552	28.79
702.957	29.02
703.362	29.26
703.767	29.46
704.172	29.66
704.577	29.86
704.981	30.08
705.386	30.28
705.791	30.48
706.195	30.68
706.6	30.86
707.004	31.03
707.408	31.23
707.813	31.41
708.217	31.59
708.621	31.77
709.025	31.93
709.43	32.09
709.834	32.25
710.237	32.39
710.641	32.53
711.045	32.68
711.449	32.84
711.853	32.99
712.256	33.14
712.66	33.28
713.064	33.42
713.467	33.57
713.87	33.7
714.274	33.82
714.677	33.94
715.08	34.07
715.484	34.19
715.887	34.32
716.29	34.42
716.693	34.51
717.096	34.62
717.499	34.72
717.901	34.82
718.304	34.91
718.707	35.01
719.109	35.12
719.512	35.22
719.915	35.31
720.317	35.38
720.719	35.43
721.122	35.51
721.524	35.6
721.926	35.68
722.328	35.75
722.731	35.81
723.133	35.87
723.535	35.92
723.937	35.98
724.338	36.04
724.74	36.12
725.142	36.28
725.544	36.33
725.945	36.43
726.347	36.45
726.748	36.49
727.15	36.56
727.551	36.63
727.952	36.67
728.354	36.73
728.755	36.77
729.156	36.8
729.557	36.76
729.958	36.79
730.359	36.79
730.76	36.86
731.161	36.91
731.562	36.95
731.962	36.96
732.363	37
732.763	37.02
733.164	37.03
733.564	37.06
733.965	37.08
734.365	37.13
734.766	37.14
735.166	37.16
735.566	37.2
735.966	37.21
736.366	37.24
736.766	37.25
737.166	37.27
737.566	37.31
737.966	37.33
738.365	37.34
738.765	37.36
739.165	37.38
739.564	37.41
739.964	37.4
740.363	37.41
740.763	37.43
741.162	37.45
741.561	37.45
741.96	37.46
742.36	37.48
742.759	37.52
743.158	37.5
743.557	37.49
743.955	37.49
744.354	37.51
744.753	37.52
745.152	37.54
745.55	37.55
745.949	37.57
746.348	37.56
746.746	37.55
747.144	37.54
747.543	37.57
747.941	37.6
748.339	37.62
748.737	37.62
749.136	37.62
749.534	37.6
749.932	37.58
750.33	37.59
750.727	37.61
751.125	37.63
751.523	37.62
751.921	37.61
752.318	37.61
752.716	37.61
753.113	37.63
753.511	37.64
753.908	37.66
754.305	37.68
754.703	37.67
755.1	37.67
755.497	37.64
755.894	37.64
756.291	37.67
756.688	37.64
757.085	37.63
757.482	37.59
757.878	37.58
758.275	37.56
758.672	37.54
759.068	37.55
759.465	37.53
759.861	37.55
760.258	37.55
760.654	37.53
761.05	37.55
761.447	37.56
761.843	37.58
762.239	37.56
762.635	37.58
763.031	37.58
763.427	37.57
763.822	37.59
764.218	37.62
764.614	37.63
765.01	37.61
765.405	37.61
765.801	37.59
766.196	37.62
766.592	37.63
766.987	37.63
767.382	37.63
767.778	37.65
768.173	37.65
768.568	37.64
768.963	37.63
769.358	37.64
769.753	37.64
770.148	37.66
770.542	37.63
770.937	37.64
771.332	37.64
771.726	37.64
772.121	37.64
772.515	37.64
772.91	37.63
773.304	37.65
773.699	37.65
774.093	37.66
774.487	37.65
774.881	37.68
775.275	37.67
775.669	37.67
776.063	37.66
776.457	37.66
776.851	37.63
777.245	37.62
777.638	37.59
778.032	37.6
778.425	37.61
778.819	37.6
779.212	37.59
779.606	37.58
779.999	37.58
780.392	37.6
780.786	37.59
781.179	37.63
781.572	37.65
781.965	37.66
782.358	37.68
782.751	37.66
783.143	37.67
783.536	37.66
783.929	37.66
784.322	37.67
784.714	37.65
785.107	37.67
785.499	37.64
785.891	37.64
786.284	37.66
786.676	37.63
787.068	37.62
787.46	37.62
787.852	37.64
788.245	37.64
788.636	37.65
789.028	37.66
789.42	37.64
789.812	37.65
790.204	37.68
790.595	37.68
790.987	37.68
791.378	37.71
791.77	37.73
792.161	37.73
792.553	37.74
792.944	37.73
793.335	37.73
793.726	37.75
794.117	37.73
794.508	37.68
794.899	37.65
795.29	37.67
795.681	37.64
796.072	37.62
796.463	37.64
796.853	37.63
797.244	37.62
797.634	37.61
798.025	37.62
798.415	37.65
798.806	37.67
799.196	37.69
799.586	37.68
799.976	37.68
800.366	37.68
800.756	37.68
801.146	37.71
801.536	37.73
801.926	37.74
802.316	37.75
802.706	37.76
803.095	37.78
803.485	37.77
803.874	37.78
804.264	37.79
804.653	37.81
805.043	37.78
805.432	37.76
805.821	37.77
806.21	37.78
806.599	37.76
806.988	37.77
807.377	37.74
807.766	37.76
808.155	37.73
808.544	37.76
808.933	37.76
809.321	37.8
809.71	37.81
810.098	37.8
810.487	37.77
810.875	37.79
811.264	37.78
811.652	37.81
812.04	37.81
812.428	37.85
812.816	37.84
813.204	37.83
813.592	37.8
813.98	37.82
814.368	37.82
814.756	37.84
815.144	37.83
815.531	37.83
815.919	37.82
816.306	37.82
816.694	37.83
817.081	37.83
817.469	37.84
817.856	37.83
818.243	37.81
818.63	37.81
819.017	37.8
819.404	37.77
819.791	37.79
820.178	37.8
820.565	37.79
820.952	37.76
821.339	37.75
821.725	37.76
822.112	37.78
822.498	37.8
822.885	37.81
823.271	37.82
823.657	37.82
824.044	37.8
824.43	37.78
824.816	37.79
825.202	37.78
825.588	37.77
825.974	37.76
826.36	37.75
826.746	37.74
827.132	37.73
827.517	37.73
827.903	37.74
828.289	37.76
828.674	37.76
829.06	37.77
829.445	37.77
829.83	37.77
830.216	37.76
830.601	37.76
830.986	37.77
831.371	37.76
831.756	37.78
832.141	37.78
832.526	37.78
832.911	37.8
833.295	37.8
833.68	37.82
834.065	37.83
834.449	37.85
834.834	37.86
835.218	37.87
835.603	37.87
835.987	37.85
836.371	37.84
836.755	37.83
837.139	37.8
837.524	37.79
837.908	37.8
838.291	37.81
838.675	37.8
839.059	37.79
839.443	37.79
839.827	37.78
840.21	37.79
840.594	37.78
840.977	37.78
841.361	37.8
841.744	37.76
842.127	37.75
842.511	37.73
842.894	37.71
843.277	37.71
843.66	37.68
844.043	37.7
844.426	37.71
844.809	37.72
845.191	37.73
845.574	37.73
845.957	37.76
846.339	37.76
846.722	37.76
847.104	37.78
847.487	37.78
847.869	37.8
848.252	37.79
848.634	37.79
849.016	37.78
849.398	37.79
849.78	37.78
850.162	37.77
850.544	37.78
850.926	37.8
851.307	37.78
851.689	37.79
852.071	37.8
852.452	37.8
852.834	37.81
853.215	37.81
853.597	37.81
853.978	37.8
854.359	37.81
854.741	37.8
855.122	37.79
855.503	37.78
855.884	37.75
856.265	37.74
856.646	37.76
857.026	37.76
857.407	37.76
857.788	37.76
858.169	37.78
858.549	37.79
858.93	37.79
859.31	37.81
859.69	37.82
860.071	37.85
860.451	37.87
860.831	37.87
861.211	37.85
861.591	37.85
861.971	37.84
862.351	37.84
862.731	37.84
863.111	37.83
863.491	37.84
863.87	37.83
864.25	37.83
864.629	37.8
865.009	37.79
865.388	37.78
865.768	37.78
866.147	37.79
866.526	37.79
866.905	37.79
867.284	37.82
867.663	37.8
868.042	37.8
868.421	37.81
868.8	37.83
869.179	37.85
869.558	37.85
869.936	37.84
870.315	37.83
870.693	37.84
871.072	37.82
871.45	37.8
871.828	37.83
872.207	37.83
872.585	37.82
872.963	37.81
873.341	37.81
873.719	37.82
874.097	37.82
874.475	37.84
874.853	37.84
875.23	37.86
875.608	37.87
875.986	37.89
876.363	37.89
876.741	37.92
877.118	37.94
877.495	37.93
877.873	37.95
878.25	37.98
878.627	37.97
879.004	37.98
879.381	37.98
879.758	37.96
880.135	37.95
880.512	37.95
880.889	37.94
881.265	37.93
881.642	37.92
882.019	37.91
882.395	37.88
882.772	37.87
883.148	37.83
883.524	37.82
883.901	37.82
884.277	37.81
884.653	37.79
885.029	37.78
885.405	37.78
885.781	37.78
886.157	37.77
886.532	37.78
886.908	37.77
887.284	37.77
887.659	37.75
888.035	37.73
888.411	37.71
888.786	37.71
889.161	37.72
889.537	37.7
889.912	37.71
890.287	37.69
890.662	37.69
891.037	37.69
891.412	37.69
891.787	37.68
892.162	37.67
892.536	37.69
892.911	37.68
893.286	37.67
893.66	37.68
894.035	37.68
894.409	37.68
894.784	37.69
895.158	37.67
895.532	37.69
895.906	37.69
896.281	37.69
896.655	37.66
897.029	37.67
897.402	37.64
897.776	37.64
898.15	37.65
898.524	37.66
898.898	37.64
899.271	37.65
899.645	37.65
900.018	37.68
900.392	37.7
900.765	37.72
901.138	37.73
901.511	37.75
901.884	37.76
902.258	37.74
902.631	37.74
903.003	37.75
903.376	37.76
903.749	37.76
904.122	37.79
904.495	37.8
904.867	37.83
905.24	37.84
905.612	37.85
905.985	37.85
906.357	37.85
906.729	37.86
907.102	37.86
907.474	37.86
907.846	37.89
908.218	37.85
908.59	37.82
908.962	37.8
909.334	37.8
909.705	37.78
910.077	37.78
910.449	37.81
910.82	37.82
911.192	37.81
911.563	37.78
911.935	37.76
912.306	37.75
912.677	37.76
913.048	37.79
913.419	37.78
913.79	37.79
914.161	37.8
914.532	37.81
914.903	37.78
915.274	37.8
915.645	37.81
916.015	37.81
916.386	37.83
916.756	37.83
917.127	37.83
917.497	37.83
917.868	37.85
918.238	37.81
918.608	37.8
918.978	37.82
919.348	37.83
919.718	37.84
920.088	37.84
920.458	37.85
920.828	37.87
921.198	37.86
921.567	37.88
921.937	37.88
922.306	37.9
922.676	37.92
923.045	37.92
923.415	37.9
923.784	37.91
924.153	37.93
924.522	37.93
924.891	37.92
925.26	37.94
925.629	37.93
925.998	37.92
926.367	37.94
926.736	37.93
927.104	37.93
927.473	37.92
927.842	37.89
928.21	37.9
928.578	37.89
928.947	37.9
929.315	37.87
929.683	37.84
930.051	37.85
930.42	37.85
930.788	37.87
931.156	37.86
931.523	37.86
931.891	37.91
932.259	37.88
932.627	37.9
932.994	37.87
933.362	37.88
933.729	37.89
934.097	37.89
934.464	37.91
934.831	37.89
935.199	37.9
935.566	37.95
935.933	37.9
936.3	37.88
936.667	37.88
937.034	37.92
937.401	37.95
937.767	37.97
938.134	37.97
938.501	37.95
938.867	37.96
939.234	37.98
939.6	37.94
939.967	38
940.333	38.01
940.699	38.01
941.065	38
941.431	38
941.798	38.02
942.163	37.98
942.529	37.97
942.895	37.93
943.261	37.91
943.627	37.88
943.992	37.84
944.358	37.87
944.723	37.87
945.089	37.78
945.454	37.78
945.82	37.76
946.185	37.78
946.55	37.74
946.915	37.71
947.28	37.68
947.645	37.7
948.01	37.71
948.375	37.66
948.74	37.65
949.104	37.72
949.469	37.68
949.834	37.65
950.198	37.65
950.562	37.62
950.927	37.66
951.291	37.6
951.655	37.54
952.02	37.47
952.384	37.42
952.748	37.37
953.112	37.37
953.476	37.32
953.839	37.29
954.203	37.21
954.567	37.22
954.931	37.14
955.294	37.17
955.658	37.2
956.021	37.19
956.385	37.21
956.748	37.21
957.111	37.13
957.474	37.13
957.837	37.11
958.2	37.12
958.563	37.08
958.926	37.13
959.289	37.16
959.652	37.13
960.015	37.14
960.377	37.11
960.74	37.14
961.102	37.17
961.465	37.21
961.827	37.26
962.189	37.27
962.552	37.31
962.914	37.26
963.276	37.21
963.638	37.22
964	37.24
964.362	37.28
964.724	37.25
965.085	37.23
965.447	37.15
965.809	37.11
966.17	37.08
966.532	37.04
966.893	37.06
967.255	37.03
967.616	37.01
967.977	37.01
968.338	36.97
968.699	36.95
969.061	36.95
969.421	36.97
969.782	36.97
970.143	37
970.504	37.03
970.865	37.02
971.225	37.03
971.586	37.03
971.946	37.04
972.307	37.08
972.667	37.1
973.027	37.16
973.388	37.21
973.748	37.27
974.108	37.28
974.468	37.23
974.828	37.3
975.188	37.35
975.548	37.33
975.907	37.31
976.267	37.3
976.627	37.33
976.986	37.28
977.346	37.19
977.705	37.15
978.064	37.16
978.424	37.23
978.783	37.19
979.142	37.15
979.501	37.18
979.86	37.24
980.219	37.27
980.578	37.21
980.937	37.23
981.296	37.24
981.654	37.24
982.013	37.24
982.371	37.21
982.73	37.22
983.088	37.25
983.447	37.23
983.805	37.14
984.163	37.11
984.521	37.1
984.879	37.02
985.237	37.05
985.595	37.12
985.953	37.14
986.311	37.16
986.669	37.17
987.026	37.24
987.384	37.31
987.741	37.32
988.099	37.37
988.456	37.45
988.814	37.59
989.171	37.58
989.528	37.57
989.885	37.55
990.242	37.57
990.599	37.58
990.956	37.52
991.313	37.54
991.67	37.56
992.027	37.65
992.383	37.6
992.74	37.71
993.096	37.72
993.453	37.71
993.809	37.67
994.165	37.68
994.522	37.69
994.878	37.71
995.234	37.66
995.59	37.68
995.946	37.62
996.302	37.71
996.658	37.54
997.013	37.55
997.369	37.57
997.725	37.68
998.08	37.66
998.436	37.68
998.791	37.64
999.147	37.66
999.502	37.71
999.857	37.74
1000.212	37.64
1000.567	37.73
1000.922	37.81
1001.277	37.67
1001.632	37.62
1001.987	37.74
1002.342	37.67
1002.696	37.72
1003.051	37.84
1003.406	37.88
1003.76	37.83
1004.114	37.85
1004.469	37.76
1004.823	37.9
1005.177	37.91
1005.531	37.96
1005.885	37.87
1006.239	37.97
1006.593	38.06
1006.947	37.97
1007.301	37.93
1007.655	37.9
1008.008	37.95
1008.362	38.03
1008.715	37.86
1009.069	38.05
1009.422	38.1
1009.776	38.06
1010.129	38.04
1010.482	38.08
1010.835	38.03
1011.188	38.03
1011.541	38.11
1011.894	38.13
1012.247	38.2
1012.6	38.25
1012.952	38.24
1013.305	38.3
1013.657	38.42
1014.01	38.53
1014.362	38.48
1014.715	38.72
1015.067	38.74
1015.419	38.93
1015.771	38.91
1016.123	38.83
1016.475	38.97
1016.827	38.98
1017.179	38.97
1017.531	38.98
1017.883	38.9
1018.234	39.07
1018.586	39
1018.938	39.22
1019.289	39.09
1019.64	39.21
1019.992	39.42
1020.343	39.26
1020.694	39.44
1021.045	39.4
1021.396	39.41
1021.747	39.68
1022.098	39.65
1022.449	39.68
1022.8	39.68
1023.151	39.51
1023.501	39.7
1023.852	39.73
1024.202	39.7
1024.553	39.53
1024.903	39.65
1025.253	39.86
1025.604	39.77
1025.954	39.54
1026.304	39.39
1026.654	39.2
1027.004	39.33
1027.354	39
1027.703	38.89
1028.053	39.32
1028.403	39.22
1028.753	38.92
1029.102	38.9
1029.452	38.78
1029.801	39.13
1030.15	39.15
1030.499	39.14
897.758	1397.44
901.051	1409.4
904.343	1399.9
907.636	1422.83
910.928	1382.61
914.22	1383.55
917.511	1365.54
920.803	1308.46
924.094	1301.89
927.384	1271.33
930.675	1216.29
933.965	1209.84
937.255	1133.24
940.544	1089.93
943.834	1039.02
947.123	1031.56
950.411	968.06
953.7	947.26
956.988	895.48
960.276	859.32
963.563	844.01
966.851	816.16
970.138	808.03
973.424	783.83
976.711	788.36
979.997	748.04
983.283	742.98
986.568	728.47
989.853	705.42
993.138	693.19
996.423	667.51
999.708	649.26
1002.992	640.62
1006.275	612.06
1009.559	606.89
1012.842	584.89
1016.125	568.59
1019.408	558.32
1022.69	550.44
1025.972	540.55
1029.254	527.1
1032.536	517.41
1035.817	505.61
1039.098	498.46
1042.379	488.03
1045.659	482.42
1048.939	469.99
1052.219	461.96
1055.498	455.1
1058.778	444.12
1062.057	432.64
1065.335	427.78
1068.614	423.03
1071.892	418.71
1075.17	405.88
1078.447	398.04
1081.724	395.19
1085.001	392.38
1088.278	382.82
1091.554	375.26
1094.83	375.72
1098.106	373.36
1101.382	370.75
1104.657	367.1
1107.932	361.8
1111.206	363.29
1114.481	354.46
1117.755	350.57
1121.029	347.18
1124.302	347.65
1127.575	340.07
1130.848	336.19
1134.121	332.97
1137.393	330.05
1140.665	322.91
1143.937	320.95
1147.208	319.26
1150.48	318.4
1153.75	314.36
1157.021	310.27
1160.291	310.08
1163.561	307.23
1166.831	306.71
1170.101	303.83
1173.37	304.19
1176.639	305.25
1179.907	301.31
1183.176	297.53
1186.444	297.12
1189.711	296.44
1192.979	295.94
1196.246	293.8
1199.513	294.74
1202.78	293.33
1206.046	293.28
1209.312	289.37
1212.578	289.85
1215.843	292.71
1219.108	291.21
1222.373	297.15
1225.638	299.07
1228.902	302.68
1232.166	303.28
1235.43	305.97
1238.693	309.65
1241.956	312.18
1245.219	317.43
1248.482	317.05
1251.744	317.12
1255.006	318.28
1258.268	309.73
1261.529	307.47
1264.79	305.28
1268.051	303.64
1271.312	300.17
1274.572	295.82
1277.832	292.93
1281.092	287.87
1284.351	285.94
1287.61	285.49
1290.869	281.68
1294.128	280.83
1297.386	280.46
1300.644	276.86
1303.902	277.91
1307.159	276.31
1310.416	277
1313.673	276.32
1316.93	279.46
1320.186	279.74
1323.442	280.76
1326.697	285.03
1329.953	286.06
1333.208	287.22
1336.463	290.99
1339.717	291.25
1342.972	294.47
1346.226	297.03
1349.479	297.43
1352.733	298.94
1355.986	300.3
1359.238	300.37
1362.491	301.88
1365.743	304.67
1368.995	304.63
1372.247	304.22
1375.498	303.64
1378.749	307.11
1382	303.18
1385.251	304.86
1388.501	303.25
1391.751	304.71
1395	303.65
1398.25	300.96
1401.499	299.3
1404.748	299.04
1407.996	297.19
1411.244	296.39
1414.492	293.84
1417.74	292.3
1420.987	287.61
1424.234	287.29
1427.481	283.11
1430.728	282.71
1433.974	280.15
1437.22	278.09
1440.465	277.81
1443.711	275.15
1446.956	273.12
1450.201	270.27
1453.445	267.32
1456.689	266.12
1459.933	261.29
1463.177	259.46
1466.42	255.03
1469.663	252.22
1472.906	250.28
1476.148	243.95
1479.391	240.91
1482.633	238.9
1485.874	234.55
1489.115	233.07
1492.356	230.11
1495.597	229.88
1498.838	226.31
1502.078	225.08
1505.318	224.05
1508.557	223.79
1511.797	222.74
1515.036	221.74
1518.274	221.03
1521.513	218.99
1524.751	218.32
1527.989	218.19
1531.227	216.65
1534.464	216.97
1537.701	215.13
1540.938	214.49
1544.174	211.99
1547.41	211.9
1550.646	210.55
1553.882	210.35
1557.117	208.12
1560.352	206.76
1563.587	206.16
1566.821	204.83
1570.055	202.59
1573.289	201.17
1576.523	200.75
1579.756	199.33
1582.989	198.15
1586.222	198
1589.454	196.06
1592.686	197.79
1595.918	196.87
1599.15	195.64
1602.381	196.24
1605.612	196.13
1608.843	197.25
1612.073	196.71
1615.303	197.66
1618.533	197.38
1621.762	197.06
1624.992	198.41
1628.221	197.85
1631.449	198.21
1634.678	197.94
1637.906	198.38
1641.134	198.73
1644.361	197.94
1647.588	198.78
1650.815	197.76
1654.042	196.96
1657.269	198.06
1660.495	197.64
1663.72	197.06
1666.946	197.66
1670.171	197.97
1673.396	198.38
1676.621	198.46
1679.845	198.77
1683.069	198.7
1686.293	200.34
1689.517	201.6
1692.74	201.22
1695.963	201.87
1699.185	203.55
1702.408	203.5
1705.63	204.94
1708.852	204.77
1712.073	205.28
1715.294	205.77
1718.515	207.26
1721.736	206.68
1724.956	207.58
1728.176	207.72
1731.396	209.17
1734.616	208.88
1737.835	210.07
1741.054	207.82
1744.272	208.77
1747.491	210.36
1750.709	210.8
1753.927	210.6
1757.144	210.3
1760.361	210.88
1763.578	211.28
1766.795	210.97
1770.011	212.46
1773.227	212.29
1776.443	215.56
1779.658	216.38
1782.874	216
1786.089	216.93
1789.303	217.51
1792.518	220.16
1795.732	220.23
1798.945	222.41
1802.159	222.67
1805.372	223.22
1808.585	226.82
1811.797	227.34
1815.01	227.28
1818.222	228.88
1821.434	230.93
1824.645	231.95
1827.856	235.33
1831.067	237.42
1834.278	236.82
1837.488	238.94
1840.698	240.32
1843.908	238.32
1847.117	239.53
1850.326	241.6
1853.535	241.15
1856.744	244.46
1859.952	244.42
1863.16	243.5
1866.368	241.27
1869.575	244.44
1872.782	240.7
1875.989	240.44
1879.196	239.67
1882.402	238.84
1885.608	239.84
1888.814	240.52
1892.019	240.2
1895.224	239.86
1898.429	238.55
1901.634	241.06
1904.838	240.74
1908.042	243.96
1911.246	245.12
1914.449	247.04
1917.652	246.9
1920.855	247.05
1924.058	247.48
1927.26	246.04
1930.462	247.12
1933.664	249.78
1936.865	247.17
1940.066	247.64
1943.267	245.71
1946.467	245.07
1949.668	246.86
1952.868	249.9
1956.067	249.27
1959.267	249.04
1962.466	250.13
1965.665	248.65
1968.863	249.34
1972.061	254.17
1975.259	255.57
1978.457	257.58
1981.654	260.13
1984.852	260.35
1988.048	259.51
1991.245	262.07
1994.441	264.76
1997.637	266.51
2000.833	272.24
2004.028	275.58
2007.223	274.8
2010.418	277.64
2013.613	283.12
2016.807	285.63
2020.001	287.77
2023.194	292.21
2026.388	298.35
2029.581	305.4
2032.774	308.24
2035.966	313.38
2039.158	314.01
2042.35	321.28
2045.542	324.54
2048.733	328.77
2051.924	333.94
2055.115	339.89
2058.306	340.54
2061.496	344.07
2064.686	343.49
2067.875	350.13
2071.065	350.99
2074.254	349.36
2077.442	353.65
2080.631	354.23
2083.819	357.76
2087.007	357.24
2090.195	361.6
2093.382	364.95
2096.569	362.51
2099.756	368.97
2102.942	369.04
2106.128	372.42
2109.314	381.37
2112.5	379.91
2115.685	388.38
2118.87	389.34
2122.055	397.15
2125.239	399.75
2128.424	403.15
2131.608	407.59
2134.791	412.12
2137.974	413.64
2141.157	415.65
2144.34	416.34
2147.523	422.56
2150.705	419.24
2153.887	423.73
2157.068	424.55
2160.25	420.09
2163.431	422.99
2166.611	426.18
2169.792	435.26
2172.972	439.38
2176.152	442.17
2179.331	448.35
2182.511	455.8
2185.69	460.73
2188.868	470.32
2192.047	470.76
2195.225	485.2
2198.403	498.69
2201.58	507.87
2204.758	516.25
2207.935	528.26
2211.111	536.73
2214.288	542.7
2217.464	543.82
2220.64	554.03
2223.815	559.08
2226.991	582.39
2230.166	583.54
2233.34	592.87
2236.515	603.22
2239.689	602.77
2242.863	605.64
2246.036	625.45
2249.209	619.77
2252.382	631.91
2255.555	648.99
2258.727	652.32
2261.9	655.73
2265.071	662.27
2268.243	673.02
2271.414	680.69
2274.585	696.74
2277.756	705.55
2280.926	708.63
2284.096	726.96
2287.266	742.51
2290.436	748.61
2293.605	766.85
2296.774	790.45
2299.942	817.33
2303.111	819.45
2306.279	839.69
2309.447	851.78
2312.614	871.47
2315.781	894.76
2318.948	936.65
2322.115	923.13
2325.281	972.61
2328.447	949.94
2331.613	991.98
2334.779	978.36
2337.944	1022.13
2341.109	1030.72
2344.274	1055.95
2347.438	1096.27
2350.602	1096.54
2353.766	1130.49
2356.929	1144.81
2360.092	1137.75
2363.255	1221.6
2366.418	1213.15
2369.58	1236.97
2372.742	1317.45
2375.904	1350.06
2379.066	1343.14
2382.227	1315.25
2385.388	1429.1
2388.548	1426
2391.709	1445.96
2394.869	1612.41
2398.029	1544.38
2401.188	1590.45
2404.347	1579.33
2407.506	1549.08
2410.665	1595.51
2413.823	1690.95
2416.981	1789.78
2420.139	1728.82
2423.296	1712.41
2426.453	1788
2429.61	1718.96
2432.767	1797.66
2435.923	1775.52
2439.079	1950.28
2442.235	1977.21
2445.391	1952.78
2448.546	1940.64
2451.701	1888.52
2454.855	1887.15
2458.009	1998.21
2461.163	2084.34
2464.317	2156.91
2467.471	2212.83
2470.624	2219.36
2473.777	2153
2476.929	2096.27
2480.082	2045.56
2483.234	2020.68
2486.385	2123.47
2489.537	2134.04
2492.688	2214.77
2495.839	2148.06
2498.989	2106.27
2502.14	2117.77
2505.29	2139.19
2508.439	2175.59
2511.589	2171.67
2514.738	2358.06
2517.887	2310.59
2521.035	2439.95
2524.183	2460.91
2527.331	2479.37
2530.479	2469.83
2533.627	2485.25
