Data from N_2_DIV_IL_4N_Splice17_13-37-44-170.txt Node
Date: Sat Mar 07 13:37:44 EST 2020
User: sa697716
Spectrometer: NQ5500242
Trigger mode: 0
Integration Time (sec): 1.450000E-1
Scans to average: 20
Nonlinearity correction enabled: false
Boxcar width: 5
Storing dark spectrum: false
XAxis mode: Wavelengths
Number of Pixels in Spectrum: 512
>>>>>Begin Spectral Data<<<<<
187.83	249.55
188.298	257.68
188.766	220.38
189.233	181.16
189.701	191.7
190.169	208.67
190.636	206.07
191.104	230.17
191.571	-138.06
192.039	-197.45
192.506	-556.77
192.974	118.25
193.441	125.31
193.908	43.21
194.375	-25.89
194.842	-37.29
195.31	-20.42
195.777	-215.2
196.244	65.12
196.711	86.13
197.177	88.14
197.644	88.61
198.111	88.85
198.578	89.28
199.045	90.09
199.511	90.39
199.978	90.18
200.445	90.52
200.911	90.3
201.378	90.54
201.844	90.1
202.31	89.87
202.777	89.46
203.243	89.13
203.709	88.54
204.176	87.23
204.642	86.68
205.108	86.45
205.574	85.52
206.04	84.98
206.506	84.16
206.972	83.34
207.438	82.52
207.903	81.34
208.369	79.62
208.835	77.92
209.301	76.53
209.766	74.18
210.232	71.57
210.697	69.07
211.163	66.83
211.628	64.88
212.094	62.82
212.559	61.21
213.024	59.85
213.49	58.54
213.955	57.01
214.42	55.18
214.885	53.44
215.35	51.25
215.815	48.44
216.28	44.82
216.745	40.6
217.21	36.44
217.675	32.38
218.14	28.78
218.604	25.73
219.069	23.19
219.534	21.14
219.998	19.37
220.463	17.99
220.927	16.76
221.392	15.79
221.856	15.01
222.32	14.36
222.785	13.81
223.249	13.32
223.713	12.9
224.177	12.54
224.642	12.17
225.106	11.82
225.57	11.46
226.034	11.18
226.497	10.92
226.961	10.63
227.425	10.37
227.889	10.12
228.353	9.9
228.816	9.68
229.28	9.44
229.744	9.25
230.207	9.08
230.671	8.92
231.134	8.74
231.597	8.6
232.061	8.45
232.524	8.31
232.987	8.19
233.45	8.07
233.914	7.94
234.377	7.83
234.84	7.72
235.303	7.63
235.766	7.53
236.229	7.45
236.691	7.34
237.154	7.27
237.617	7.19
238.08	7.11
238.542	7.03
239.005	6.97
239.468	6.9
239.93	6.83
240.393	6.76
240.855	6.66
241.317	6.58
241.78	6.52
242.242	6.43
242.704	6.37
243.166	6.31
243.629	6.25
244.091	6.17
244.553	6.1
245.015	6.04
245.477	5.97
245.939	5.92
246.4	5.86
246.862	5.8
247.324	5.74
247.786	5.68
248.247	5.61
248.709	5.55
249.17	5.49
249.632	5.43
250.093	5.39
250.555	5.34
251.016	5.29
251.477	5.24
251.939	5.21
252.4	5.16
252.861	5.11
253.322	5.07
253.783	5.03
254.244	4.99
254.705	4.95
255.166	4.9
255.627	4.86
256.088	4.83
256.549	4.79
257.009	4.73
257.47	4.69
257.931	4.65
258.391	4.59
258.852	4.54
259.312	4.5
259.773	4.45
260.233	4.41
260.694	4.37
261.154	4.32
261.614	4.28
262.074	4.23
262.534	4.19
262.994	4.15
263.455	4.12
263.915	4.09
264.374	4.05
264.834	4.02
265.294	3.98
265.754	3.96
266.214	3.92
266.673	3.89
267.133	3.88
267.593	3.86
268.052	3.84
268.512	3.82
268.971	3.81
269.431	3.79
269.89	3.77
270.349	3.77
270.809	3.75
271.268	3.74
271.727	3.72
272.186	3.71
272.645	3.7
273.104	3.69
273.563	3.68
274.022	3.66
274.481	3.66
274.94	3.65
275.399	3.64
275.857	3.63
276.316	3.62
276.775	3.61
277.233	3.6
277.692	3.59
278.15	3.59
278.609	3.59
279.067	3.58
279.525	3.58
279.984	3.58
280.442	3.58
280.9	3.58
281.358	3.59
281.816	3.6
282.274	3.6
282.732	3.6
283.19	3.59
283.648	3.58
284.106	3.58
284.564	3.57
285.021	3.58
285.479	3.58
285.937	3.57
286.394	3.57
286.852	3.55
287.309	3.55
287.767	3.53
288.224	3.53
288.682	3.51
289.139	3.5
289.596	3.48
290.053	3.45
290.511	3.42
290.968	3.4
291.425	3.37
291.882	3.36
292.339	3.34
292.796	3.33
293.252	3.31
293.709	3.29
294.166	3.28
294.623	3.27
295.079	3.26
295.536	3.26
295.992	3.25
296.449	3.24
296.905	3.24
297.362	3.23
297.818	3.22
298.274	3.22
298.731	3.21
299.187	3.19
299.643	3.18
300.099	3.18
300.555	3.18
301.011	3.17
301.467	3.17
301.923	3.16
302.379	3.16
302.835	3.17
303.291	3.17
303.746	3.17
304.202	3.18
304.658	3.18
305.113	3.18
305.569	3.18
306.024	3.19
306.479	3.18
306.935	3.18
307.39	3.19
307.845	3.19
308.301	3.19
308.756	3.2
309.211	3.21
309.666	3.22
310.121	3.23
310.576	3.24
311.031	3.24
311.486	3.25
311.94	3.26
312.395	3.26
312.85	3.27
313.305	3.27
313.759	3.27
314.214	3.28
314.668	3.27
315.123	3.27
315.577	3.27
316.032	3.26
316.486	3.25
316.94	3.25
317.394	3.23
317.849	3.22
318.303	3.2
318.757	3.18
319.211	3.16
319.665	3.14
320.119	3.13
320.572	3.11
321.026	3.1
321.48	3.09
321.934	3.08
322.387	3.07
322.841	3.07
323.295	3.07
323.748	3.08
324.202	3.07
324.655	3.08
325.108	3.09
325.562	3.1
326.015	3.11
326.468	3.11
326.921	3.12
327.374	3.12
327.827	3.12
328.28	3.12
328.733	3.12
329.186	3.12
329.639	3.13
330.092	3.13
330.545	3.13
330.997	3.13
331.45	3.14
331.903	3.16
332.355	3.17
332.808	3.18
333.26	3.18
333.713	3.18
334.165	3.19
334.617	3.2
335.069	3.2
335.522	3.21
335.974	3.21
336.426	3.21
336.878	3.2
337.33	3.2
337.782	3.19
338.234	3.21
338.686	3.21
339.137	3.21
339.589	3.19
340.041	3.19
340.493	3.17
340.944	3.16
341.396	3.15
341.847	3.14
342.299	3.12
342.75	3.1
343.201	3.08
343.653	3.07
344.104	3.04
344.555	3.03
345.006	3.02
345.457	3.01
345.908	3
346.359	3
346.81	2.99
347.261	2.99
347.712	2.99
348.163	2.99
348.613	2.99
349.064	2.99
349.515	2.99
349.965	3
350.416	2.99
350.866	2.99
351.317	2.98
351.767	2.98
352.217	2.99
352.668	2.99
353.118	2.99
353.568	2.99
354.018	2.99
354.468	3
354.918	3
355.368	3.01
355.818	3.01
356.268	3.01
356.718	3.02
357.168	3.02
357.617	3.01
358.067	3.01
358.517	3.02
358.966	3.02
359.416	3.02
359.865	3.02
360.315	3.03
360.764	3.04
361.213	3.04
361.663	3.03
362.112	3.03
362.561	3.03
363.01	3.03
363.459	3.02
363.908	3.02
364.357	3.02
364.806	3.01
365.255	3
365.703	3.02
366.152	3.03
366.601	3.04
367.05	3.04
367.498	3.04
367.947	3.04
368.395	3.05
368.844	3.06
369.292	3.05
369.74	3.05
370.189	3.05
370.637	3.04
371.085	3.02
371.533	3.01
371.981	3.01
372.429	3.01
372.877	3.01
373.325	3.01
373.773	2.99
374.221	2.99
374.669	2.99
375.116	2.98
375.564	2.98
376.012	2.97
376.459	2.98
376.907	2.98
377.354	2.97
377.801	2.97
378.249	2.98
378.696	2.99
379.143	2.97
379.591	2.97
380.038	2.98
380.485	2.99
380.932	2.99
381.379	2.99
381.826	2.99
382.273	2.98
382.72	2.97
383.166	2.96
383.613	2.96
384.06	2.96
384.506	2.95
384.953	2.95
385.4	2.94
385.846	2.95
386.292	2.95
386.739	2.94
387.185	2.94
387.631	2.95
388.078	2.94
388.524	2.94
388.97	2.95
389.416	2.95
389.862	2.96
390.308	2.97
390.754	2.97
391.2	2.98
391.645	2.99
392.091	3.01
392.537	3.03
392.983	3.04
393.428	3.05
393.874	3.06
394.319	3.08
394.765	3.09
395.21	3.09
395.655	3.11
396.101	3.12
396.546	3.14
396.991	3.15
397.436	3.16
397.881	3.19
398.326	3.22
398.771	3.25
399.216	3.27
399.661	3.29
400.106	3.31
400.551	3.32
400.995	3.33
401.44	3.35
401.885	3.36
402.329	3.38
402.774	3.39
403.218	3.43
403.663	3.44
404.107	3.45
404.551	3.47
404.995	3.48
405.44	3.51
405.884	3.53
406.328	3.56
406.772	3.58
407.216	3.61
407.66	3.63
408.104	3.62
408.547	3.63
408.991	3.66
409.435	3.68
409.879	3.71
410.322	3.75
410.766	3.78
411.209	3.81
411.653	3.85
412.096	3.88
412.54	3.92
412.983	3.95
413.426	4.01
413.869	4.03
414.312	4.09
414.756	4.13
415.199	4.14
415.642	4.17
416.085	4.18
416.527	4.19
416.97	4.2
417.413	4.21
417.856	4.22
418.298	4.23
418.741	4.24
419.184	4.24
419.626	4.25
420.069	4.28
420.511	4.3
420.953	4.32
421.396	4.35
421.838	4.37
422.28	4.4
422.722	4.43
423.164	4.45
423.606	4.46
424.048	4.47
424.49	4.48
424.932	4.48
425.374	4.46
425.816	4.44
426.258	4.44
426.699	4.44
427.141	4.43
427.582	4.43
428.024	4.45
428.465	4.47
428.907	4.47
429.348	4.46
429.789	4.48
430.231	4.52
430.672	4.56
431.113	4.59
431.554	4.62
431.995	4.64
432.436	4.65
432.877	4.68
433.318	4.71
433.759	4.75
434.2	4.8
434.64	4.84
435.081	4.85
435.522	4.88
435.962	4.9
436.403	4.94
436.843	4.97
437.284	4.97
437.724	4.99
438.164	4.98
438.604	4.99
439.045	4.99
439.485	5.01
439.925	5.01
440.365	5.02
440.805	5.04
441.245	5.06
441.685	5.07
442.125	5.1
442.564	5.11
443.004	5.14
443.444	5.15
443.883	5.18
444.323	5.2
444.762	5.23
445.202	5.26
445.641	5.3
446.081	5.33
446.52	5.34
446.959	5.39
447.398	5.44
447.837	5.47
448.276	5.52
448.716	5.54
449.154	5.56
449.593	5.59
450.032	5.61
450.471	5.6
450.91	5.59
451.349	5.62
451.787	5.58
452.226	5.56
452.664	5.56
453.103	5.54
453.541	5.54
453.98	5.54
454.418	5.52
454.856	5.52
455.295	5.52
455.733	5.49
456.171	5.47
456.609	5.49
457.047	5.47
457.485	5.46
457.923	5.45
458.361	5.44
458.798	5.44
459.236	5.42
459.674	5.4
460.111	5.4
460.549	5.43
460.987	5.44
461.424	5.44
461.862	5.45
462.299	5.45
462.736	5.45
463.173	5.46
463.611	5.46
464.048	5.49
464.485	5.51
464.922	5.51
465.359	5.52
465.796	5.55
466.233	5.57
466.67	5.58
467.106	5.6
467.543	5.6
467.98	5.61
468.416	5.6
468.853	5.6
469.29	5.59
469.726	5.59
470.162	5.58
470.599	5.55
471.035	5.53
471.471	5.53
471.907	5.51
472.344	5.51
472.78	5.51
473.216	5.51
473.652	5.51
474.088	5.5
474.523	5.5
474.959	5.49
475.395	5.48
475.831	5.47
476.266	5.46
476.702	5.47
477.138	5.46
477.573	5.45
478.008	5.45
478.444	5.44
478.879	5.43
479.314	5.42
479.75	5.41
480.185	5.4
480.62	5.4
481.055	5.39
481.49	5.38
481.925	5.38
482.36	5.38
482.795	5.37
483.229	5.37
483.664	5.37
484.099	5.37
484.534	5.38
484.968	5.39
485.403	5.4
485.837	5.41
486.271	5.42
486.706	5.44
487.14	5.45
487.574	5.48
488.009	5.5
488.443	5.52
488.877	5.55
489.311	5.59
489.745	5.61
490.179	5.66
490.613	5.71
491.046	5.75
491.48	5.79
491.914	5.84
492.348	5.89
492.781	5.94
493.215	6
493.648	6.06
494.082	6.12
494.515	6.19
494.948	6.25
495.382	6.31
495.815	6.38
496.248	6.46
496.681	6.54
497.114	6.63
497.547	6.73
497.98	6.82
498.413	6.93
498.846	7.03
499.279	7.14
499.711	7.26
500.144	7.38
500.577	7.51
501.009	7.64
501.442	7.78
501.874	7.93
502.306	8.07
502.739	8.24
503.171	8.41
503.603	8.58
504.036	8.76
504.468	8.94
504.9	9.11
505.332	9.31
505.764	9.51
506.196	9.71
506.627	9.92
507.059	10.14
507.491	10.33
507.923	10.55
508.354	10.79
508.786	11.03
509.217	11.28
509.649	11.54
510.08	11.8
510.512	12.07
510.943	12.34
511.374	12.61
511.805	12.88
512.237	13.17
512.668	13.48
513.099	13.77
513.53	14.06
513.961	14.37
514.391	14.68
514.822	15
515.253	15.3
515.684	15.6
516.114	15.94
516.545	16.26
516.975	16.58
517.406	16.89
517.836	17.2
518.267	17.54
518.697	17.84
519.127	18.13
519.558	18.42
519.988	18.73
520.418	19.03
520.848	19.32
521.278	19.62
521.708	20.11
522.138	20.4
522.567	20.68
522.997	20.94
523.427	21.19
523.857	21.46
524.286	21.71
524.716	21.96
525.145	22.21
525.575	22.46
526.004	22.68
526.433	22.69
526.863	22.9
527.292	23.11
527.721	23.29
528.15	23.5
528.579	23.68
529.008	23.86
529.437	24.01
529.866	24.16
530.295	24.31
530.724	24.46
531.152	24.61
531.581	24.75
532.01	24.87
532.438	25.01
532.867	25.11
533.295	25.21
533.723	25.32
534.152	25.44
534.58	25.54
535.008	25.61
535.436	25.7
535.865	25.76
536.293	25.82
536.721	25.89
537.149	25.96
537.576	26.03
538.004	26.11
538.432	26.16
538.86	26.2
539.287	26.24
539.715	26.31
540.143	26.33
540.57	26.39
540.998	26.43
541.425	26.47
541.852	26.51
542.28	26.53
542.707	26.57
543.134	26.61
543.561	26.64
543.988	26.68
544.415	26.7
544.842	26.74
545.269	26.78
545.696	26.82
546.123	26.84
546.549	26.87
546.976	26.91
547.403	26.92
547.829	26.94
548.256	26.96
548.682	26.99
549.108	27.03
549.535	27.06
549.961	27.07
550.387	27.09
550.813	27.12
551.24	27.13
551.666	27.12
552.092	27.12
552.518	27.13
552.943	27.11
553.369	27.09
553.795	27.06
554.221	27.04
554.646	27.01
555.072	26.98
555.498	26.92
555.923	26.87
556.349	26.83
556.774	26.78
557.199	26.72
557.625	26.65
558.05	26.58
558.475	26.53
558.9	26.46
559.325	26.4
559.75	26.33
560.175	26.26
560.6	26.18
561.025	26.1
561.449	26.01
561.874	25.92
562.299	25.84
562.723	25.76
563.148	25.63
563.572	25.49
563.997	25.36
564.421	25.22
564.846	25.09
565.27	24.95
565.694	24.82
566.118	24.68
566.542	24.55
566.966	24.39
567.39	24.24
567.814	24.1
568.238	23.96
568.662	23.82
569.086	23.68
569.509	23.56
569.933	23.42
570.357	23.28
570.78	23.15
571.204	23
571.627	22.88
572.05	22.75
572.474	22.64
572.897	22.53
573.32	22.4
573.743	22.27
574.166	22.14
574.589	22.01
575.012	21.89
575.435	21.77
575.858	21.66
576.281	21.55
576.704	21.43
577.126	21.32
577.549	21.21
577.972	21.11
578.394	21.01
578.817	20.92
579.239	20.83
579.661	20.75
580.084	20.66
580.506	20.56
580.928	20.47
581.35	20.4
581.772	20.3
582.194	20.22
582.616	20.14
583.038	20.08
583.46	20
583.882	19.92
584.303	19.84
584.725	19.78
585.147	19.73
585.568	19.67
585.99	19.61
586.411	19.56
586.833	19.5
587.254	19.45
587.675	19.39
588.096	19.33
588.518	19.28
588.939	19.23
589.36	19.18
589.781	19.12
590.202	19.08
590.623	19.03
591.043	18.96
591.464	18.93
591.885	18.87
592.305	18.83
592.726	18.78
593.147	18.74
593.567	18.7
593.987	18.66
594.408	18.62
594.828	18.57
595.248	18.53
595.669	18.52
596.089	18.48
596.509	18.46
596.929	18.42
597.349	18.38
597.769	18.35
598.189	18.32
598.608	18.28
599.028	18.26
599.448	18.22
599.867	18.17
600.287	18.11
600.706	18.07
601.126	18.02
601.545	17.99
601.965	17.95
602.384	17.89
602.803	17.83
603.222	17.78
603.641	17.72
604.061	17.66
604.48	17.6
604.898	17.52
605.317	17.45
605.736	17.38
606.155	17.31
606.574	17.22
606.992	17.15
607.411	17.07
607.829	16.96
608.248	16.86
608.666	16.77
609.085	16.7
609.503	16.61
609.921	16.52
610.339	16.42
610.758	16.33
611.176	16.23
611.594	16.16
612.012	16.08
612.43	16.01
612.847	15.93
613.265	15.85
613.683	15.76
614.101	15.68
614.518	15.6
614.936	15.52
615.353	15.43
615.771	15.37
616.188	15.29
616.606	15.21
617.023	15.14
617.44	15.07
617.857	15.02
618.274	14.96
618.691	14.91
619.108	14.86
619.525	14.81
619.942	14.78
620.359	14.72
620.776	14.67
621.192	14.64
621.609	14.6
622.026	14.57
622.442	14.54
622.859	14.51
623.275	14.48
623.691	14.45
624.108	14.43
624.524	14.4
624.94	14.38
625.356	14.38
625.772	14.36
626.188	14.34
626.604	14.33
627.02	14.31
627.436	14.3
627.852	14.29
628.268	14.28
628.683	14.26
629.099	14.25
629.514	14.23
629.93	14.21
630.345	14.2
630.761	14.17
631.176	14.14
631.591	14.11
632.007	14.07
632.422	14.01
632.837	13.96
633.252	13.91
633.667	13.85
634.082	13.77
634.497	13.71
634.911	13.64
635.326	13.56
635.741	13.48
636.155	13.37
636.57	13.29
636.984	13.19
637.399	13.08
637.813	12.98
638.228	12.87
638.642	12.75
639.056	12.62
639.47	12.5
639.884	12.37
640.298	12.24
640.712	12.11
641.126	11.98
641.54	11.83
641.954	11.7
642.368	11.57
642.781	11.45
643.195	11.33
643.609	11.21
644.022	11.08
644.436	10.96
644.849	10.85
645.262	10.73
645.676	10.62
646.089	10.52
646.502	10.42
646.915	10.33
647.328	10.24
647.741	10.16
648.154	10.07
648.567	10.01
648.98	9.94
649.393	9.88
649.805	9.82
650.218	9.77
650.631	9.71
651.043	9.65
651.456	9.58
651.868	9.52
652.28	9.46
652.693	9.41
653.105	9.35
653.517	9.28
653.929	9.21
654.341	9.14
654.753	9.05
655.165	8.98
655.577	8.89
655.989	8.81
656.401	8.7
656.813	8.6
657.224	8.49
657.636	8.37
658.047	8.26
658.459	8.14
658.87	8.01
659.282	7.88
659.693	7.76
660.104	7.63
660.515	7.5
660.926	7.39
661.338	7.26
661.749	7.14
662.159	7.03
662.57	6.92
662.981	6.81
663.392	6.71
663.803	6.62
664.213	6.51
664.624	6.42
665.035	6.34
665.445	6.26
665.855	6.18
666.266	6.12
666.676	6.06
667.086	5.98
667.497	5.92
667.907	5.87
668.317	5.82
668.727	5.77
669.137	5.73
669.547	5.7
669.956	5.65
670.366	5.63
670.776	5.59
671.186	5.57
671.595	5.55
672.005	5.53
672.414	5.52
672.824	5.51
673.233	5.51
673.642	5.5
674.052	5.51
674.461	5.52
674.87	5.52
675.279	5.54
675.688	5.55
676.097	5.57
676.506	5.59
676.915	5.62
677.323	5.65
677.732	5.68
678.141	5.72
678.549	5.76
678.958	5.81
679.366	5.87
679.775	5.93
680.183	6.02
680.592	6.11
681	6.22
681.408	6.34
681.816	6.47
682.224	6.62
682.632	6.79
683.04	6.97
683.448	7.17
683.856	7.39
684.264	7.63
684.671	7.89
685.079	8.18
685.487	8.5
685.894	8.84
686.302	9.21
686.709	9.59
687.116	10
687.524	10.44
687.931	10.9
688.338	11.38
688.745	11.89
689.152	12.4
689.559	12.95
689.966	13.49
690.373	14.05
690.78	14.62
691.187	15.19
691.593	15.78
692	16.38
692.407	16.98
692.813	17.6
693.22	18.19
693.626	18.81
694.032	19.41
694.439	20.02
694.845	20.64
695.251	21.24
695.657	21.84
696.063	22.42
696.469	23.01
696.875	23.59
697.281	24.15
697.687	24.71
698.093	25.24
698.498	25.77
698.904	26.28
699.31	26.77
699.715	27.29
700.12	27.77
700.526	28.25
700.931	28.72
701.337	29.18
701.742	29.62
702.147	30.05
702.552	30.48
702.957	30.87
703.362	31.29
703.767	31.68
704.172	32.04
704.577	32.41
704.981	32.77
705.386	33.13
705.791	33.45
706.195	33.8
706.6	34.15
707.004	34.47
707.408	34.81
707.813	35.13
708.217	35.42
708.621	35.74
709.025	36.04
709.43	36.32
709.834	36.6
710.237	36.88
710.641	37.12
711.045	37.37
711.449	37.64
711.853	37.91
712.256	38.15
712.66	38.4
713.064	38.63
713.467	38.85
713.87	39.09
714.274	39.29
714.677	39.53
715.08	39.75
715.484	39.97
715.887	40.19
716.29	40.37
716.693	40.58
717.096	40.75
717.499	40.96
717.901	41.16
718.304	41.35
718.707	41.55
719.109	41.71
719.512	41.88
719.915	42.06
720.317	42.19
720.719	42.35
721.122	42.52
721.524	42.67
721.926	42.83
722.328	42.97
722.731	43.11
723.133	43.24
723.535	43.37
723.937	43.51
724.338	43.64
724.74	43.77
725.142	44.02
725.544	44.1
725.945	44.25
726.347	44.31
726.748	44.41
727.15	44.48
727.551	44.58
727.952	44.66
728.354	44.73
728.755	44.79
729.156	44.87
729.557	44.83
729.958	44.91
730.359	44.95
730.76	45.04
731.161	45.06
731.562	45.15
731.962	45.17
732.363	45.24
732.763	45.31
733.164	45.34
733.564	45.4
733.965	45.43
734.365	45.48
734.766	45.52
735.166	45.57
735.566	45.64
735.966	45.71
736.366	45.78
736.766	45.78
737.166	45.84
737.566	45.87
737.966	45.89
738.365	45.93
738.765	45.97
739.165	46.02
739.564	46.05
739.964	46.06
740.363	46.07
740.763	46.1
741.162	46.14
741.561	46.13
741.96	46.15
742.36	46.17
742.759	46.18
743.158	46.22
743.557	46.22
743.955	46.25
744.354	46.28
744.753	46.31
745.152	46.33
745.55	46.36
745.949	46.39
746.348	46.45
746.746	46.46
747.144	46.5
747.543	46.5
747.941	46.51
748.339	46.49
748.737	46.5
749.136	46.51
749.534	46.49
749.932	46.48
750.33	46.49
750.727	46.47
751.125	46.46
751.523	46.43
751.921	46.43
752.318	46.44
752.716	46.46
753.113	46.47
753.511	46.47
753.908	46.47
754.305	46.5
754.703	46.5
755.1	46.53
755.497	46.54
755.894	46.54
756.291	46.55
756.688	46.53
757.085	46.53
757.482	46.53
757.878	46.55
758.275	46.57
758.672	46.55
759.068	46.57
759.465	46.55
759.861	46.56
760.258	46.57
760.654	46.59
761.05	46.63
761.447	46.66
761.843	46.65
762.239	46.66
762.635	46.64
763.031	46.65
763.427	46.63
763.822	46.66
764.218	46.69
764.614	46.68
765.01	46.66
765.405	46.65
765.801	46.63
766.196	46.63
766.592	46.61
766.987	46.64
767.382	46.63
767.778	46.66
768.173	46.65
768.568	46.64
768.963	46.65
769.358	46.65
769.753	46.67
770.148	46.7
770.542	46.73
770.937	46.74
771.332	46.74
771.726	46.75
772.121	46.75
772.515	46.74
772.91	46.72
773.304	46.72
773.699	46.75
774.093	46.72
774.487	46.71
774.881	46.72
775.275	46.7
775.669	46.67
776.063	46.65
776.457	46.65
776.851	46.67
777.245	46.66
777.638	46.64
778.032	46.65
778.425	46.68
778.819	46.68
779.212	46.69
779.606	46.71
779.999	46.75
780.392	46.79
780.786	46.77
781.179	46.79
781.572	46.84
781.965	46.88
782.358	46.87
782.751	46.87
783.143	46.85
783.536	46.85
783.929	46.87
784.322	46.86
784.714	46.86
785.107	46.88
785.499	46.88
785.891	46.86
786.284	46.87
786.676	46.86
787.068	46.85
787.46	46.88
787.852	46.9
788.245	46.88
788.636	46.87
789.028	46.89
789.42	46.91
789.812	46.91
790.204	46.92
790.595	46.92
790.987	46.94
791.378	46.94
791.77	46.92
792.161	46.9
792.553	46.91
792.944	46.9
793.335	46.89
793.726	46.88
794.117	46.86
794.508	46.84
794.899	46.83
795.29	46.81
795.681	46.79
796.072	46.81
796.463	46.87
796.853	46.85
797.244	46.86
797.634	46.85
798.025	46.87
798.415	46.9
798.806	46.91
799.196	46.94
799.586	46.98
799.976	47.02
800.366	47.02
800.756	46.97
801.146	46.98
801.536	46.99
801.926	46.99
802.316	46.98
802.706	46.99
803.095	47
803.485	46.95
803.874	46.9
804.264	46.89
804.653	46.88
805.043	46.86
805.432	46.87
805.821	46.88
806.21	46.9
806.599	46.88
806.988	46.87
807.377	46.87
807.766	46.91
808.155	46.91
808.544	46.89
808.933	46.89
809.321	46.92
809.71	46.9
810.098	46.89
810.487	46.86
810.875	46.89
811.264	46.87
811.652	46.88
812.04	46.89
812.428	46.91
812.816	46.93
813.204	46.93
813.592	46.91
813.98	46.9
814.368	46.92
814.756	46.95
815.144	46.94
815.531	46.96
815.919	46.95
816.306	46.93
816.694	46.93
817.081	46.93
817.469	46.94
817.856	46.95
818.243	46.94
818.63	46.93
819.017	46.91
819.404	46.88
819.791	46.87
820.178	46.84
820.565	46.83
820.952	46.82
821.339	46.82
821.725	46.81
822.112	46.82
822.498	46.83
822.885	46.86
823.271	46.83
823.657	46.81
824.044	46.8
824.43	46.84
824.816	46.84
825.202	46.81
825.588	46.78
825.974	46.78
826.36	46.77
826.746	46.75
827.132	46.73
827.517	46.73
827.903	46.76
828.289	46.78
828.674	46.73
829.06	46.72
829.445	46.71
829.83	46.73
830.216	46.72
830.601	46.7
830.986	46.69
831.371	46.67
831.756	46.67
832.141	46.64
832.526	46.63
832.911	46.62
833.295	46.63
833.68	46.65
834.065	46.64
834.449	46.62
834.834	46.62
835.218	46.64
835.603	46.62
835.987	46.62
836.371	46.6
836.755	46.59
837.139	46.59
837.524	46.58
837.908	46.59
838.291	46.61
838.675	46.6
839.059	46.6
839.443	46.56
839.827	46.56
840.21	46.55
840.594	46.57
840.977	46.56
841.361	46.55
841.744	46.5
842.127	46.46
842.511	46.44
842.894	46.43
843.277	46.42
843.66	46.41
844.043	46.44
844.426	46.43
844.809	46.43
845.191	46.47
845.574	46.48
845.957	46.52
846.339	46.55
846.722	46.55
847.104	46.56
847.487	46.56
847.869	46.57
848.252	46.56
848.634	46.57
849.016	46.56
849.398	46.54
849.78	46.51
850.162	46.48
850.544	46.48
850.926	46.49
851.307	46.48
851.689	46.49
852.071	46.49
852.452	46.49
852.834	46.49
853.215	46.48
853.597	46.47
853.978	46.51
854.359	46.52
854.741	46.53
855.122	46.53
855.503	46.52
855.884	46.5
856.265	46.51
856.646	46.48
857.026	46.5
857.407	46.51
857.788	46.51
858.169	46.52
858.549	46.54
858.93	46.55
859.31	46.55
859.69	46.58
860.071	46.62
860.451	46.62
860.831	46.63
861.211	46.61
861.591	46.61
861.971	46.62
862.351	46.62
862.731	46.61
863.111	46.59
863.491	46.57
863.87	46.54
864.25	46.51
864.629	46.52
865.009	46.54
865.388	46.53
865.768	46.55
866.147	46.55
866.526	46.55
866.905	46.55
867.284	46.57
867.663	46.56
868.042	46.59
868.421	46.62
868.8	46.6
869.179	46.58
869.558	46.6
869.936	46.58
870.315	46.58
870.693	46.56
871.072	46.54
871.45	46.53
871.828	46.53
872.207	46.53
872.585	46.49
872.963	46.48
873.341	46.48
873.719	46.49
874.097	46.48
874.475	46.48
874.853	46.49
875.23	46.52
875.608	46.52
875.986	46.55
876.363	46.54
876.741	46.57
877.118	46.6
877.495	46.59
877.873	46.59
878.25	46.59
878.627	46.57
879.004	46.55
879.381	46.54
879.758	46.51
880.135	46.5
880.512	46.49
880.889	46.47
881.265	46.44
881.642	46.42
882.019	46.42
882.395	46.41
882.772	46.4
883.148	46.41
883.524	46.4
883.901	46.4
884.277	46.36
884.653	46.34
885.029	46.32
885.405	46.32
885.781	46.34
886.157	46.33
886.532	46.32
886.908	46.3
887.284	46.29
887.659	46.25
888.035	46.22
888.411	46.24
888.786	46.26
889.161	46.27
889.537	46.27
889.912	46.26
890.287	46.24
890.662	46.23
891.037	46.24
891.412	46.24
891.787	46.24
892.162	46.24
892.536	46.23
892.911	46.21
893.286	46.2
893.66	46.19
894.035	46.18
894.409	46.17
894.784	46.17
895.158	46.18
895.532	46.2
895.906	46.22
896.281	46.23
896.655	46.23
897.029	46.26
897.402	46.26
897.776	46.29
898.15	46.32
898.524	46.36
898.898	46.38
899.271	46.39
899.645	46.38
900.018	46.41
900.392	46.42
900.765	46.44
901.138	46.43
901.511	46.45
901.884	46.47
902.258	46.48
902.631	46.46
903.003	46.47
903.376	46.47
903.749	46.47
904.122	46.47
904.495	46.47
904.867	46.5
905.24	46.52
905.612	46.56
905.985	46.55
906.357	46.54
906.729	46.56
907.102	46.59
907.474	46.64
907.846	46.65
908.218	46.66
908.59	46.69
908.962	46.69
909.334	46.7
909.705	46.69
910.077	46.71
910.449	46.72
910.82	46.71
911.192	46.69
911.563	46.66
911.935	46.66
912.306	46.67
912.677	46.67
913.048	46.66
913.419	46.64
913.79	46.61
914.161	46.59
914.532	46.58
914.903	46.59
915.274	46.59
915.645	46.64
916.015	46.67
916.386	46.65
916.756	46.64
917.127	46.66
917.497	46.7
917.868	46.73
918.238	46.77
918.608	46.81
918.978	46.79
919.348	46.8
919.718	46.77
920.088	46.78
920.458	46.79
920.828	46.8
921.198	46.75
921.567	46.75
921.937	46.77
922.306	46.76
922.676	46.75
923.045	46.77
923.415	46.75
923.784	46.74
924.153	46.75
924.522	46.74
924.891	46.74
925.26	46.78
925.629	46.78
925.998	46.76
926.367	46.73
926.736	46.72
927.104	46.7
927.473	46.69
927.842	46.66
928.21	46.65
928.578	46.64
928.947	46.64
929.315	46.65
929.683	46.66
930.051	46.68
930.42	46.71
930.788	46.72
931.156	46.73
931.523	46.77
931.891	46.84
932.259	46.83
932.627	46.9
932.994	46.97
933.362	46.99
933.729	47
934.097	47.01
934.464	47.04
934.831	47.08
935.199	47.13
935.566	47.16
935.933	47.17
936.3	47.23
936.667	47.24
937.034	47.28
937.401	47.3
937.767	47.35
938.134	47.39
938.501	47.47
938.867	47.49
939.234	47.51
939.6	47.56
939.967	47.61
940.333	47.59
940.699	47.6
941.065	47.51
941.431	47.54
941.798	47.51
942.163	47.49
942.529	47.37
942.895	47.37
943.261	47.36
943.627	47.28
943.992	47.22
944.358	47.24
944.723	47.23
945.089	47.2
945.454	47.15
945.82	47.1
946.185	47.11
946.55	47.06
946.915	47.01
947.28	46.97
947.645	46.99
948.01	47.01
948.375	46.94
948.74	46.85
949.104	46.87
949.469	46.84
949.834	46.86
950.198	46.82
950.562	46.82
950.927	46.79
951.291	46.73
951.655	46.61
952.02	46.56
952.384	46.52
952.748	46.51
953.112	46.48
953.476	46.46
953.839	46.4
954.203	46.35
954.567	46.35
954.931	46.3
955.294	46.24
955.658	46.31
956.021	46.3
956.385	46.27
956.748	46.24
957.111	46.24
957.474	46.24
957.837	46.21
958.2	46.21
958.563	46.16
958.926	46.19
959.289	46.23
959.652	46.25
960.015	46.22
960.377	46.22
960.74	46.25
961.102	46.24
961.465	46.25
961.827	46.38
962.189	46.43
962.552	46.41
962.914	46.4
963.276	46.45
963.638	46.43
964	46.42
964.362	46.45
964.724	46.45
965.085	46.41
965.447	46.37
965.809	46.27
966.17	46.23
966.532	46.28
966.893	46.3
967.255	46.3
967.616	46.36
967.977	46.39
968.338	46.41
968.699	46.4
969.061	46.45
969.421	46.52
969.782	46.55
970.143	46.56
970.504	46.6
970.865	46.61
971.225	46.54
971.586	46.48
971.946	46.46
972.307	46.45
972.667	46.44
973.027	46.47
973.388	46.45
973.748	46.47
974.108	46.53
974.468	46.51
974.828	46.56
975.188	46.64
975.548	46.72
975.907	46.8
976.267	46.81
976.627	46.87
976.986	46.81
977.346	46.77
977.705	46.76
978.064	46.75
978.424	46.79
978.783	46.74
979.142	46.71
979.501	46.77
979.86	46.77
980.219	46.8
980.578	46.85
980.937	46.93
981.296	46.96
981.654	47.02
982.013	47.12
982.371	47.16
982.73	47.23
983.088	47.27
983.447	47.17
983.805	47.21
984.163	47.19
984.521	47.12
984.879	47.08
985.237	47.17
985.595	47.21
985.953	47.2
986.311	47.18
986.669	47.2
987.026	47.24
987.384	47.32
987.741	47.36
988.099	47.5
988.456	47.53
988.814	47.65
989.171	47.66
989.528	47.64
989.885	47.61
990.242	47.69
990.599	47.74
990.956	47.72
991.313	47.82
991.67	47.84
992.027	47.92
992.383	48.02
992.74	48.14
993.096	48.14
993.453	48.24
993.809	48.25
994.165	48.35
994.522	48.52
994.878	48.76
995.234	48.73
995.59	48.76
995.946	48.73
996.302	48.8
996.658	48.78
997.013	48.88
997.369	48.94
997.725	49.09
998.08	49.12
998.436	49.03
998.791	49.09
999.147	49.09
999.502	49.18
999.857	49.2
1000.212	49.08
1000.567	49.21
1000.922	49.2
1001.277	49.14
1001.632	49.06
1001.987	49.04
1002.342	49.09
1002.696	48.97
1003.051	49.14
1003.406	49.32
1003.76	49.37
1004.114	49.51
1004.469	49.46
1004.823	49.82
1005.177	49.97
1005.531	50.12
1005.885	50.14
1006.239	50.3
1006.593	50.47
1006.947	50.55
1007.301	50.48
1007.655	50.49
1008.008	50.71
1008.362	50.76
1008.715	50.78
1009.069	50.8
1009.422	50.91
1009.776	51.12
1010.129	51.11
1010.482	51.01
1010.835	51.14
1011.188	51.28
1011.541	51.42
1011.894	51.38
1012.247	51.51
1012.6	51.49
1012.952	51.65
1013.305	51.79
1013.657	51.94
1014.01	52.12
1014.362	52.29
1014.715	52.46
1015.067	52.59
1015.419	52.82
1015.771	52.96
1016.123	53.18
1016.475	53.14
1016.827	53.22
1017.179	53.44
1017.531	53.45
1017.883	53.36
1018.234	53.75
1018.586	53.7
1018.938	54.08
1019.289	54.09
1019.64	54.18
1019.992	54.16
1020.343	54.41
1020.694	54.65
1021.045	54.58
1021.396	54.84
1021.747	55.3
1022.098	55.24
1022.449	55.24
1022.8	55.4
1023.151	55.7
1023.501	56.07
1023.852	56.38
1024.202	56.53
1024.553	56.43
1024.903	56.82
1025.253	57.11
1025.604	57.09
1025.954	56.92
1026.304	57.37
1026.654	57.2
1027.004	57.18
1027.354	57.28
1027.703	57.21
1028.053	57.2
1028.403	57.72
1028.753	57.4
1029.102	57.28
1029.452	57.33
1029.801	57.71
1030.15	57.55
1030.499	57.42
897.758	1719.3
901.051	1727.89
904.343	1719.82
907.636	1750.82
910.928	1702.4
914.22	1699.81
917.511	1677.43
920.803	1605.03
924.094	1597.89
927.384	1563.77
930.675	1492.7
933.965	1483.66
937.255	1394.9
940.544	1338.56
943.834	1274.43
947.123	1263.2
950.411	1190.27
953.7	1164.13
956.988	1097.37
960.276	1052.71
963.563	1036.28
966.851	1001.1
970.138	990.86
973.424	960.65
976.711	968.78
979.997	918.13
983.283	914.78
986.568	894.2
989.853	864.27
993.138	852.59
996.423	820.02
999.708	796.07
1002.992	787.41
1006.275	751.27
1009.559	743.81
1012.842	716.24
1016.125	696.81
1019.408	683.72
1022.69	673.9
1025.972	662.89
1029.254	644.54
1032.536	633.45
1035.817	619.73
1039.098	611.77
1042.379	598.69
1045.659	592.6
1048.939	576.67
1052.219	565.77
1055.498	556.08
1058.778	544.78
1062.057	529.5
1065.335	524.5
1068.614	518.26
1071.892	513.66
1075.17	495.53
1078.447	486.6
1081.724	482.92
1085.001	479.39
1088.278	468.59
1091.554	459.15
1094.83	457.77
1098.106	456.94
1101.382	452.35
1104.657	448.33
1107.932	440.73
1111.206	444.98
1114.481	433.34
1117.755	428.39
1121.029	425.17
1124.302	425.94
1127.575	417.71
1130.848	413.22
1134.121	407.98
1137.393	406.95
1140.665	397.85
1143.937	395.58
1147.208	390.64
1150.48	391.2
1153.75	386.48
1157.021	379.55
1160.291	379.3
1163.561	375.46
1166.831	374.99
1170.101	372.35
1173.37	370.32
1176.639	371.95
1179.907	367.85
1183.176	364.57
1186.444	363.93
1189.711	363.22
1192.979	363.39
1196.246	360.04
1199.513	361.63
1202.78	359.41
1206.046	359.37
1209.312	355.96
1212.578	356.25
1215.843	359.43
1219.108	357.07
1222.373	364.54
1225.638	366.78
1228.902	372.47
1232.166	372.63
1235.43	376.12
1238.693	381.76
1241.956	383.28
1245.219	389.8
1248.482	389.16
1251.744	389.12
1255.006	391
1258.268	380.69
1261.529	377.08
1264.79	372.77
1268.051	371.64
1271.312	366.14
1274.572	361.23
1277.832	358.06
1281.092	351.56
1284.351	349.04
1287.61	348.88
1290.869	343.62
1294.128	341.39
1297.386	341.95
1300.644	338.57
1303.902	339.81
1307.159	337.97
1310.416	338.35
1313.673	338.11
1316.93	341.82
1320.186	342.14
1323.442	343.12
1326.697	348.88
1329.953	349.98
1333.208	351.48
1336.463	356.13
1339.717	356.47
1342.972	361.43
1346.226	363.66
1349.479	364.03
1352.733	366.51
1355.986	367.79
1359.238	367.29
1362.491	370.3
1365.743	373.24
1368.995	373.4
1372.247	371.9
1375.498	372.65
1378.749	376.62
1382	371.61
1385.251	373.86
1388.501	370.7
1391.751	373.43
1395	371.57
1398.25	368.16
1401.499	367.39
1404.748	366.67
1407.996	363.03
1411.244	360.88
1414.492	358.69
1417.74	356.8
1420.987	350.97
1424.234	352.13
1427.481	346.68
1430.728	346.74
1433.974	343.33
1437.22	340.35
1440.465	339.08
1443.711	337.72
1446.956	335.53
1450.201	329.72
1453.445	327.22
1456.689	326.14
1459.933	319.65
1463.177	317.3
1466.42	312.42
1469.663	308.1
1472.906	306.21
1476.148	298.28
1479.391	294.02
1482.633	290.85
1485.874	286.91
1489.115	284.89
1492.356	280.68
1495.597	280.4
1498.838	276.1
1502.078	274.2
1505.318	273.15
1508.557	273.03
1511.797	272.81
1515.036	271.46
1518.274	271.13
1521.513	268.1
1524.751	267.66
1527.989	267.17
1531.227	265.89
1534.464	266.84
1537.701	264.3
1540.938	263.5
1544.174	260.39
1547.41	259.69
1550.646	258.33
1553.882	258.16
1557.117	255.59
1560.352	253.25
1563.587	252.78
1566.821	250.94
1570.055	247.61
1573.289	246.01
1576.523	245.87
1579.756	243.4
1582.989	241.61
1586.222	241.71
1589.454	239.32
1592.686	240.61
1595.918	240.08
1599.15	238.69
1602.381	238.78
1605.612	238.9
1608.843	240.44
1612.073	239.76
1615.303	241.19
1618.533	242.02
1621.762	241.03
1624.992	241.46
1628.221	241.55
1631.449	241.38
1634.678	241.14
1637.906	241.94
1641.134	242.05
1644.361	241.1
1647.588	242.34
1650.815	241.14
1654.042	240.08
1657.269	241.83
1660.495	242.43
1663.72	240.55
1666.946	241.15
1670.171	241.63
1673.396	241.69
1676.621	241.53
1679.845	241.81
1683.069	241.15
1686.293	243.14
1689.517	244.31
1692.74	243.53
1695.963	244.61
1699.185	247.85
1702.408	248.2
1705.63	249.25
1708.852	249.8
1712.073	250.47
1715.294	250.87
1718.515	252.66
1721.736	252.11
1724.956	252.41
1728.176	252.57
1731.396	255.06
1734.616	253.84
1737.835	254.83
1741.054	253.15
1744.272	254.15
1747.491	257.1
1750.709	257.18
1753.927	256.87
1757.144	255.8
1760.361	257.64
1763.578	258.68
1766.795	257.35
1770.011	259.48
1773.227	259.69
1776.443	263.05
1779.658	264.32
1782.874	263.06
1786.089	264.55
1789.303	265.48
1792.518	268.92
1795.732	268.42
1798.945	271.08
1802.159	271.51
1805.372	272.74
1808.585	277.42
1811.797	277.93
1815.01	277.7
1818.222	279.9
1821.434	282.1
1824.645	283.13
1827.856	288.04
1831.067	291.05
1834.278	288.36
1837.488	290.87
1840.698	292.65
1843.908	289.49
1847.117	292.05
1850.326	294.02
1853.535	293.03
1856.744	298.04
1859.952	297.89
1863.16	296.2
1866.368	294.04
1869.575	299.38
1872.782	294.64
1875.989	294.22
1879.196	293.47
1882.402	290.98
1885.608	293.31
1888.814	294.74
1892.019	293.21
1895.224	292.77
1898.429	291.7
1901.634	294.31
1904.838	294.24
1908.042	298.3
1911.246	299.36
1914.449	301.47
1917.652	301.62
1920.855	301.01
1924.058	300.31
1927.26	299.37
1930.462	300.66
1933.664	304.45
1936.865	300.91
1940.066	301.59
1943.267	299.12
1946.467	299.18
1949.668	301.25
1952.868	305.25
1956.067	304.27
1959.267	305.28
1962.466	306.13
1965.665	304.67
1968.863	305.11
1972.061	309.95
1975.259	311.37
1978.457	314.57
1981.654	316.25
1984.852	316.78
1988.048	315.63
1991.245	318.67
1994.441	322.52
1997.637	324.15
2000.833	330.81
2004.028	334.45
2007.223	336.04
2010.418	340.08
2013.613	344.74
2016.807	348.86
2020.001	352.21
2023.194	357.71
2026.388	366.23
2029.581	373.58
2032.774	377.31
2035.966	383.83
2039.158	385.23
2042.35	393.27
2045.542	395.22
2048.733	401.58
2051.924	406.81
2055.115	412.59
2058.306	413.34
2061.496	418.56
2064.686	417.85
2067.875	425.64
2071.065	427.27
2074.254	425.87
2077.442	429.92
2080.631	432.39
2083.819	436.43
2087.007	436.59
2090.195	443.07
2093.382	446.4
2096.569	441.93
2099.756	449.78
2102.942	450.64
2106.128	455.8
2109.314	465.74
2112.5	464.5
2115.685	474.24
2118.87	475.61
2122.055	484.37
2125.239	487.6
2128.424	494.05
2131.608	497.61
2134.791	504.95
2137.974	506.63
2141.157	507.91
2144.34	507.58
2147.523	516.45
2150.705	512.5
2153.887	516.69
2157.068	518.89
2160.25	512.99
2163.431	515.36
2166.611	520.57
2169.792	530.26
2172.972	537.02
2176.152	538.97
2179.331	547.89
2182.511	556.88
2185.69	564.36
2188.868	575.37
2192.047	576.91
2195.225	594.55
2198.403	609.53
2201.58	621.62
2204.758	633.61
2207.935	647.9
2211.111	660.05
2214.288	666.85
2217.464	668.21
2220.64	676.6
2223.815	687.39
2226.991	714.2
2230.166	715.96
2233.34	729.91
2236.515	741.02
2239.689	741.22
2242.863	744.11
2246.036	768.16
2249.209	760.66
2252.382	773.14
2255.555	798.31
2258.727	799.74
2261.9	805.44
2265.071	812.91
2268.243	825.1
2271.414	835.7
2274.585	854.9
2277.756	863.53
2280.926	868.96
2284.096	889.37
2287.266	908.74
2290.436	914.29
2293.605	937.59
2296.774	966.6
2299.942	998.27
2303.111	1003.38
2306.279	1028.11
2309.447	1038.85
2312.614	1067.1
2315.781	1096.91
2318.948	1149.12
2322.115	1132.03
2325.281	1194.26
2328.447	1166.53
2331.613	1216.71
2334.779	1201.33
2337.944	1254.9
2341.109	1266.19
2344.274	1302.28
2347.438	1347.43
2350.602	1345.76
2353.766	1384.61
2356.929	1405.95
2360.092	1393.4
2363.255	1500.88
2366.418	1491.11
2369.58	1523.97
2372.742	1617.78
2375.904	1657.84
2379.066	1647.53
2382.227	1614.22
2385.388	1753.09
2388.548	1763.53
2391.709	1788.1
2394.869	1994.64
2398.029	1901.7
2401.188	1957.73
2404.347	1946.17
2407.506	1913.58
2410.665	1972.8
2413.823	2092.5
2416.981	2219.4
2420.139	2140.61
2423.296	2112.27
2426.453	2201.44
2429.61	2117.61
2432.767	2222.04
2435.923	2200.22
2439.079	2396.56
2442.235	2426.16
2445.391	2399.12
2448.546	2383.74
2451.701	2315.67
2454.855	2319.57
2458.009	2454.09
2461.163	2556.78
2464.317	2651.27
2467.471	2720.37
2470.624	2717.42
2473.777	2648.64
2476.929	2593.23
2480.082	2517.26
2483.234	2482.31
2486.385	2608.96
2489.537	2619.64
2492.688	2727.67
2495.839	2645.14
2498.989	2590.62
2502.14	2602.04
2505.29	2637.28
2508.439	2677.35
2511.589	2658.79
2514.738	2903.8
2517.887	2846.15
2521.035	3011.4
2524.183	3032.48
2527.331	3053.72
2530.479	3049.35
2533.627	3071.66
