Data from N_2_DEC_OH_4N_Splice17_13-03-44-796.txt Node
Date: Sat Mar 07 13:03:44 EST 2020
User: sa697716
Spectrometer: NQ5500242
Trigger mode: 0
Integration Time (sec): 1.450000E-1
Scans to average: 20
Nonlinearity correction enabled: false
Boxcar width: 5
Storing dark spectrum: false
XAxis mode: Wavelengths
Number of Pixels in Spectrum: 512
>>>>>Begin Spectral Data<<<<<
187.83	177.11
188.298	209.73
188.766	177.19
189.233	165.73
189.701	166.93
190.169	194.5
190.636	239.44
191.104	395.41
191.571	407.26
192.039	207.39
192.506	-139.24
192.974	-55.2
193.441	99.1
193.908	-17.56
194.375	62.95
194.842	34.2
195.31	30.38
195.777	206.52
196.244	31.91
196.711	28.6
197.177	31.08
197.644	29.18
198.111	29.06
198.578	29.32
199.045	29.32
199.511	29.16
199.978	29.15
200.445	29.46
200.911	29.11
201.378	29.21
201.844	28.91
202.31	28.28
202.777	28.62
203.243	28.45
203.709	27.89
204.176	27.72
204.642	27.59
205.108	27.38
205.574	27.21
206.04	26.61
206.506	26.28
206.972	26.31
207.438	26.28
207.903	25.36
208.369	24.88
208.835	24.55
209.301	24.11
209.766	23.16
210.232	22.44
210.697	21.64
211.163	21.35
211.628	20.83
212.094	20.37
212.559	20.03
213.024	19.59
213.49	19.42
213.955	18.86
214.42	18.33
214.885	17.93
215.35	17.25
215.815	16.51
216.28	15.15
216.745	13.76
217.21	12.52
217.675	11.21
218.14	10.37
218.604	9.56
219.069	8.89
219.534	8.34
219.998	7.84
220.463	7.42
220.927	6.99
221.392	6.7
221.856	6.52
222.32	6.32
222.785	6.2
223.249	6.02
223.713	5.84
224.177	5.72
224.642	5.57
225.106	5.43
225.57	5.31
226.034	5.24
226.497	5.17
226.961	5.07
227.425	4.98
227.889	4.9
228.353	4.82
228.816	4.74
229.28	4.66
229.744	4.6
230.207	4.54
230.671	4.48
231.134	4.42
231.597	4.37
232.061	4.31
232.524	4.24
232.987	4.17
233.45	4.14
233.914	4.09
234.377	4.05
234.84	4
235.303	3.97
235.766	3.93
236.229	3.88
236.691	3.83
237.154	3.79
237.617	3.76
238.08	3.73
238.542	3.67
239.005	3.63
239.468	3.61
239.93	3.58
240.393	3.54
240.855	3.5
241.317	3.47
241.78	3.43
242.242	3.4
242.704	3.38
243.166	3.35
243.629	3.33
244.091	3.3
244.553	3.27
245.015	3.24
245.477	3.2
245.939	3.18
246.4	3.16
246.862	3.15
247.324	3.13
247.786	3.11
248.247	3.08
248.709	3.04
249.17	3.01
249.632	3
250.093	2.98
250.555	2.97
251.016	2.96
251.477	2.93
251.939	2.91
252.4	2.89
252.861	2.88
253.322	2.87
253.783	2.86
254.244	2.85
254.705	2.83
255.166	2.82
255.627	2.8
256.088	2.78
256.549	2.77
257.009	2.75
257.47	2.73
257.931	2.71
258.391	2.68
258.852	2.65
259.312	2.63
259.773	2.61
260.233	2.6
260.694	2.59
261.154	2.57
261.614	2.55
262.074	2.54
262.534	2.53
262.994	2.52
263.455	2.51
263.915	2.51
264.374	2.5
264.834	2.5
265.294	2.48
265.754	2.48
266.214	2.47
266.673	2.46
267.133	2.45
267.593	2.44
268.052	2.44
268.512	2.43
268.971	2.43
269.431	2.42
269.89	2.41
270.349	2.41
270.809	2.41
271.268	2.4
271.727	2.4
272.186	2.39
272.645	2.39
273.104	2.38
273.563	2.37
274.022	2.37
274.481	2.36
274.94	2.36
275.399	2.35
275.857	2.35
276.316	2.34
276.775	2.34
277.233	2.33
277.692	2.33
278.15	2.33
278.609	2.33
279.067	2.32
279.525	2.32
279.984	2.32
280.442	2.31
280.9	2.31
281.358	2.3
281.816	2.3
282.274	2.3
282.732	2.3
283.19	2.29
283.648	2.29
284.106	2.28
284.564	2.27
285.021	2.27
285.479	2.27
285.937	2.26
286.394	2.25
286.852	2.24
287.309	2.23
287.767	2.22
288.224	2.21
288.682	2.2
289.139	2.2
289.596	2.19
290.053	2.18
290.511	2.17
290.968	2.16
291.425	2.15
291.882	2.15
292.339	2.14
292.796	2.14
293.252	2.13
293.709	2.13
294.166	2.12
294.623	2.12
295.079	2.12
295.536	2.11
295.992	2.1
296.449	2.1
296.905	2.1
297.362	2.09
297.818	2.08
298.274	2.08
298.731	2.08
299.187	2.07
299.643	2.07
300.099	2.06
300.555	2.06
301.011	2.05
301.467	2.05
301.923	2.04
302.379	2.04
302.835	2.04
303.291	2.04
303.746	2.04
304.202	2.04
304.658	2.03
305.113	2.03
305.569	2.03
306.024	2.03
306.479	2.02
306.935	2.01
307.39	2.01
307.845	2.01
308.301	2
308.756	2
309.211	2
309.666	2
310.121	2
310.576	2
311.031	2
311.486	2
311.94	2
312.395	2.01
312.85	2.01
313.305	2
313.759	2.01
314.214	2
314.668	1.99
315.123	1.99
315.577	1.99
316.032	1.99
316.486	1.98
316.94	1.99
317.394	1.97
317.849	1.96
318.303	1.95
318.757	1.95
319.211	1.94
319.665	1.94
320.119	1.93
320.572	1.93
321.026	1.92
321.48	1.92
321.934	1.9
322.387	1.9
322.841	1.89
323.295	1.9
323.748	1.9
324.202	1.9
324.655	1.89
325.108	1.9
325.562	1.89
326.015	1.89
326.468	1.89
326.921	1.89
327.374	1.89
327.827	1.9
328.28	1.89
328.733	1.89
329.186	1.89
329.639	1.89
330.092	1.89
330.545	1.89
330.997	1.89
331.45	1.89
331.903	1.9
332.355	1.9
332.808	1.9
333.26	1.9
333.713	1.9
334.165	1.9
334.617	1.9
335.069	1.89
335.522	1.9
335.974	1.9
336.426	1.89
336.878	1.89
337.33	1.88
337.782	1.88
338.234	1.88
338.686	1.89
339.137	1.89
339.589	1.88
340.041	1.87
340.493	1.87
340.944	1.86
341.396	1.85
341.847	1.85
342.299	1.85
342.75	1.85
343.201	1.84
343.653	1.83
344.104	1.82
344.555	1.82
345.006	1.82
345.457	1.82
345.908	1.81
346.359	1.82
346.81	1.81
347.261	1.8
347.712	1.8
348.163	1.79
348.613	1.8
349.064	1.8
349.515	1.8
349.965	1.8
350.416	1.79
350.866	1.79
351.317	1.77
351.767	1.78
352.217	1.78
352.668	1.78
353.118	1.78
353.568	1.77
354.018	1.78
354.468	1.78
354.918	1.78
355.368	1.79
355.818	1.79
356.268	1.8
356.718	1.8
357.168	1.8
357.617	1.79
358.067	1.78
358.517	1.79
358.966	1.79
359.416	1.79
359.865	1.79
360.315	1.79
360.764	1.8
361.213	1.8
361.663	1.79
362.112	1.8
362.561	1.81
363.01	1.81
363.459	1.79
363.908	1.79
364.357	1.8
364.806	1.79
365.255	1.79
365.703	1.79
366.152	1.79
366.601	1.79
367.05	1.79
367.498	1.78
367.947	1.79
368.395	1.8
368.844	1.8
369.292	1.79
369.74	1.8
370.189	1.8
370.637	1.8
371.085	1.79
371.533	1.8
371.981	1.8
372.429	1.81
372.877	1.81
373.325	1.8
373.773	1.8
374.221	1.79
374.669	1.79
375.116	1.78
375.564	1.77
376.012	1.77
376.459	1.77
376.907	1.77
377.354	1.77
377.801	1.77
378.249	1.77
378.696	1.77
379.143	1.78
379.591	1.78
380.038	1.79
380.485	1.8
380.932	1.8
381.379	1.8
381.826	1.81
382.273	1.8
382.72	1.8
383.166	1.8
383.613	1.8
384.06	1.81
384.506	1.8
384.953	1.81
385.4	1.81
385.846	1.82
386.292	1.82
386.739	1.83
387.185	1.85
387.631	1.87
388.078	1.87
388.524	1.88
388.97	1.88
389.416	1.89
389.862	1.91
390.308	1.93
390.754	1.95
391.2	1.97
391.645	1.98
392.091	2.01
392.537	2.02
392.983	2.04
393.428	2.08
393.874	2.11
394.319	2.16
394.765	2.19
395.21	2.24
395.655	2.28
396.101	2.34
396.546	2.38
396.991	2.43
397.436	2.49
397.881	2.55
398.326	2.6
398.771	2.66
399.216	2.72
399.661	2.77
400.106	2.81
400.551	2.85
400.995	2.88
401.44	2.92
401.885	2.95
402.329	2.99
402.774	3.03
403.218	3.1
403.663	3.13
404.107	3.18
404.551	3.23
404.995	3.26
405.44	3.3
405.884	3.34
406.328	3.39
406.772	3.44
407.216	3.49
407.66	3.53
408.104	3.56
408.547	3.61
408.991	3.65
409.435	3.69
409.879	3.76
410.322	3.81
410.766	3.87
411.209	3.93
411.653	3.99
412.096	4.03
412.54	4.08
412.983	4.13
413.426	4.19
413.869	4.23
414.312	4.28
414.756	4.31
415.199	4.34
415.642	4.36
416.085	4.39
416.527	4.39
416.97	4.39
417.413	4.4
417.856	4.39
418.298	4.38
418.741	4.37
419.184	4.37
419.626	4.38
420.069	4.4
420.511	4.42
420.953	4.43
421.396	4.46
421.838	4.49
422.28	4.52
422.722	4.57
423.164	4.59
423.606	4.64
424.048	4.65
424.49	4.66
424.932	4.65
425.374	4.6
425.816	4.53
426.258	4.47
426.699	4.44
427.141	4.43
427.582	4.45
428.024	4.48
428.465	4.51
428.907	4.54
429.348	4.56
429.789	4.6
430.231	4.68
430.672	4.8
431.113	4.92
431.554	5.04
431.995	5.11
432.436	5.17
432.877	5.23
433.318	5.26
433.759	5.31
434.2	5.37
434.64	5.43
435.081	5.49
435.522	5.54
435.962	5.58
436.403	5.6
436.843	5.63
437.284	5.64
437.724	5.66
438.164	5.68
438.604	5.73
439.045	5.8
439.485	5.85
439.925	5.87
440.365	5.9
440.805	5.9
441.245	5.92
441.685	5.95
442.125	5.97
442.564	6
443.004	6.02
443.444	6.04
443.883	6.06
444.323	6.07
444.762	6.09
445.202	6.11
445.641	6.18
446.081	6.22
446.52	6.26
446.959	6.33
447.398	6.38
447.837	6.4
448.276	6.4
448.716	6.4
449.154	6.41
449.593	6.41
450.032	6.4
450.471	6.36
450.91	6.33
451.349	6.3
451.787	6.26
452.226	6.23
452.664	6.22
453.103	6.19
453.541	6.17
453.98	6.16
454.418	6.12
454.856	6.1
455.295	6.08
455.733	6.04
456.171	6.03
456.609	6.02
457.047	6
457.485	5.98
457.923	6
458.361	6.01
458.798	6.01
459.236	6.01
459.674	6.01
460.111	6.02
460.549	6.05
460.987	6.06
461.424	6.06
461.862	6.08
462.299	6.1
462.736	6.1
463.173	6.12
463.611	6.15
464.048	6.21
464.485	6.26
464.922	6.29
465.359	6.33
465.796	6.38
466.233	6.41
466.67	6.46
467.106	6.52
467.543	6.57
467.98	6.61
468.416	6.63
468.853	6.67
469.29	6.7
469.726	6.74
470.162	6.77
470.599	6.8
471.035	6.84
471.471	6.85
471.907	6.84
472.344	6.84
472.78	6.85
473.216	6.85
473.652	6.85
474.088	6.85
474.523	6.85
474.959	6.85
475.395	6.83
475.831	6.82
476.266	6.82
476.702	6.82
477.138	6.82
477.573	6.81
478.008	6.81
478.444	6.78
478.879	6.76
479.314	6.73
479.75	6.7
480.185	6.65
480.62	6.59
481.055	6.52
481.49	6.42
481.925	6.32
482.36	6.22
482.795	6.14
483.229	6.08
483.664	6.02
484.099	5.98
484.534	5.93
484.968	5.91
485.403	5.89
485.837	5.91
486.271	5.94
486.706	5.97
487.14	5.99
487.574	6
488.009	6
488.443	6.01
488.877	6.02
489.311	6.04
489.745	6.05
490.179	6.08
490.613	6.1
491.046	6.12
491.48	6.14
491.914	6.18
492.348	6.22
492.781	6.26
493.215	6.3
493.648	6.33
494.082	6.36
494.515	6.38
494.948	6.39
495.382	6.41
495.815	6.43
496.248	6.45
496.681	6.46
497.114	6.48
497.547	6.49
497.98	6.51
498.413	6.55
498.846	6.6
499.279	6.66
499.711	6.7
500.144	6.76
500.577	6.83
501.009	6.91
501.442	7.01
501.874	7.12
502.306	7.22
502.739	7.33
503.171	7.42
503.603	7.5
504.036	7.6
504.468	7.71
504.9	7.82
505.332	7.92
505.764	8.04
506.196	8.15
506.627	8.27
507.059	8.4
507.491	8.52
507.923	8.66
508.354	8.83
508.786	8.98
509.217	9.13
509.649	9.27
510.08	9.43
510.512	9.58
510.943	9.75
511.374	9.92
511.805	10.08
512.237	10.2
512.668	10.32
513.099	10.44
513.53	10.58
513.961	10.74
514.391	10.92
514.822	11.13
515.253	11.34
515.684	11.56
516.114	11.8
516.545	12.07
516.975	12.39
517.406	12.72
517.836	13.06
518.267	13.4
518.697	13.71
519.127	14.03
519.558	14.35
519.988	14.68
520.418	14.97
520.848	15.28
521.278	15.57
521.708	16.02
522.138	16.24
522.567	16.44
522.997	16.64
523.427	16.87
523.857	17.1
524.286	17.33
524.716	17.56
525.145	17.8
525.575	18.01
526.004	18.23
526.433	18.28
526.863	18.58
527.292	18.86
527.721	19.11
528.15	19.3
528.579	19.46
529.008	19.6
529.437	19.71
529.866	19.8
530.295	19.92
530.724	20.03
531.152	20.15
531.581	20.25
532.01	20.33
532.438	20.41
532.867	20.52
533.295	20.63
533.723	20.73
534.152	20.81
534.58	20.91
535.008	20.96
535.436	20.99
535.865	20.97
536.293	20.94
536.721	20.94
537.149	20.97
537.576	21.01
538.004	21.04
538.432	21.07
538.86	21.1
539.287	21.14
539.715	21.2
540.143	21.28
540.57	21.37
540.998	21.47
541.425	21.57
541.852	21.66
542.28	21.74
542.707	21.8
543.134	21.86
543.561	21.94
543.988	22.01
544.415	22.06
544.842	22.11
545.269	22.18
545.696	22.25
546.123	22.29
546.549	22.34
546.976	22.4
547.403	22.45
547.829	22.5
548.256	22.55
548.682	22.59
549.108	22.64
549.535	22.68
549.961	22.7
550.387	22.71
550.813	22.75
551.24	22.75
551.666	22.74
552.092	22.73
552.518	22.7
552.943	22.66
553.369	22.62
553.795	22.54
554.221	22.46
554.646	22.33
555.072	22.22
555.498	22.07
555.923	21.95
556.349	21.83
556.774	21.73
557.199	21.62
557.625	21.51
558.05	21.4
558.475	21.29
558.9	21.19
559.325	21.11
559.75	21.01
560.175	20.9
560.6	20.77
561.025	20.63
561.449	20.45
561.874	20.25
562.299	20.07
562.723	19.86
563.148	19.67
563.572	19.48
563.997	19.25
564.421	19.03
564.846	18.82
565.27	18.6
565.694	18.39
566.118	18.17
566.542	17.98
566.966	17.75
567.39	17.55
567.814	17.35
568.238	17.16
568.662	17.01
569.086	16.86
569.509	16.71
569.933	16.57
570.357	16.43
570.78	16.28
571.204	16.15
571.627	16.03
572.05	15.91
572.474	15.79
572.897	15.66
573.32	15.52
573.743	15.37
574.166	15.22
574.589	15.08
575.012	14.95
575.435	14.85
575.858	14.74
576.281	14.64
576.704	14.55
577.126	14.46
577.549	14.37
577.972	14.3
578.394	14.22
578.817	14.17
579.239	14.12
579.661	14.06
580.084	14.01
580.506	13.96
580.928	13.88
581.35	13.8
581.772	13.7
582.194	13.61
582.616	13.53
583.038	13.46
583.46	13.36
583.882	13.26
584.303	13.16
584.725	13.01
585.147	12.88
585.568	12.76
585.99	12.67
586.411	12.61
586.833	12.52
587.254	12.44
587.675	12.37
588.096	12.3
588.518	12.23
588.939	12.21
589.36	12.19
589.781	12.17
590.202	12.18
590.623	12.15
591.043	12.11
591.464	12.08
591.885	12.03
592.305	11.99
592.726	11.95
593.147	11.91
593.567	11.86
593.987	11.81
594.408	11.77
594.828	11.71
595.248	11.67
595.669	11.63
596.089	11.59
596.509	11.56
596.929	11.52
597.349	11.46
597.769	11.4
598.189	11.35
598.608	11.31
599.028	11.29
599.448	11.26
599.867	11.22
600.287	11.19
600.706	11.16
601.126	11.12
601.545	11.08
601.965	11.05
602.384	11.03
602.803	10.99
603.222	10.94
603.641	10.88
604.061	10.83
604.48	10.77
604.898	10.69
605.317	10.62
605.736	10.54
606.155	10.46
606.574	10.39
606.992	10.31
607.411	10.25
607.829	10.15
608.248	10.07
608.666	10
609.085	9.92
609.503	9.85
609.921	9.78
610.339	9.71
610.758	9.65
611.176	9.58
611.594	9.5
612.012	9.42
612.43	9.37
612.847	9.3
613.265	9.22
613.683	9.16
614.101	9.1
614.518	9.04
614.936	8.98
615.353	8.91
615.771	8.86
616.188	8.82
616.606	8.78
617.023	8.75
617.44	8.72
617.857	8.69
618.274	8.63
618.691	8.58
619.108	8.53
619.525	8.48
619.942	8.44
620.359	8.39
620.776	8.33
621.192	8.27
621.609	8.22
622.026	8.17
622.442	8.13
622.859	8.1
623.275	8.07
623.691	8.04
624.108	8.02
624.524	7.99
624.94	7.97
625.356	7.96
625.772	7.94
626.188	7.92
626.604	7.91
627.02	7.88
627.436	7.86
627.852	7.85
628.268	7.83
628.683	7.81
629.099	7.8
629.514	7.79
629.93	7.78
630.345	7.76
630.761	7.74
631.176	7.71
631.591	7.69
632.007	7.67
632.422	7.63
632.837	7.6
633.252	7.57
633.667	7.52
634.082	7.48
634.497	7.44
634.911	7.4
635.326	7.34
635.741	7.29
636.155	7.24
636.57	7.18
636.984	7.12
637.399	7.06
637.813	7
638.228	6.92
638.642	6.84
639.056	6.76
639.47	6.69
639.884	6.63
640.298	6.55
640.712	6.49
641.126	6.42
641.54	6.36
641.954	6.29
642.368	6.22
642.781	6.18
643.195	6.12
643.609	6.08
644.022	6.02
644.436	5.97
644.849	5.91
645.262	5.84
645.676	5.78
646.089	5.74
646.502	5.71
646.915	5.67
647.328	5.63
647.741	5.61
648.154	5.57
648.567	5.56
648.98	5.53
649.393	5.52
649.805	5.52
650.218	5.51
650.631	5.49
651.043	5.45
651.456	5.41
651.868	5.36
652.28	5.29
652.693	5.23
653.105	5.18
653.517	5.13
653.929	5.11
654.341	5.08
654.753	5.05
655.165	5.02
655.577	5
655.989	5
656.401	5.01
656.813	5.04
657.224	5.04
657.636	5.04
658.047	5.03
658.459	5.01
658.87	4.98
659.282	4.95
659.693	4.93
660.104	4.9
660.515	4.86
660.926	4.83
661.338	4.78
661.749	4.75
662.159	4.72
662.57	4.7
662.981	4.66
663.392	4.64
663.803	4.62
664.213	4.59
664.624	4.57
665.035	4.55
665.445	4.53
665.855	4.52
666.266	4.5
666.676	4.49
667.086	4.46
667.497	4.45
667.907	4.44
668.317	4.43
668.727	4.43
669.137	4.42
669.547	4.41
669.956	4.4
670.366	4.39
670.776	4.38
671.186	4.38
671.595	4.38
672.005	4.37
672.414	4.38
672.824	4.38
673.233	4.38
673.642	4.39
674.052	4.4
674.461	4.41
674.87	4.43
675.279	4.45
675.688	4.45
676.097	4.47
676.506	4.49
676.915	4.5
677.323	4.52
677.732	4.52
678.141	4.55
678.549	4.56
678.958	4.57
679.366	4.59
679.775	4.61
680.183	4.65
680.592	4.68
681	4.7
681.408	4.74
681.816	4.77
682.224	4.8
682.632	4.81
683.04	4.81
683.448	4.82
683.856	4.82
684.264	4.85
684.671	4.87
685.079	4.89
685.487	4.94
685.894	4.99
686.302	5.06
686.709	5.16
687.116	5.28
687.524	5.45
687.931	5.62
688.338	5.81
688.745	6.01
689.152	6.22
689.559	6.47
689.966	6.71
690.373	6.97
690.78	7.24
691.187	7.52
691.593	7.83
692	8.14
692.407	8.46
692.813	8.8
693.22	9.14
693.626	9.51
694.032	9.88
694.439	10.26
694.845	10.66
695.251	11.05
695.657	11.44
696.063	11.85
696.469	12.26
696.875	12.68
697.281	13.09
697.687	13.53
698.093	13.93
698.498	14.34
698.904	14.77
699.31	15.2
699.715	15.64
700.12	16.1
700.526	16.55
700.931	17
701.337	17.45
701.742	17.9
702.147	18.33
702.552	18.79
702.957	19.24
703.362	19.67
703.767	20.09
704.172	20.53
704.577	20.93
704.981	21.36
705.386	21.77
705.791	22.17
706.195	22.57
706.6	23
707.004	23.4
707.408	23.8
707.813	24.21
708.217	24.61
708.621	25.01
709.025	25.42
709.43	25.81
709.834	26.21
710.237	26.6
710.641	27
711.045	27.38
711.449	27.75
711.853	28.14
712.256	28.49
712.66	28.81
713.064	29.1
713.467	29.37
713.87	29.61
714.274	29.82
714.677	30.03
715.08	30.22
715.484	30.41
715.887	30.64
716.29	30.83
716.693	31.09
717.096	31.4
717.499	31.74
717.901	32.1
718.304	32.48
718.707	32.9
719.109	33.29
719.512	33.7
719.915	34.06
720.317	34.36
720.719	34.64
721.122	34.92
721.524	35.17
721.926	35.41
722.328	35.62
722.731	35.84
723.133	36.03
723.535	36.26
723.937	36.46
724.338	36.66
724.74	36.91
725.142	37.29
725.544	37.5
725.945	37.76
726.347	37.94
726.748	38.14
727.15	38.33
727.551	38.54
727.952	38.74
728.354	38.98
728.755	39.21
729.156	39.44
729.557	39.54
729.958	39.78
730.359	39.98
730.76	40.23
731.161	40.44
731.562	40.64
731.962	40.8
732.363	40.97
732.763	41.13
733.164	41.25
733.564	41.4
733.965	41.5
734.365	41.6
734.766	41.66
735.166	41.73
735.566	41.82
735.966	41.92
736.366	41.99
736.766	42.03
737.166	42.05
737.566	42.12
737.966	42.14
738.365	42.19
738.765	42.25
739.165	42.33
739.564	42.39
739.964	42.44
740.363	42.47
740.763	42.55
741.162	42.65
741.561	42.73
741.96	42.78
742.36	42.83
742.759	42.9
743.158	42.95
743.557	42.98
743.955	43.02
744.354	43.03
744.753	43.07
745.152	43.1
745.55	43.1
745.949	43.08
746.348	43.09
746.746	43.07
747.144	43.05
747.543	43.03
747.941	42.99
748.339	42.93
748.737	42.91
749.136	42.88
749.534	42.83
749.932	42.82
750.33	42.82
750.727	42.8
751.125	42.8
751.523	42.78
751.921	42.78
752.318	42.77
752.716	42.77
753.113	42.76
753.511	42.75
753.908	42.75
754.305	42.71
754.703	42.57
755.1	42.33
755.497	41.84
755.894	41.17
756.291	40.34
756.688	39.44
757.085	38.56
757.482	37.76
757.878	37.03
758.275	36.28
758.672	35.53
759.068	34.88
759.465	34.33
759.861	34.07
760.258	34.06
760.654	34.25
761.05	34.59
761.447	34.95
761.843	35.31
762.239	35.62
762.635	36
763.031	36.48
763.427	36.99
763.822	37.55
764.218	38.12
764.614	38.64
765.01	39.09
765.405	39.54
765.801	39.92
766.196	40.26
766.592	40.55
766.987	40.79
767.382	40.96
767.778	41.09
768.173	41.21
768.568	41.25
768.963	41.27
769.358	41.33
769.753	41.33
770.148	41.33
770.542	41.31
770.937	41.28
771.332	41.26
771.726	41.23
772.121	41.23
772.515	41.2
772.91	41.17
773.304	41.17
773.699	41.11
774.093	41.04
774.487	41.01
774.881	40.97
775.275	40.96
775.669	40.91
776.063	40.86
776.457	40.78
776.851	40.71
777.245	40.66
777.638	40.61
778.032	40.6
778.425	40.6
778.819	40.56
779.212	40.52
779.606	40.48
779.999	40.44
780.392	40.41
780.786	40.36
781.179	40.32
781.572	40.28
781.965	40.24
782.358	40.18
782.751	40.13
783.143	40.07
783.536	40.01
783.929	39.94
784.322	39.92
784.714	39.87
785.107	39.83
785.499	39.78
785.891	39.72
786.284	39.66
786.676	39.56
787.068	39.49
787.46	39.42
787.852	39.34
788.245	39.25
788.636	39.14
789.028	39.05
789.42	38.94
789.812	38.85
790.204	38.79
790.595	38.71
790.987	38.68
791.378	38.6
791.77	38.53
792.161	38.48
792.553	38.41
792.944	38.37
793.335	38.33
793.726	38.32
794.117	38.29
794.508	38.22
794.899	38.18
795.29	38.12
795.681	38.06
796.072	38.02
796.463	37.97
796.853	37.94
797.244	37.89
797.634	37.82
798.025	37.75
798.415	37.67
798.806	37.6
799.196	37.53
799.586	37.49
799.976	37.41
800.366	37.35
800.756	37.25
801.146	37.17
801.536	37.1
801.926	37.05
802.316	36.97
802.706	36.91
803.095	36.85
803.485	36.79
803.874	36.69
804.264	36.63
804.653	36.57
805.043	36.49
805.432	36.4
805.821	36.33
806.21	36.25
806.599	36.17
806.988	36.1
807.377	36.01
807.766	35.93
808.155	35.85
808.544	35.76
808.933	35.66
809.321	35.58
809.71	35.48
810.098	35.37
810.487	35.21
810.875	35.1
811.264	34.96
811.652	34.87
812.04	34.71
812.428	34.56
812.816	34.42
813.204	34.27
813.592	34.15
813.98	34.03
814.368	33.92
814.756	33.82
815.144	33.72
815.531	33.63
815.919	33.53
816.306	33.46
816.694	33.42
817.081	33.39
817.469	33.38
817.856	33.31
818.243	33.25
818.63	33.15
819.017	33.09
819.404	33.01
819.791	32.96
820.178	32.9
820.565	32.84
820.952	32.8
821.339	32.74
821.725	32.69
822.112	32.67
822.498	32.67
822.885	32.69
823.271	32.67
823.657	32.63
824.044	32.61
824.43	32.58
824.816	32.54
825.202	32.46
825.588	32.41
825.974	32.32
826.36	32.26
826.746	32.2
827.132	32.12
827.517	32.09
827.903	32.09
828.289	32.06
828.674	32.01
829.06	31.94
829.445	31.91
829.83	31.87
830.216	31.82
830.601	31.79
830.986	31.78
831.371	31.74
831.756	31.72
832.141	31.68
832.526	31.64
832.911	31.63
833.295	31.62
833.68	31.63
834.065	31.61
834.449	31.62
834.834	31.6
835.218	31.55
835.603	31.53
835.987	31.5
836.371	31.48
836.755	31.46
837.139	31.42
837.524	31.41
837.908	31.37
838.291	31.36
838.675	31.31
839.059	31.29
839.443	31.27
839.827	31.25
840.21	31.23
840.594	31.22
840.977	31.19
841.361	31.17
841.744	31.11
842.127	31.08
842.511	31.06
842.894	31.04
843.277	31.01
843.66	30.98
844.043	30.98
844.426	30.95
844.809	30.92
845.191	30.9
845.574	30.88
845.957	30.88
846.339	30.86
846.722	30.84
847.104	30.84
847.487	30.81
847.869	30.78
848.252	30.73
848.634	30.72
849.016	30.69
849.398	30.66
849.78	30.62
850.162	30.56
850.544	30.52
850.926	30.48
851.307	30.43
851.689	30.42
852.071	30.4
852.452	30.38
852.834	30.36
853.215	30.34
853.597	30.34
853.978	30.34
854.359	30.36
854.741	30.36
855.122	30.35
855.503	30.33
855.884	30.31
856.265	30.3
856.646	30.3
857.026	30.3
857.407	30.29
857.788	30.26
858.169	30.26
858.549	30.25
858.93	30.23
859.31	30.23
859.69	30.24
860.071	30.26
860.451	30.24
860.831	30.21
861.211	30.16
861.591	30.13
861.971	30.09
862.351	30.06
862.731	30.03
863.111	29.98
863.491	29.94
863.87	29.89
864.25	29.82
864.629	29.81
865.009	29.81
865.388	29.8
865.768	29.78
866.147	29.78
866.526	29.78
866.905	29.77
867.284	29.78
867.663	29.78
868.042	29.8
868.421	29.82
868.8	29.82
869.179	29.8
869.558	29.8
869.936	29.79
870.315	29.79
870.693	29.79
871.072	29.79
871.45	29.77
871.828	29.77
872.207	29.77
872.585	29.77
872.963	29.75
873.341	29.74
873.719	29.75
874.097	29.75
874.475	29.75
874.853	29.73
875.23	29.72
875.608	29.72
875.986	29.72
876.363	29.69
876.741	29.7
877.118	29.67
877.495	29.68
877.873	29.67
878.25	29.65
878.627	29.64
879.004	29.63
879.381	29.64
879.758	29.61
880.135	29.59
880.512	29.59
880.889	29.56
881.265	29.55
881.642	29.52
882.019	29.51
882.395	29.5
882.772	29.5
883.148	29.48
883.524	29.45
883.901	29.45
884.277	29.44
884.653	29.41
885.029	29.38
885.405	29.39
885.781	29.4
886.157	29.39
886.532	29.38
886.908	29.35
887.284	29.33
887.659	29.32
888.035	29.31
888.411	29.3
888.786	29.3
889.161	29.32
889.537	29.29
889.912	29.27
890.287	29.26
890.662	29.25
891.037	29.25
891.412	29.24
891.787	29.21
892.162	29.2
892.536	29.18
892.911	29.15
893.286	29.13
893.66	29.11
894.035	29.1
894.409	29.08
894.784	29.05
895.158	29.01
895.532	29.02
895.906	29
896.281	28.97
896.655	28.95
897.029	28.96
897.402	28.92
897.776	28.93
898.15	28.91
898.524	28.92
898.898	28.92
899.271	28.92
899.645	28.91
900.018	28.92
900.392	28.92
900.765	28.94
901.138	28.93
901.511	28.95
901.884	28.97
902.258	28.97
902.631	28.95
903.003	28.96
903.376	28.97
903.749	28.96
904.122	28.95
904.495	28.95
904.867	28.94
905.24	28.93
905.612	28.9
905.985	28.87
906.357	28.86
906.729	28.87
907.102	28.83
907.474	28.82
907.846	28.81
908.218	28.81
908.59	28.81
908.962	28.79
909.334	28.79
909.705	28.8
910.077	28.8
910.449	28.8
910.82	28.77
911.192	28.8
911.563	28.79
911.935	28.79
912.306	28.77
912.677	28.76
913.048	28.8
913.419	28.78
913.79	28.76
914.161	28.77
914.532	28.76
914.903	28.76
915.274	28.77
915.645	28.77
916.015	28.77
916.386	28.77
916.756	28.76
917.127	28.73
917.497	28.75
917.868	28.77
918.238	28.76
918.608	28.78
918.978	28.77
919.348	28.76
919.718	28.78
920.088	28.79
920.458	28.8
920.828	28.79
921.198	28.77
921.567	28.78
921.937	28.76
922.306	28.75
922.676	28.74
923.045	28.75
923.415	28.73
923.784	28.71
924.153	28.72
924.522	28.72
924.891	28.72
925.26	28.73
925.629	28.71
925.998	28.71
926.367	28.69
926.736	28.67
927.104	28.62
927.473	28.57
927.842	28.53
928.21	28.5
928.578	28.45
928.947	28.44
929.315	28.39
929.683	28.36
930.051	28.31
930.42	28.27
930.788	28.21
931.156	28.18
931.523	28.18
931.891	28.22
932.259	28.23
932.627	28.22
932.994	28.21
933.362	28.2
933.729	28.19
934.097	28.2
934.464	28.23
934.831	28.27
935.199	28.31
935.566	28.31
935.933	28.23
936.3	28.22
936.667	28.2
937.034	28.24
937.401	28.26
937.767	28.25
938.134	28.27
938.501	28.26
938.867	28.31
939.234	28.28
939.6	28.31
939.967	28.37
940.333	28.3
940.699	28.34
941.065	28.27
941.431	28.3
941.798	28.33
942.163	28.3
942.529	28.29
942.895	28.22
943.261	28.22
943.627	28.16
943.992	28.16
944.358	28.22
944.723	28.24
945.089	28.21
945.454	28.16
945.82	28.14
946.185	28.13
946.55	28.07
946.915	28.06
947.28	28.04
947.645	28.07
948.01	28.06
948.375	28.01
948.74	27.93
949.104	27.94
949.469	27.93
949.834	27.9
950.198	27.88
950.562	27.87
950.927	27.86
951.291	27.82
951.655	27.79
952.02	27.74
952.384	27.68
952.748	27.7
953.112	27.67
953.476	27.65
953.839	27.62
954.203	27.59
954.567	27.61
954.931	27.56
955.294	27.55
955.658	27.56
956.021	27.59
956.385	27.59
956.748	27.54
957.111	27.52
957.474	27.55
957.837	27.51
958.2	27.51
958.563	27.49
958.926	27.52
959.289	27.57
959.652	27.55
960.015	27.51
960.377	27.52
960.74	27.59
961.102	27.61
961.465	27.65
961.827	27.78
962.189	27.83
962.552	27.87
962.914	27.85
963.276	27.85
963.638	27.86
964	27.9
964.362	27.92
964.724	27.89
965.085	27.87
965.447	27.84
965.809	27.78
966.17	27.75
966.532	27.72
966.893	27.77
967.255	27.75
967.616	27.76
967.977	27.75
968.338	27.71
968.699	27.71
969.061	27.75
969.421	27.74
969.782	27.73
970.143	27.75
970.504	27.78
970.865	27.72
971.225	27.72
971.586	27.68
971.946	27.71
972.307	27.73
972.667	27.67
973.027	27.71
973.388	27.74
973.748	27.73
974.108	27.76
974.468	27.72
974.828	27.78
975.188	27.77
975.548	27.77
975.907	27.75
976.267	27.76
976.627	27.82
976.986	27.75
977.346	27.69
977.705	27.68
978.064	27.65
978.424	27.68
978.783	27.59
979.142	27.59
979.501	27.66
979.86	27.73
980.219	27.75
980.578	27.77
980.937	27.81
981.296	27.82
981.654	27.81
982.013	27.83
982.371	27.81
982.73	27.87
983.088	27.9
983.447	27.86
983.805	27.83
984.163	27.79
984.521	27.77
984.879	27.67
985.237	27.71
985.595	27.81
985.953	27.74
986.311	27.72
986.669	27.73
987.026	27.73
987.384	27.77
987.741	27.74
988.099	27.78
988.456	27.74
988.814	27.8
989.171	27.77
989.528	27.69
989.885	27.77
990.242	27.79
990.599	27.78
990.956	27.81
991.313	27.81
991.67	27.86
992.027	27.96
992.383	27.97
992.74	28.07
993.096	28.14
993.453	28.14
993.809	28.13
994.165	28.2
994.522	28.33
994.878	28.37
995.234	28.34
995.59	28.34
995.946	28.28
996.302	28.38
996.658	28.37
997.013	28.33
997.369	28.33
997.725	28.45
998.08	28.44
998.436	28.32
998.791	28.28
999.147	28.25
999.502	28.26
999.857	28.21
1000.212	28.13
1000.567	28.03
1000.922	28.1
1001.277	28.1
1001.632	27.96
1001.987	27.95
1002.342	27.96
1002.696	27.86
1003.051	27.97
1003.406	28.01
1003.76	28.07
1004.114	28.04
1004.469	28.15
1004.823	28.35
1005.177	28.37
1005.531	28.45
1005.885	28.57
1006.239	28.7
1006.593	28.96
1006.947	28.9
1007.301	28.84
1007.655	28.72
1008.008	28.89
1008.362	28.89
1008.715	28.64
1009.069	28.6
1009.422	28.57
1009.776	28.53
1010.129	28.48
1010.482	28.39
1010.835	28.35
1011.188	28.46
1011.541	28.58
1011.894	28.46
1012.247	28.47
1012.6	28.58
1012.952	28.66
1013.305	28.77
1013.657	28.87
1014.01	28.93
1014.362	28.88
1014.715	29.09
1015.067	29
1015.419	29.15
1015.771	29.2
1016.123	29.34
1016.475	29.28
1016.827	29.29
1017.179	29.23
1017.531	29.11
1017.883	28.99
1018.234	29.2
1018.586	29.23
1018.938	29.51
1019.289	29.5
1019.64	29.63
1019.992	29.38
1020.343	29.43
1020.694	29.6
1021.045	29.66
1021.396	29.76
1021.747	29.89
1022.098	29.6
1022.449	29.48
1022.8	29.4
1023.151	29.37
1023.501	29.47
1023.852	29.57
1024.202	29.5
1024.553	29.24
1024.903	29.45
1025.253	29.38
1025.604	29.23
1025.954	29.21
1026.304	29.18
1026.654	29.24
1027.004	29.2
1027.354	29
1027.703	28.96
1028.053	29.17
1028.403	29.46
1028.753	29.14
1029.102	29.45
1029.452	29.85
1029.801	30.32
1030.15	30.45
1030.499	30.32
897.758	1283.45
901.051	1292.78
904.343	1286.23
907.636	1310.08
910.928	1277.94
914.22	1275.73
917.511	1259.81
920.803	1203.21
924.094	1196.26
927.384	1168.44
930.675	1121.39
933.965	1117.49
937.255	1050.57
940.544	1009.6
943.834	961.13
947.123	952.12
950.411	896.64
953.7	877.75
956.988	832.05
960.276	799.45
963.563	785.01
966.851	759.97
970.138	751.9
973.424	729.16
976.711	733.57
979.997	697.77
983.283	694.06
986.568	679.64
989.853	658.71
993.138	646.76
996.423	621.56
999.708	604.63
1002.992	596.71
1006.275	572.3
1009.559	566.02
1012.842	545.43
1016.125	531.25
1019.408	520.85
1022.69	512.37
1025.972	502.16
1029.254	489.17
1032.536	481.8
1035.817	471.74
1039.098	466.48
1042.379	456.63
1045.659	451.93
1048.939	440.8
1052.219	431.93
1055.498	426.34
1058.778	417.75
1062.057	408.62
1065.335	404.77
1068.614	399.36
1071.892	395.67
1075.17	382.93
1078.447	374.48
1081.724	371.2
1085.001	369.41
1088.278	361.05
1091.554	354.3
1094.83	354.25
1098.106	351.26
1101.382	349.16
1104.657	346.76
1107.932	340.48
1111.206	342.39
1114.481	334.64
1117.755	331.33
1121.029	327.92
1124.302	328.37
1127.575	320.76
1130.848	317.19
1134.121	313.76
1137.393	311.34
1140.665	304.23
1143.937	302.66
1147.208	300.27
1150.48	299.65
1153.75	296.76
1157.021	291.91
1160.291	291.39
1163.561	289.4
1166.831	288.97
1170.101	286.85
1173.37	286.33
1176.639	287.78
1179.907	285.67
1183.176	281.55
1186.444	281.81
1189.711	280.69
1192.979	280.94
1196.246	278.97
1199.513	279.59
1202.78	277.69
1206.046	277.87
1209.312	275.09
1212.578	275.15
1215.843	276.7
1219.108	275.87
1222.373	280.7
1225.638	283.05
1228.902	286.53
1232.166	286.84
1235.43	289.81
1238.693	294.14
1241.956	294.96
1245.219	300.03
1248.482	300.13
1251.744	299.94
1255.006	301.06
1258.268	293.62
1261.529	291.12
1264.79	289.3
1268.051	288.05
1271.312	283.19
1274.572	280.31
1277.832	277.18
1281.092	272.64
1284.351	270.58
1287.61	270.25
1290.869	266.65
1294.128	265.32
1297.386	265.37
1300.644	261.83
1303.902	262.86
1307.159	262.13
1310.416	261.95
1313.673	262.61
1316.93	264.85
1320.186	264.7
1323.442	265.76
1326.697	269.35
1329.953	270.86
1333.208	271.58
1336.463	275.26
1339.717	275.35
1342.972	279.49
1346.226	280.94
1349.479	281.12
1352.733	282.4
1355.986	284.24
1359.238	283.95
1362.491	286.28
1365.743	287.38
1368.995	287.32
1372.247	287.04
1375.498	286.96
1378.749	288.34
1382	285.34
1385.251	286.08
1388.501	284.14
1391.751	284.86
1395	284.09
1398.25	281.8
1401.499	280.03
1404.748	279.59
1407.996	276.45
1411.244	275.07
1414.492	273.35
1417.74	271.11
1420.987	267.24
1424.234	266.7
1427.481	263.14
1430.728	262.77
1433.974	259.45
1437.22	257.76
1440.465	256.92
1443.711	254.86
1446.956	252.89
1450.201	249.62
1453.445	247.59
1456.689	246.72
1459.933	242.2
1463.177	240.46
1466.42	236.33
1469.663	233.75
1472.906	232.47
1476.148	226.91
1479.391	223.93
1482.633	222.28
1485.874	218.74
1489.115	217.05
1492.356	214.58
1495.597	214.82
1498.838	211.43
1502.078	210.26
1505.318	209.48
1508.557	209.2
1511.797	208.87
1515.036	208.03
1518.274	207.32
1521.513	205.68
1524.751	205.18
1527.989	204.47
1531.227	203.35
1534.464	203.57
1537.701	202.02
1540.938	201.62
1544.174	199.07
1547.41	199.14
1550.646	198.06
1553.882	198.11
1557.117	195.86
1560.352	195.14
1563.587	194.66
1566.821	193.19
1570.055	191.85
1573.289	190.4
1576.523	190.34
1579.756	188.78
1582.989	187.25
1586.222	187.3
1589.454	185.3
1592.686	186.77
1595.918	185.72
1599.15	185.24
1602.381	185.94
1605.612	185.34
1608.843	186.39
1612.073	185.58
1615.303	186.93
1618.533	187.51
1621.762	186.86
1624.992	188.15
1628.221	187.68
1631.449	187.69
1634.678	187.07
1637.906	187.68
1641.134	187.97
1644.361	187.52
1647.588	188.14
1650.815	187.34
1654.042	186.57
1657.269	188.21
1660.495	188.17
1663.72	187.69
1666.946	188.18
1670.171	188.9
1673.396	189.18
1676.621	189.1
1679.845	189.46
1683.069	189.2
1686.293	190.75
1689.517	192.18
1692.74	191.66
1695.963	191.78
1699.185	193.75
1702.408	193.84
1705.63	194.72
1708.852	195.11
1712.073	195.22
1715.294	195.64
1718.515	197
1721.736	196.46
1724.956	196.16
1728.176	196.33
1731.396	198.05
1734.616	197.17
1737.835	198.11
1741.054	196.89
1744.272	197.14
1747.491	198.82
1750.709	199.05
1753.927	199.08
1757.144	198.72
1760.361	199.75
1763.578	200.05
1766.795	199.54
1770.011	201.2
1773.227	200.69
1776.443	203.28
1779.658	204.01
1782.874	203.47
1786.089	204.66
1789.303	205.37
1792.518	207.55
1795.732	207.55
1798.945	209.3
1802.159	210.02
1805.372	210.35
1808.585	214.7
1811.797	214.9
1815.01	215.24
1818.222	217.5
1821.434	218.53
1824.645	219.09
1827.856	222.4
1831.067	224.07
1834.278	223.72
1837.488	225.38
1840.698	226.98
1843.908	224.61
1847.117	225.54
1850.326	226.83
1853.535	225.8
1856.744	229.33
1859.952	228.82
1863.16	227.39
1866.368	226.28
1869.575	229.06
1872.782	224.78
1875.989	223.44
1879.196	223.18
1882.402	221.79
1885.608	221.84
1888.814	222.63
1892.019	221
1895.224	220.73
1898.429	220.75
1901.634	221.43
1904.838	221.21
1908.042	223.57
1911.246	224.6
1914.449	225.66
1917.652	225.63
1920.855	226.08
1924.058	225.66
1927.26	225.25
1930.462	225.94
1933.664	227.61
1936.865	226.11
1940.066	225.57
1943.267	224.95
1946.467	224.17
1949.668	225.48
1952.868	228.11
1956.067	227.86
1959.267	228.77
1962.466	229.23
1965.665	228.57
1968.863	229.08
1972.061	231.62
1975.259	234.33
1978.457	235.97
1981.654	237.9
1984.852	238.33
1988.048	238.03
1991.245	239.88
1994.441	242.33
1997.637	244.23
2000.833	248.93
2004.028	252.44
2007.223	254.91
2010.418	256.86
2013.613	261.1
2016.807	264.7
2020.001	266.59
2023.194	270.5
2026.388	277.01
2029.581	283.29
2032.774	285.79
2035.966	290.95
2039.158	291.05
2042.35	296.35
2045.542	298.35
2048.733	302.91
2051.924	307.24
2055.115	313
2058.306	313.68
2061.496	315.99
2064.686	315.93
2067.875	321.45
2071.065	322.85
2074.254	321.2
2077.442	325.31
2080.631	326.43
2083.819	329.95
2087.007	329.59
2090.195	333.9
2093.382	336.52
2096.569	335.16
2099.756	340.55
2102.942	341.58
2106.128	344.61
2109.314	351.75
2112.5	349.95
2115.685	357.28
2118.87	357.53
2122.055	365.72
2125.239	366.93
2128.424	371.19
2131.608	375.13
2134.791	378.77
2137.974	380.47
2141.157	381.95
2144.34	383.97
2147.523	389.67
2150.705	387.72
2153.887	391.48
2157.068	391.52
2160.25	388.54
2163.431	391.41
2166.611	395.24
2169.792	401.98
2172.972	407.3
2176.152	409.16
2179.331	414.36
2182.511	422.2
2185.69	425.55
2188.868	434.04
2192.047	435.77
2195.225	448.75
2198.403	459.19
2201.58	466.43
2204.758	476.64
2207.935	485.29
2211.111	496.07
2214.288	501.61
2217.464	501.12
2220.64	512.68
2223.815	519.72
2226.991	540.25
2230.166	540.52
2233.34	549.88
2236.515	561.3
2239.689	561.19
2242.863	563.54
2246.036	580.14
2249.209	576.96
2252.382	587.15
2255.555	600.8
2258.727	603.13
2261.9	607.67
2265.071	613.71
2268.243	624.48
2271.414	629.04
2274.585	644.1
2277.756	650.97
2280.926	653.05
2284.096	668.37
2287.266	682.41
2290.436	689.17
2293.605	705.03
2296.774	725.34
2299.942	746.98
2303.111	750.13
2306.279	769.02
2309.447	777.7
2312.614	799.37
2315.781	821.02
2318.948	856.77
2322.115	844.92
2325.281	891.45
2328.447	873.04
2331.613	907.4
2334.779	899.04
2337.944	935.5
2341.109	944.63
2344.274	969.7
2347.438	1007.99
2350.602	1006.31
2353.766	1036.2
2356.929	1052.95
2360.092	1045.39
2363.255	1120.93
2366.418	1117.87
2369.58	1137.06
2372.742	1211.29
2375.904	1241.43
2379.066	1236.13
2382.227	1202.58
2385.388	1312.9
2388.548	1307.39
2391.709	1323.31
2394.869	1469.77
2398.029	1410.67
2401.188	1449.92
2404.347	1446.06
2407.506	1422.41
2410.665	1460.84
2413.823	1547.37
2416.981	1644.96
2420.139	1587.26
2423.296	1581.63
2426.453	1643.95
2429.61	1586.03
2432.767	1657.21
2435.923	1640.37
2439.079	1794.56
2442.235	1815.63
2445.391	1800.58
2448.546	1784.42
2451.701	1726.02
2454.855	1722.81
2458.009	1823.88
2461.163	1912.46
2464.317	1972.74
2467.471	2022.77
2470.624	2030.35
2473.777	1969.54
2476.929	1919.84
2480.082	1863.36
2483.234	1845.39
2486.385	1951.47
2489.537	1958.11
2492.688	2031.57
2495.839	1970.89
2498.989	1931.91
2502.14	1944.32
2505.29	1956.9
2508.439	1993.14
2511.589	1987.62
2514.738	2167.75
2517.887	2120.07
2521.035	2232.35
2524.183	2255.25
2527.331	2270.92
2530.479	2257.8
2533.627	2275.88
