Data from N_2_HIR_WI_4N_Splice17_13-33-31-558.txt Node
Date: Sat Mar 07 13:33:31 EST 2020
User: sa697716
Spectrometer: NQ5500242
Trigger mode: 0
Integration Time (sec): 1.450000E-1
Scans to average: 20
Nonlinearity correction enabled: false
Boxcar width: 5
Storing dark spectrum: false
XAxis mode: Wavelengths
Number of Pixels in Spectrum: 512
>>>>>Begin Spectral Data<<<<<
187.83	129.68
188.298	138.59
188.766	116.72
189.233	106.02
189.701	110.85
190.169	143.15
190.636	164.94
191.104	206.24
191.571	141.01
192.039	59.26
192.506	-3.54
192.974	38.39
193.441	62.02
193.908	10.1
194.375	22.62
194.842	-10.33
195.31	34.46
195.777	235.83
196.244	99.22
196.711	90.63
197.177	90.4
197.644	88.99
198.111	87.97
198.578	87.48
199.045	88.32
199.511	88.19
199.978	88.19
200.445	88.52
200.911	88.31
201.378	88.26
201.844	87.95
202.31	87.43
202.777	87.06
203.243	86.84
203.709	86.74
204.176	86
204.642	85.36
205.108	84.86
205.574	84.16
206.04	83.19
206.506	82.15
206.972	81.58
207.438	80.72
207.903	79.83
208.369	78.39
208.835	76.5
209.301	74.52
209.766	72.4
210.232	70.31
210.697	68.08
211.163	66.33
211.628	64.88
212.094	63.17
212.559	61.54
213.024	59.9
213.49	58.5
213.955	57.06
214.42	55.71
214.885	54.05
215.35	51.85
215.815	49.12
216.28	45.58
216.745	41.52
217.21	37.47
217.675	33.8
218.14	30.66
218.604	27.88
219.069	25.65
219.534	23.69
219.998	22.11
220.463	20.77
220.927	19.61
221.392	18.7
221.856	17.97
222.32	17.35
222.785	16.82
223.249	16.32
223.713	15.87
224.177	15.44
224.642	15.06
225.106	14.69
225.57	14.36
226.034	14.06
226.497	13.77
226.961	13.49
227.425	13.23
227.889	12.95
228.353	12.69
228.816	12.43
229.28	12.2
229.744	12
230.207	11.78
230.671	11.57
231.134	11.37
231.597	11.2
232.061	11.03
232.524	10.87
232.987	10.71
233.45	10.58
233.914	10.43
234.377	10.29
234.84	10.15
235.303	10.05
235.766	9.94
236.229	9.82
236.691	9.7
237.154	9.59
237.617	9.49
238.08	9.39
238.542	9.28
239.005	9.2
239.468	9.11
239.93	9.03
240.393	8.95
240.855	8.83
241.317	8.75
241.78	8.67
242.242	8.57
242.704	8.49
243.166	8.41
243.629	8.33
244.091	8.24
244.553	8.14
245.015	8.06
245.477	7.96
245.939	7.89
246.4	7.81
246.862	7.73
247.324	7.66
247.786	7.58
248.247	7.5
248.709	7.42
249.17	7.34
249.632	7.3
250.093	7.24
250.555	7.18
251.016	7.13
251.477	7.08
251.939	7.03
252.4	6.98
252.861	6.93
253.322	6.88
253.783	6.84
254.244	6.8
254.705	6.75
255.166	6.69
255.627	6.64
256.088	6.6
256.549	6.55
257.009	6.49
257.47	6.44
257.931	6.39
258.391	6.34
258.852	6.28
259.312	6.24
259.773	6.19
260.233	6.15
260.694	6.09
261.154	6.04
261.614	6
262.074	5.95
262.534	5.91
262.994	5.87
263.455	5.83
263.915	5.79
264.374	5.75
264.834	5.72
265.294	5.68
265.754	5.66
266.214	5.63
266.673	5.6
267.133	5.58
267.593	5.56
268.052	5.55
268.512	5.53
268.971	5.52
269.431	5.5
269.89	5.48
270.349	5.47
270.809	5.44
271.268	5.42
271.727	5.41
272.186	5.39
272.645	5.38
273.104	5.35
273.563	5.34
274.022	5.32
274.481	5.31
274.94	5.3
275.399	5.27
275.857	5.26
276.316	5.25
276.775	5.23
277.233	5.22
277.692	5.21
278.15	5.2
278.609	5.18
279.067	5.18
279.525	5.16
279.984	5.15
280.442	5.14
280.9	5.13
281.358	5.12
281.816	5.12
282.274	5.1
282.732	5.09
283.19	5.07
283.648	5.06
284.106	5.04
284.564	5.03
285.021	5.02
285.479	5.01
285.937	4.99
286.394	4.98
286.852	4.96
287.309	4.95
287.767	4.93
288.224	4.91
288.682	4.9
289.139	4.87
289.596	4.85
290.053	4.83
290.511	4.8
290.968	4.78
291.425	4.75
291.882	4.73
292.339	4.71
292.796	4.69
293.252	4.67
293.709	4.65
294.166	4.64
294.623	4.62
295.079	4.6
295.536	4.6
295.992	4.58
296.449	4.57
296.905	4.56
297.362	4.55
297.818	4.53
298.274	4.52
298.731	4.51
299.187	4.49
299.643	4.48
300.099	4.48
300.555	4.47
301.011	4.45
301.467	4.45
301.923	4.43
302.379	4.43
302.835	4.42
303.291	4.41
303.746	4.41
304.202	4.4
304.658	4.4
305.113	4.4
305.569	4.39
306.024	4.39
306.479	4.38
306.935	4.38
307.39	4.38
307.845	4.38
308.301	4.38
308.756	4.38
309.211	4.37
309.666	4.38
310.121	4.38
310.576	4.38
311.031	4.39
311.486	4.4
311.94	4.4
312.395	4.4
312.85	4.4
313.305	4.4
313.759	4.41
314.214	4.4
314.668	4.38
315.123	4.37
315.577	4.36
316.032	4.35
316.486	4.33
316.94	4.31
317.394	4.29
317.849	4.27
318.303	4.25
318.757	4.22
319.211	4.21
319.665	4.2
320.119	4.18
320.572	4.17
321.026	4.16
321.48	4.14
321.934	4.13
322.387	4.12
322.841	4.11
323.295	4.1
323.748	4.1
324.202	4.09
324.655	4.08
325.108	4.08
325.562	4.08
326.015	4.07
326.468	4.07
326.921	4.07
327.374	4.07
327.827	4.07
328.28	4.06
328.733	4.06
329.186	4.06
329.639	4.06
330.092	4.06
330.545	4.06
330.997	4.06
331.45	4.06
331.903	4.07
332.355	4.09
332.808	4.09
333.26	4.09
333.713	4.09
334.165	4.09
334.617	4.09
335.069	4.08
335.522	4.08
335.974	4.09
336.426	4.08
336.878	4.07
337.33	4.07
337.782	4.07
338.234	4.07
338.686	4.06
339.137	4.06
339.589	4.05
340.041	4.05
340.493	4.03
340.944	4.02
341.396	4.01
341.847	3.99
342.299	3.97
342.75	3.95
343.201	3.92
343.653	3.9
344.104	3.88
344.555	3.87
345.006	3.85
345.457	3.84
345.908	3.82
346.359	3.81
346.81	3.8
347.261	3.79
347.712	3.79
348.163	3.78
348.613	3.77
349.064	3.78
349.515	3.77
349.965	3.77
350.416	3.76
350.866	3.77
351.317	3.76
351.767	3.75
352.217	3.75
352.668	3.75
353.118	3.75
353.568	3.75
354.018	3.75
354.468	3.75
354.918	3.75
355.368	3.75
355.818	3.74
356.268	3.75
356.718	3.76
357.168	3.75
357.617	3.75
358.067	3.75
358.517	3.76
358.966	3.76
359.416	3.76
359.865	3.75
360.315	3.76
360.764	3.76
361.213	3.74
361.663	3.73
362.112	3.74
362.561	3.73
363.01	3.72
363.459	3.7
363.908	3.69
364.357	3.69
364.806	3.68
365.255	3.69
365.703	3.69
366.152	3.69
366.601	3.69
367.05	3.69
367.498	3.69
367.947	3.69
368.395	3.7
368.844	3.7
369.292	3.69
369.74	3.69
370.189	3.67
370.637	3.67
371.085	3.66
371.533	3.65
371.981	3.65
372.429	3.64
372.877	3.63
373.325	3.62
373.773	3.61
374.221	3.6
374.669	3.59
375.116	3.59
375.564	3.57
376.012	3.57
376.459	3.56
376.907	3.56
377.354	3.56
377.801	3.56
378.249	3.56
378.696	3.55
379.143	3.55
379.591	3.55
380.038	3.55
380.485	3.55
380.932	3.55
381.379	3.55
381.826	3.54
382.273	3.53
382.72	3.51
383.166	3.5
383.613	3.5
384.06	3.48
384.506	3.47
384.953	3.46
385.4	3.45
385.846	3.45
386.292	3.45
386.739	3.44
387.185	3.44
387.631	3.45
388.078	3.44
388.524	3.44
388.97	3.45
389.416	3.46
389.862	3.46
390.308	3.47
390.754	3.48
391.2	3.49
391.645	3.51
392.091	3.52
392.537	3.53
392.983	3.54
393.428	3.55
393.874	3.55
394.319	3.55
394.765	3.55
395.21	3.55
395.655	3.55
396.101	3.56
396.546	3.55
396.991	3.56
397.436	3.57
397.881	3.59
398.326	3.61
398.771	3.63
399.216	3.65
399.661	3.66
400.106	3.69
400.551	3.7
400.995	3.71
401.44	3.73
401.885	3.73
402.329	3.75
402.774	3.76
403.218	3.78
403.663	3.8
404.107	3.83
404.551	3.84
404.995	3.85
405.44	3.86
405.884	3.87
406.328	3.89
406.772	3.91
407.216	3.92
407.66	3.93
408.104	3.93
408.547	3.93
408.991	3.95
409.435	3.96
409.879	3.99
410.322	4.02
410.766	4.05
411.209	4.08
411.653	4.11
412.096	4.13
412.54	4.15
412.983	4.18
413.426	4.23
413.869	4.26
414.312	4.3
414.756	4.32
415.199	4.33
415.642	4.34
416.085	4.35
416.527	4.36
416.97	4.36
417.413	4.37
417.856	4.37
418.298	4.36
418.741	4.36
419.184	4.36
419.626	4.36
420.069	4.38
420.511	4.4
420.953	4.41
421.396	4.44
421.838	4.47
422.28	4.49
422.722	4.52
423.164	4.54
423.606	4.56
424.048	4.58
424.49	4.6
424.932	4.58
425.374	4.56
425.816	4.55
426.258	4.54
426.699	4.54
427.141	4.53
427.582	4.54
428.024	4.54
428.465	4.56
428.907	4.55
429.348	4.55
429.789	4.56
430.231	4.6
430.672	4.63
431.113	4.65
431.554	4.66
431.995	4.69
432.436	4.7
432.877	4.73
433.318	4.75
433.759	4.78
434.2	4.82
434.64	4.86
435.081	4.87
435.522	4.9
435.962	4.92
436.403	4.96
436.843	4.98
437.284	4.99
437.724	5
438.164	4.99
438.604	5.01
439.045	5.01
439.485	5.01
439.925	5.01
440.365	5.01
440.805	5.01
441.245	5.01
441.685	5.03
442.125	5.05
442.564	5.06
443.004	5.07
443.444	5.09
443.883	5.12
444.323	5.11
444.762	5.13
445.202	5.15
445.641	5.19
446.081	5.21
446.52	5.23
446.959	5.26
447.398	5.28
447.837	5.3
448.276	5.31
448.716	5.32
449.154	5.34
449.593	5.35
450.032	5.36
450.471	5.34
450.91	5.33
451.349	5.34
451.787	5.32
452.226	5.3
452.664	5.29
453.103	5.28
453.541	5.26
453.98	5.26
454.418	5.24
454.856	5.22
455.295	5.22
455.733	5.19
456.171	5.15
456.609	5.15
457.047	5.12
457.485	5.12
457.923	5.12
458.361	5.12
458.798	5.11
459.236	5.11
459.674	5.1
460.111	5.1
460.549	5.12
460.987	5.14
461.424	5.14
461.862	5.15
462.299	5.16
462.736	5.16
463.173	5.16
463.611	5.17
464.048	5.18
464.485	5.2
464.922	5.21
465.359	5.21
465.796	5.23
466.233	5.24
466.67	5.26
467.106	5.26
467.543	5.26
467.98	5.26
468.416	5.25
468.853	5.25
469.29	5.23
469.726	5.22
470.162	5.22
470.599	5.2
471.035	5.18
471.471	5.17
471.907	5.16
472.344	5.16
472.78	5.16
473.216	5.16
473.652	5.16
474.088	5.14
474.523	5.14
474.959	5.14
475.395	5.12
475.831	5.11
476.266	5.1
476.702	5.09
477.138	5.08
477.573	5.07
478.008	5.07
478.444	5.05
478.879	5.05
479.314	5.03
479.75	5.02
480.185	5
480.62	4.98
481.055	4.97
481.49	4.95
481.925	4.94
482.36	4.93
482.795	4.92
483.229	4.9
483.664	4.9
484.099	4.89
484.534	4.89
484.968	4.91
485.403	4.9
485.837	4.92
486.271	4.94
486.706	4.95
487.14	4.95
487.574	4.97
488.009	4.99
488.443	5.01
488.877	5.04
489.311	5.06
489.745	5.08
490.179	5.12
490.613	5.15
491.046	5.17
491.48	5.21
491.914	5.26
492.348	5.3
492.781	5.35
493.215	5.4
493.648	5.45
494.082	5.5
494.515	5.55
494.948	5.61
495.382	5.67
495.815	5.74
496.248	5.82
496.681	5.89
497.114	5.96
497.547	6.04
497.98	6.12
498.413	6.2
498.846	6.3
499.279	6.4
499.711	6.49
500.144	6.6
500.577	6.71
501.009	6.82
501.442	6.93
501.874	7.06
502.306	7.2
502.739	7.34
503.171	7.48
503.603	7.63
504.036	7.78
504.468	7.93
504.9	8.08
505.332	8.24
505.764	8.42
506.196	8.59
506.627	8.78
507.059	8.95
507.491	9.13
507.923	9.32
508.354	9.53
508.786	9.75
509.217	9.97
509.649	10.2
510.08	10.43
510.512	10.66
510.943	10.9
511.374	11.13
511.805	11.38
512.237	11.64
512.668	11.89
513.099	12.14
513.53	12.4
513.961	12.66
514.391	12.91
514.822	13.19
515.253	13.45
515.684	13.7
516.114	13.97
516.545	14.24
516.975	14.52
517.406	14.79
517.836	15.06
518.267	15.34
518.697	15.58
519.127	15.84
519.558	16.08
519.988	16.34
520.418	16.6
520.848	16.84
521.278	17.09
521.708	17.49
522.138	17.73
522.567	17.95
522.997	18.17
523.427	18.42
523.857	18.64
524.286	18.84
524.716	19.04
525.145	19.24
525.575	19.43
526.004	19.63
526.433	19.63
526.863	19.8
527.292	19.96
527.721	20.13
528.15	20.25
528.579	20.41
529.008	20.57
529.437	20.7
529.866	20.83
530.295	20.95
530.724	21.08
531.152	21.2
531.581	21.32
532.01	21.43
532.438	21.54
532.867	21.65
533.295	21.73
533.723	21.82
534.152	21.9
534.58	21.98
535.008	22.04
535.436	22.1
535.865	22.15
536.293	22.2
536.721	22.25
537.149	22.3
537.576	22.35
538.004	22.4
538.432	22.43
538.86	22.47
539.287	22.51
539.715	22.56
540.143	22.6
540.57	22.63
540.998	22.65
541.425	22.68
541.852	22.71
542.28	22.75
542.707	22.77
543.134	22.78
543.561	22.83
543.988	22.84
544.415	22.86
544.842	22.88
545.269	22.91
545.696	22.94
546.123	22.96
546.549	22.97
546.976	22.99
547.403	23.01
547.829	23.03
548.256	23.03
548.682	23.06
549.108	23.08
549.535	23.09
549.961	23.09
550.387	23.1
550.813	23.11
551.24	23.11
551.666	23.12
552.092	23.12
552.518	23.12
552.943	23.12
553.369	23.11
553.795	23.09
554.221	23.08
554.646	23.05
555.072	23.02
555.498	22.98
555.923	22.94
556.349	22.86
556.774	22.81
557.199	22.76
557.625	22.69
558.05	22.63
558.475	22.56
558.9	22.5
559.325	22.43
559.75	22.36
560.175	22.28
560.6	22.2
561.025	22.14
561.449	22.06
561.874	21.98
562.299	21.89
562.723	21.78
563.148	21.67
563.572	21.54
563.997	21.43
564.421	21.32
564.846	21.19
565.27	21.07
565.694	20.95
566.118	20.81
566.542	20.68
566.966	20.55
567.39	20.42
567.814	20.29
568.238	20.16
568.662	20.04
569.086	19.91
569.509	19.78
569.933	19.66
570.357	19.52
570.78	19.39
571.204	19.27
571.627	19.15
572.05	19.03
572.474	18.92
572.897	18.8
573.32	18.69
573.743	18.58
574.166	18.49
574.589	18.38
575.012	18.28
575.435	18.18
575.858	18.09
576.281	18
576.704	17.9
577.126	17.8
577.549	17.71
577.972	17.62
578.394	17.53
578.817	17.44
579.239	17.36
579.661	17.28
580.084	17.21
580.506	17.13
580.928	17.06
581.35	17
581.772	16.93
582.194	16.87
582.616	16.82
583.038	16.75
583.46	16.67
583.882	16.6
584.303	16.52
584.725	16.47
585.147	16.41
585.568	16.36
585.99	16.3
586.411	16.24
586.833	16.17
587.254	16.1
587.675	16.04
588.096	15.99
588.518	15.96
588.939	15.92
589.36	15.87
589.781	15.83
590.202	15.79
590.623	15.75
591.043	15.71
591.464	15.69
591.885	15.65
592.305	15.62
592.726	15.6
593.147	15.55
593.567	15.52
593.987	15.48
594.408	15.44
594.828	15.39
595.248	15.36
595.669	15.33
596.089	15.3
596.509	15.27
596.929	15.24
597.349	15.2
597.769	15.18
598.189	15.13
598.608	15.11
599.028	15.08
599.448	15.05
599.867	15.01
600.287	14.96
600.706	14.92
601.126	14.86
601.545	14.82
601.965	14.78
602.384	14.73
602.803	14.69
603.222	14.63
603.641	14.58
604.061	14.52
604.48	14.45
604.898	14.39
605.317	14.33
605.736	14.28
606.155	14.23
606.574	14.15
606.992	14.07
607.411	14.01
607.829	13.91
608.248	13.83
608.666	13.76
609.085	13.68
609.503	13.62
609.921	13.54
610.339	13.46
610.758	13.39
611.176	13.31
611.594	13.24
612.012	13.17
612.43	13.12
612.847	13.06
613.265	12.99
613.683	12.93
614.101	12.86
614.518	12.78
614.936	12.72
615.353	12.64
615.771	12.58
616.188	12.52
616.606	12.46
617.023	12.41
617.44	12.35
617.857	12.29
618.274	12.25
618.691	12.2
619.108	12.16
619.525	12.11
619.942	12.07
620.359	12.03
620.776	12
621.192	11.97
621.609	11.94
622.026	11.91
622.442	11.89
622.859	11.87
623.275	11.85
623.691	11.83
624.108	11.81
624.524	11.79
624.94	11.79
625.356	11.77
625.772	11.76
626.188	11.75
626.604	11.75
627.02	11.74
627.436	11.73
627.852	11.72
628.268	11.71
628.683	11.71
629.099	11.71
629.514	11.69
629.93	11.68
630.345	11.66
630.761	11.63
631.176	11.61
631.591	11.57
632.007	11.54
632.422	11.5
632.837	11.46
633.252	11.41
633.667	11.35
634.082	11.29
634.497	11.24
634.911	11.17
635.326	11.09
635.741	11.02
636.155	10.94
636.57	10.85
636.984	10.77
637.399	10.68
637.813	10.58
638.228	10.48
638.642	10.38
639.056	10.26
639.47	10.16
639.884	10.07
640.298	9.95
640.712	9.85
641.126	9.73
641.54	9.62
641.954	9.5
642.368	9.4
642.781	9.3
643.195	9.19
643.609	9.09
644.022	8.98
644.436	8.88
644.849	8.78
645.262	8.69
645.676	8.61
646.089	8.52
646.502	8.44
646.915	8.36
647.328	8.3
647.741	8.23
648.154	8.17
648.567	8.12
648.98	8.06
649.393	8.02
649.805	7.97
650.218	7.93
650.631	7.89
651.043	7.85
651.456	7.8
651.868	7.75
652.28	7.71
652.693	7.67
653.105	7.62
653.517	7.56
653.929	7.51
654.341	7.44
654.753	7.38
655.165	7.31
655.577	7.25
655.989	7.18
656.401	7.12
656.813	7.05
657.224	6.97
657.636	6.87
658.047	6.8
658.459	6.71
658.87	6.63
659.282	6.53
659.693	6.45
660.104	6.35
660.515	6.27
660.926	6.18
661.338	6.09
661.749	6
662.159	5.92
662.57	5.85
662.981	5.79
663.392	5.72
663.803	5.67
664.213	5.6
664.624	5.53
665.035	5.47
665.445	5.43
665.855	5.38
666.266	5.34
666.676	5.31
667.086	5.26
667.497	5.23
667.907	5.2
668.317	5.17
668.727	5.15
669.137	5.13
669.547	5.12
669.956	5.1
670.366	5.09
670.776	5.08
671.186	5.08
671.595	5.07
672.005	5.05
672.414	5.05
672.824	5.06
673.233	5.05
673.642	5.06
674.052	5.06
674.461	5.08
674.87	5.08
675.279	5.11
675.688	5.12
676.097	5.15
676.506	5.17
676.915	5.2
677.323	5.22
677.732	5.24
678.141	5.28
678.549	5.31
678.958	5.34
679.366	5.4
679.775	5.45
680.183	5.52
680.592	5.6
681	5.69
681.408	5.77
681.816	5.87
682.224	5.99
682.632	6.13
683.04	6.26
683.448	6.42
683.856	6.57
684.264	6.76
684.671	6.96
685.079	7.17
685.487	7.4
685.894	7.67
686.302	7.95
686.709	8.24
687.116	8.57
687.524	8.91
687.931	9.29
688.338	9.68
688.745	10.07
689.152	10.48
689.559	10.93
689.966	11.4
690.373	11.86
690.78	12.34
691.187	12.83
691.593	13.33
692	13.84
692.407	14.33
692.813	14.85
693.22	15.36
693.626	15.9
694.032	16.41
694.439	16.92
694.845	17.44
695.251	17.97
695.657	18.48
696.063	18.99
696.469	19.48
696.875	19.99
697.281	20.47
697.687	20.97
698.093	21.43
698.498	21.89
698.904	22.34
699.31	22.79
699.715	23.21
700.12	23.64
700.526	24.06
700.931	24.5
701.337	24.9
701.742	25.29
702.147	25.67
702.552	26.06
702.957	26.42
703.362	26.79
703.767	27.14
704.172	27.49
704.577	27.83
704.981	28.18
705.386	28.5
705.791	28.81
706.195	29.13
706.6	29.45
707.004	29.75
707.408	30.05
707.813	30.36
708.217	30.65
708.621	30.93
709.025	31.21
709.43	31.46
709.834	31.72
710.237	31.98
710.641	32.23
711.045	32.47
711.449	32.73
711.853	32.99
712.256	33.21
712.66	33.43
713.064	33.65
713.467	33.88
713.87	34.11
714.274	34.32
714.677	34.55
715.08	34.76
715.484	34.98
715.887	35.19
716.29	35.38
716.693	35.59
717.096	35.8
717.499	36
717.901	36.2
718.304	36.37
718.707	36.55
719.109	36.72
719.512	36.88
719.915	37.03
720.317	37.17
720.719	37.3
721.122	37.42
721.524	37.55
721.926	37.69
722.328	37.82
722.731	37.94
723.133	38.09
723.535	38.21
723.937	38.34
724.338	38.44
724.74	38.54
725.142	38.75
725.544	38.85
725.945	38.99
726.347	39.06
726.748	39.15
727.15	39.24
727.551	39.29
727.952	39.37
728.354	39.45
728.755	39.53
729.156	39.62
729.557	39.61
729.958	39.68
730.359	39.72
730.76	39.79
731.161	39.84
731.562	39.91
731.962	39.97
732.363	40.03
732.763	40.08
733.164	40.12
733.564	40.17
733.965	40.2
734.365	40.26
734.766	40.32
735.166	40.37
735.566	40.42
735.966	40.47
736.366	40.51
736.766	40.54
737.166	40.57
737.566	40.61
737.966	40.64
738.365	40.66
738.765	40.7
739.165	40.72
739.564	40.75
739.964	40.78
740.363	40.77
740.763	40.81
741.162	40.84
741.561	40.87
741.96	40.9
742.36	40.93
742.759	40.98
743.158	40.99
743.557	41.01
743.955	41.02
744.354	41.03
744.753	41.07
745.152	41.09
745.55	41.1
745.949	41.11
746.348	41.1
746.746	41.12
747.144	41.12
747.543	41.16
747.941	41.15
748.339	41.14
748.737	41.14
749.136	41.13
749.534	41.11
749.932	41.1
750.33	41.1
750.727	41.12
751.125	41.1
751.523	41.06
751.921	41.04
752.318	41.04
752.716	41.05
753.113	41.07
753.511	41.06
753.908	41.08
754.305	41.1
754.703	41.08
755.1	41.08
755.497	41.09
755.894	41.11
756.291	41.11
756.688	41.09
757.085	41.1
757.482	41.1
757.878	41.12
758.275	41.1
758.672	41.1
759.068	41.12
759.465	41.11
759.861	41.13
760.258	41.14
760.654	41.16
761.05	41.21
761.447	41.2
761.843	41.21
762.239	41.23
762.635	41.26
763.031	41.27
763.427	41.26
763.822	41.29
764.218	41.28
764.614	41.29
765.01	41.28
765.405	41.26
765.801	41.27
766.196	41.26
766.592	41.23
766.987	41.22
767.382	41.21
767.778	41.23
768.173	41.22
768.568	41.19
768.963	41.2
769.358	41.22
769.753	41.21
770.148	41.23
770.542	41.22
770.937	41.25
771.332	41.26
771.726	41.26
772.121	41.25
772.515	41.24
772.91	41.25
773.304	41.25
773.699	41.25
774.093	41.23
774.487	41.24
774.881	41.27
775.275	41.24
775.669	41.22
776.063	41.24
776.457	41.25
776.851	41.25
777.245	41.25
777.638	41.25
778.032	41.26
778.425	41.3
778.819	41.29
779.212	41.28
779.606	41.31
779.999	41.31
780.392	41.33
780.786	41.33
781.179	41.33
781.572	41.37
781.965	41.37
782.358	41.36
782.751	41.35
783.143	41.36
783.536	41.36
783.929	41.35
784.322	41.38
784.714	41.36
785.107	41.38
785.499	41.4
785.891	41.38
786.284	41.4
786.676	41.42
787.068	41.42
787.46	41.42
787.852	41.41
788.245	41.44
788.636	41.41
789.028	41.4
789.42	41.38
789.812	41.39
790.204	41.39
790.595	41.38
790.987	41.37
791.378	41.37
791.77	41.38
792.161	41.37
792.553	41.35
792.944	41.36
793.335	41.4
793.726	41.4
794.117	41.37
794.508	41.34
794.899	41.36
795.29	41.35
795.681	41.36
796.072	41.37
796.463	41.41
796.853	41.4
797.244	41.39
797.634	41.36
798.025	41.39
798.415	41.41
798.806	41.42
799.196	41.42
799.586	41.43
799.976	41.43
800.366	41.44
800.756	41.43
801.146	41.43
801.536	41.45
801.926	41.45
802.316	41.41
802.706	41.43
803.095	41.43
803.485	41.4
803.874	41.39
804.264	41.39
804.653	41.39
805.043	41.38
805.432	41.39
805.821	41.4
806.21	41.42
806.599	41.47
806.988	41.45
807.377	41.45
807.766	41.47
808.155	41.45
808.544	41.43
808.933	41.41
809.321	41.42
809.71	41.41
810.098	41.4
810.487	41.37
810.875	41.32
811.264	41.32
811.652	41.34
812.04	41.34
812.428	41.37
812.816	41.39
813.204	41.39
813.592	41.36
813.98	41.37
814.368	41.37
814.756	41.37
815.144	41.38
815.531	41.37
815.919	41.35
816.306	41.34
816.694	41.31
817.081	41.31
817.469	41.3
817.856	41.3
818.243	41.28
818.63	41.27
819.017	41.26
819.404	41.25
819.791	41.26
820.178	41.27
820.565	41.26
820.952	41.27
821.339	41.25
821.725	41.26
822.112	41.27
822.498	41.28
822.885	41.28
823.271	41.28
823.657	41.27
824.044	41.24
824.43	41.23
824.816	41.25
825.202	41.21
825.588	41.22
825.974	41.21
826.36	41.18
826.746	41.16
827.132	41.13
827.517	41.13
827.903	41.13
828.289	41.17
828.674	41.16
829.06	41.13
829.445	41.13
829.83	41.12
830.216	41.09
830.601	41.09
830.986	41.1
831.371	41.11
831.756	41.11
832.141	41.12
832.526	41.1
832.911	41.08
833.295	41.09
833.68	41.1
834.065	41.09
834.449	41.09
834.834	41.07
835.218	41.07
835.603	41.06
835.987	41.05
836.371	41.03
836.755	41.01
837.139	41
837.524	41
837.908	41.01
838.291	41.03
838.675	41.03
839.059	41.04
839.443	41.02
839.827	41.01
840.21	41.01
840.594	41
840.977	40.99
841.361	41.02
841.744	40.99
842.127	40.95
842.511	40.91
842.894	40.88
843.277	40.88
843.66	40.88
844.043	40.9
844.426	40.88
844.809	40.9
845.191	40.91
845.574	40.9
845.957	40.91
846.339	40.93
846.722	40.96
847.104	40.98
847.487	40.95
847.869	40.94
848.252	40.94
848.634	40.95
849.016	40.94
849.398	40.94
849.78	40.94
850.162	40.94
850.544	40.94
850.926	40.94
851.307	40.94
851.689	40.97
852.071	40.98
852.452	40.96
852.834	40.95
853.215	40.95
853.597	40.96
853.978	40.96
854.359	40.95
854.741	40.95
855.122	40.92
855.503	40.9
855.884	40.87
856.265	40.86
856.646	40.87
857.026	40.87
857.407	40.88
857.788	40.85
858.169	40.85
858.549	40.84
858.93	40.84
859.31	40.86
859.69	40.9
860.071	40.91
860.451	40.92
860.831	40.91
861.211	40.9
861.591	40.88
861.971	40.9
862.351	40.92
862.731	40.94
863.111	40.92
863.491	40.92
863.87	40.9
864.25	40.87
864.629	40.88
865.009	40.88
865.388	40.88
865.768	40.89
866.147	40.87
866.526	40.86
866.905	40.84
867.284	40.85
867.663	40.85
868.042	40.86
868.421	40.92
868.8	40.91
869.179	40.92
869.558	40.93
869.936	40.92
870.315	40.93
870.693	40.95
871.072	40.98
871.45	40.99
871.828	41
872.207	41
872.585	40.96
872.963	41
873.341	40.98
873.719	40.97
874.097	41
874.475	41
874.853	40.99
875.23	41.01
875.608	41.01
875.986	41.02
876.363	41.02
876.741	41.03
877.118	41.02
877.495	41.05
877.873	41.07
878.25	41.09
878.627	41.09
879.004	41.11
879.381	41.09
879.758	41.06
880.135	41.04
880.512	41.05
880.889	41.05
881.265	41.02
881.642	41.01
882.019	40.99
882.395	40.96
882.772	40.96
883.148	40.91
883.524	40.88
883.901	40.9
884.277	40.88
884.653	40.86
885.029	40.83
885.405	40.82
885.781	40.8
886.157	40.79
886.532	40.78
886.908	40.74
887.284	40.76
887.659	40.75
888.035	40.73
888.411	40.73
888.786	40.73
889.161	40.74
889.537	40.74
889.912	40.75
890.287	40.74
890.662	40.75
891.037	40.75
891.412	40.73
891.787	40.71
892.162	40.71
892.536	40.7
892.911	40.67
893.286	40.66
893.66	40.65
894.035	40.64
894.409	40.63
894.784	40.63
895.158	40.62
895.532	40.63
895.906	40.63
896.281	40.62
896.655	40.63
897.029	40.66
897.402	40.64
897.776	40.65
898.15	40.66
898.524	40.67
898.898	40.66
899.271	40.67
899.645	40.7
900.018	40.73
900.392	40.77
900.765	40.78
901.138	40.79
901.511	40.81
901.884	40.8
902.258	40.81
902.631	40.81
903.003	40.85
903.376	40.87
903.749	40.87
904.122	40.87
904.495	40.85
904.867	40.86
905.24	40.88
905.612	40.89
905.985	40.91
906.357	40.94
906.729	40.96
907.102	40.96
907.474	40.99
907.846	40.99
908.218	40.99
908.59	40.99
908.962	40.99
909.334	41.01
909.705	41.02
910.077	41.02
910.449	41
910.82	41
911.192	41.01
911.563	40.97
911.935	40.99
912.306	40.99
912.677	41
913.048	41
913.419	40.99
913.79	40.97
914.161	40.97
914.532	40.97
914.903	40.97
915.274	40.96
915.645	40.99
916.015	40.99
916.386	41
916.756	41
917.127	41.01
917.497	41
917.868	41.01
918.238	41.04
918.608	41.07
918.978	41.06
919.348	41.09
919.718	41.1
920.088	41.11
920.458	41.09
920.828	41.08
921.198	41.07
921.567	41.09
921.937	41.12
922.306	41.07
922.676	41.08
923.045	41.08
923.415	41.06
923.784	41.04
924.153	41.07
924.522	41.11
924.891	41.1
925.26	41.16
925.629	41.15
925.998	41.13
926.367	41.18
926.736	41.17
927.104	41.19
927.473	41.21
927.842	41.2
928.21	41.17
928.578	41.17
928.947	41.21
929.315	41.18
929.683	41.21
930.051	41.22
930.42	41.21
930.788	41.21
931.156	41.24
931.523	41.24
931.891	41.25
932.259	41.28
932.627	41.3
932.994	41.3
933.362	41.31
933.729	41.34
934.097	41.38
934.464	41.44
934.831	41.46
935.199	41.48
935.566	41.52
935.933	41.53
936.3	41.56
936.667	41.58
937.034	41.66
937.401	41.71
937.767	41.73
938.134	41.79
938.501	41.82
938.867	41.88
939.234	41.92
939.6	41.93
939.967	42
940.333	42.06
940.699	42.11
941.065	42.08
941.431	42.09
941.798	42.06
942.163	42.06
942.529	42.05
942.895	42.02
943.261	42.01
943.627	42.02
943.992	42.05
944.358	42.03
944.723	41.97
945.089	41.93
945.454	41.98
945.82	41.96
946.185	41.97
946.55	41.93
946.915	41.93
947.28	41.91
947.645	41.88
948.01	41.84
948.375	41.8
948.74	41.78
949.104	41.8
949.469	41.74
949.834	41.68
950.198	41.69
950.562	41.67
950.927	41.64
951.291	41.58
951.655	41.5
952.02	41.49
952.384	41.42
952.748	41.38
953.112	41.34
953.476	41.26
953.839	41.23
954.203	41.16
954.567	41.07
954.931	41.05
955.294	41.05
955.658	41.08
956.021	41.04
956.385	41.04
956.748	41.01
957.111	40.93
957.474	40.96
957.837	40.96
958.2	40.93
958.563	40.91
958.926	40.9
959.289	40.91
959.652	40.88
960.015	40.85
960.377	40.83
960.74	40.85
961.102	40.93
961.465	40.91
961.827	40.99
962.189	41.02
962.552	41.06
962.914	41.08
963.276	41.11
963.638	41.12
964	41.14
964.362	41.16
964.724	41.17
965.085	41.13
965.447	41.16
965.809	41.08
966.17	41.04
966.532	41.05
966.893	41.01
967.255	40.96
967.616	40.93
967.977	40.97
968.338	40.92
968.699	40.95
969.061	40.96
969.421	40.98
969.782	41.03
970.143	41.08
970.504	41.14
970.865	41.15
971.225	41.17
971.586	41.17
971.946	41.16
972.307	41.23
972.667	41.21
973.027	41.23
973.388	41.24
973.748	41.26
974.108	41.33
974.468	41.27
974.828	41.35
975.188	41.33
975.548	41.38
975.907	41.38
976.267	41.32
976.627	41.32
976.986	41.28
977.346	41.22
977.705	41.27
978.064	41.28
978.424	41.32
978.783	41.23
979.142	41.24
979.501	41.28
979.86	41.31
980.219	41.32
980.578	41.34
980.937	41.42
981.296	41.5
981.654	41.46
982.013	41.46
982.371	41.45
982.73	41.57
983.088	41.59
983.447	41.58
983.805	41.63
984.163	41.7
984.521	41.75
984.879	41.68
985.237	41.68
985.595	41.71
985.953	41.74
986.311	41.71
986.669	41.74
987.026	41.81
987.384	41.93
987.741	41.94
988.099	42.01
988.456	42
988.814	42.11
989.171	42.12
989.528	42.17
989.885	42.19
990.242	42.29
990.599	42.34
990.956	42.33
991.313	42.29
991.67	42.32
992.027	42.45
992.383	42.5
992.74	42.67
993.096	42.75
993.453	42.76
993.809	42.77
994.165	42.76
994.522	42.76
994.878	42.9
995.234	42.92
995.59	42.93
995.946	42.84
996.302	42.9
996.658	42.85
997.013	42.85
997.369	42.92
997.725	42.94
998.08	43.13
998.436	43.22
998.791	43.26
999.147	43.31
999.502	43.47
999.857	43.5
1000.212	43.5
1000.567	43.52
1000.922	43.58
1001.277	43.53
1001.632	43.52
1001.987	43.54
1002.342	43.53
1002.696	43.58
1003.051	43.67
1003.406	43.74
1003.76	43.86
1004.114	43.96
1004.469	44.11
1004.823	44.38
1005.177	44.57
1005.531	44.82
1005.885	44.82
1006.239	44.89
1006.593	45.05
1006.947	45.22
1007.301	45.19
1007.655	45.23
1008.008	45.37
1008.362	45.43
1008.715	45.23
1009.069	45.41
1009.422	45.56
1009.776	45.73
1010.129	45.83
1010.482	45.78
1010.835	45.73
1011.188	45.9
1011.541	45.92
1011.894	46.04
1012.247	46.07
1012.6	46.38
1012.952	46.24
1013.305	46.25
1013.657	46.33
1014.01	46.58
1014.362	46.78
1014.715	47.13
1015.067	47.29
1015.419	47.52
1015.771	47.36
1016.123	47.46
1016.475	47.63
1016.827	48
1017.179	48.2
1017.531	48.38
1017.883	48.52
1018.234	48.75
1018.586	48.71
1018.938	49.02
1019.289	49.1
1019.64	49.41
1019.992	49.47
1020.343	49.47
1020.694	49.41
1021.045	49.25
1021.396	49.37
1021.747	49.46
1022.098	49.51
1022.449	49.54
1022.8	49.58
1023.151	49.58
1023.501	49.86
1023.852	50.29
1024.202	50.32
1024.553	50.36
1024.903	50.84
1025.253	51.07
1025.604	51.17
1025.954	50.96
1026.304	51.47
1026.654	51.51
1027.004	51.79
1027.354	51.66
1027.703	51.65
1028.053	51.87
1028.403	52.29
1028.753	52.1
1029.102	52.26
1029.452	52.47
1029.801	53.04
1030.15	52.82
1030.499	52.82
897.758	1497.36
901.051	1502.42
904.343	1493.94
907.636	1524.33
910.928	1481.11
914.22	1480.49
917.511	1460.81
920.803	1397.59
924.094	1391.07
927.384	1357.95
930.675	1299.72
933.965	1293.47
937.255	1219.31
940.544	1172.43
943.834	1115.88
947.123	1108.08
950.411	1041.36
953.7	1020.41
956.988	964.57
960.276	925.48
963.563	911.02
966.851	880.88
970.138	872.59
973.424	844.54
976.711	850.15
979.997	806.18
983.283	800.52
986.568	785.71
989.853	760.39
993.138	747.76
996.423	718.95
999.708	698.97
1002.992	688.88
1006.275	657.26
1009.559	651.67
1012.842	626.72
1016.125	608
1019.408	598.77
1022.69	588.78
1025.972	578.69
1029.254	563.91
1032.536	554.37
1035.817	542.06
1039.098	535.66
1042.379	524.69
1045.659	518.03
1048.939	505.35
1052.219	497.57
1055.498	487.59
1058.778	477.66
1062.057	465.96
1065.335	460.17
1068.614	454.85
1071.892	449.64
1075.17	435.01
1078.447	426.19
1081.724	423.5
1085.001	420.64
1088.278	410.9
1091.554	404.29
1094.83	403.77
1098.106	400.29
1101.382	396.86
1104.657	394.37
1107.932	387.72
1111.206	389.65
1114.481	380.75
1117.755	377.04
1121.029	373.74
1124.302	373.67
1127.575	365.72
1130.848	361.55
1134.121	357.87
1137.393	356.35
1140.665	348.35
1143.937	347.11
1147.208	344.35
1150.48	344.17
1153.75	338.97
1157.021	333.91
1160.291	333.7
1163.561	330.52
1166.831	329.79
1170.101	327.31
1173.37	326.7
1176.639	327.33
1179.907	323.61
1183.176	320.83
1186.444	319.45
1189.711	319.54
1192.979	318.44
1196.246	316.45
1199.513	318.13
1202.78	316.49
1206.046	316.32
1209.312	312.83
1212.578	313.41
1215.843	316.15
1219.108	314.01
1222.373	321.22
1225.638	323.27
1228.902	328.13
1232.166	328.61
1235.43	331.34
1238.693	335.1
1241.956	336.84
1245.219	342.58
1248.482	342.24
1251.744	342.18
1255.006	343.24
1258.268	334.72
1261.529	331.37
1264.79	329.16
1268.051	326.58
1271.312	322.64
1274.572	318.96
1277.832	315.43
1281.092	310.67
1284.351	308.21
1287.61	307.94
1290.869	303.41
1294.128	301.33
1297.386	302.01
1300.644	298.08
1303.902	299.19
1307.159	298.16
1310.416	298.64
1313.673	298.97
1316.93	301.4
1320.186	301.74
1323.442	302.28
1326.697	308.33
1329.953	309.39
1333.208	309.84
1336.463	314.86
1339.717	315.51
1342.972	318.75
1346.226	321.29
1349.479	321.66
1352.733	323.34
1355.986	324.99
1359.238	325.05
1362.491	326.85
1365.743	328.87
1368.995	330.47
1372.247	328.89
1375.498	329.46
1378.749	332.4
1382	328.39
1385.251	330.17
1388.501	328.36
1391.751	329.85
1395	328.74
1398.25	325.53
1401.499	325.12
1404.748	323.97
1407.996	321.27
1411.244	319.64
1414.492	317.55
1417.74	315.57
1420.987	310.72
1424.234	311.08
1427.481	306.58
1430.728	306.81
1433.974	303.29
1437.22	301.01
1440.465	300.09
1443.711	297.96
1446.956	296.39
1450.201	292.32
1453.445	290.06
1456.689	289.34
1459.933	283.63
1463.177	282.12
1466.42	277.01
1469.663	273.81
1472.906	271.8
1476.148	265.15
1479.391	261.57
1482.633	258.9
1485.874	255.03
1489.115	253.08
1492.356	249.8
1495.597	249.61
1498.838	245.37
1502.078	244.01
1505.318	243.18
1508.557	243.05
1511.797	242.18
1515.036	241.25
1518.274	240.2
1521.513	237.97
1524.751	237.75
1527.989	237.11
1531.227	235.61
1534.464	236.27
1537.701	234.37
1540.938	233.64
1544.174	231.03
1547.41	230.77
1550.646	229.31
1553.882	229.55
1557.117	226.65
1560.352	225
1563.587	224.1
1566.821	222.81
1570.055	220.28
1573.289	218.95
1576.523	218.77
1579.756	216.11
1582.989	215.01
1586.222	215.25
1589.454	213.4
1592.686	215.39
1595.918	214.49
1599.15	213.66
1602.381	213.9
1605.612	213.7
1608.843	214.97
1612.073	214.33
1615.303	216.26
1618.533	216.55
1621.762	215.51
1624.992	216.01
1628.221	215.5
1631.449	215.31
1634.678	214.34
1637.906	215.66
1641.134	215.59
1644.361	214.53
1647.588	215.47
1650.815	214.47
1654.042	213.38
1657.269	214.93
1660.495	214.92
1663.72	213.55
1666.946	214.48
1670.171	215.56
1673.396	214.67
1676.621	215.12
1679.845	214.88
1683.069	215.51
1686.293	216.78
1689.517	217.91
1692.74	217.33
1695.963	218.08
1699.185	220.95
1702.408	220.59
1705.63	221.49
1708.852	222.23
1712.073	222.87
1715.294	223.93
1718.515	224.81
1721.736	224.58
1724.956	224.92
1728.176	225.04
1731.396	227.8
1734.616	226.43
1737.835	227.48
1741.054	226.29
1744.272	226.53
1747.491	228.82
1750.709	229.51
1753.927	229.07
1757.144	228.43
1760.361	229.94
1763.578	230.22
1766.795	228.94
1770.011	231.17
1773.227	231.14
1776.443	233.78
1779.658	235.14
1782.874	234.29
1786.089	235.32
1789.303	235.81
1792.518	238.89
1795.732	238.97
1798.945	241.74
1802.159	241.56
1805.372	242.01
1808.585	246.76
1811.797	247.1
1815.01	247.69
1818.222	249.45
1821.434	251.21
1824.645	252.71
1827.856	256.42
1831.067	258.04
1834.278	257.25
1837.488	259.55
1840.698	261.28
1843.908	258.29
1847.117	260.43
1850.326	261.92
1853.535	260.94
1856.744	264.9
1859.952	264.35
1863.16	263.09
1866.368	261.77
1869.575	265.18
1872.782	261.03
1875.989	260.01
1879.196	259.95
1882.402	257.89
1885.608	258.95
1888.814	260
1892.019	258.86
1895.224	258.28
1898.429	257.33
1901.634	258.98
1904.838	258.34
1908.042	261.83
1911.246	263.34
1914.449	264.38
1917.652	264.99
1920.855	265.08
1924.058	264.77
1927.26	263.48
1930.462	264.69
1933.664	267.65
1936.865	265
1940.066	265.08
1943.267	263.88
1946.467	262.95
1949.668	264.81
1952.868	267.63
1956.067	266.9
1959.267	267.88
1962.466	268.89
1965.665	267.15
1968.863	267.75
1972.061	271.68
1975.259	274.3
1978.457	276.58
1981.654	279.14
1984.852	279.47
1988.048	278.9
1991.245	281.8
1994.441	285.29
1997.637	286.58
2000.833	293.09
2004.028	296.42
2007.223	297.95
2010.418	300.54
2013.613	304.65
2016.807	307.7
2020.001	310.61
2023.194	314.97
2026.388	321.96
2029.581	328.39
2032.774	332.02
2035.966	337.4
2039.158	338.3
2042.35	345.12
2045.542	348
2048.733	353.78
2051.924	358.73
2055.115	365.69
2058.306	366.89
2061.496	370.39
2064.686	370.06
2067.875	376.81
2071.065	378.05
2074.254	376.34
2077.442	381.3
2080.631	382.39
2083.819	385.68
2087.007	387.21
2090.195	390.18
2093.382	393.7
2096.569	390.76
2099.756	397.7
2102.942	398.27
2106.128	403.07
2109.314	411.81
2112.5	409.68
2115.685	419.53
2118.87	420.63
2122.055	427.66
2125.239	430.68
2128.424	435.49
2131.608	439.69
2134.791	443.9
2137.974	445.88
2141.157	446.97
2144.34	447.63
2147.523	455.88
2150.705	451.35
2153.887	454.97
2157.068	456.01
2160.25	453.22
2163.431	455.14
2166.611	459.39
2169.792	469.09
2172.972	474.24
2176.152	477.24
2179.331	484.15
2182.511	490.48
2185.69	497.97
2188.868	507.79
2192.047	508.73
2195.225	522.6
2198.403	536.2
2201.58	546.35
2204.758	557.16
2207.935	568.25
2211.111	578.23
2214.288	584.48
2217.464	586.77
2220.64	593.4
2223.815	602.96
2226.991	627.21
2230.166	628.16
2233.34	639.64
2236.515	650.74
2239.689	649.09
2242.863	653.37
2246.036	673.72
2249.209	666.89
2252.382	679.44
2255.555	699.69
2258.727	701.4
2261.9	705.18
2265.071	712.7
2268.243	723.69
2271.414	731.96
2274.585	750.67
2277.756	757.75
2280.926	762.12
2284.096	782.11
2287.266	797.47
2290.436	803.6
2293.605	822.33
2296.774	849.43
2299.942	875.67
2303.111	881.29
2306.279	899.86
2309.447	911.09
2312.614	934.8
2315.781	960
2318.948	1004.53
2322.115	990.98
2325.281	1044.78
2328.447	1022.1
2331.613	1063.92
2334.779	1050.64
2337.944	1096.07
2341.109	1107.52
2344.274	1135.87
2347.438	1178.89
2350.602	1177.62
2353.766	1215.73
2356.929	1232.84
2360.092	1224.46
2363.255	1315.16
2366.418	1308.03
2369.58	1337.13
2372.742	1419.28
2375.904	1456.22
2379.066	1447.93
2382.227	1415.6
2385.388	1534.74
2388.548	1535.01
2391.709	1554.11
2394.869	1730.2
2398.029	1656.07
2401.188	1705.11
2404.347	1692.76
2407.506	1663.2
2410.665	1713.96
2413.823	1816.57
2416.981	1927.4
2420.139	1862.91
2423.296	1841.89
2426.453	1919.81
2429.61	1848.79
2432.767	1936.89
2435.923	1915.49
2439.079	2098.69
2442.235	2124
2445.391	2101.51
2448.546	2089.37
2451.701	2025.6
2454.855	2028.47
2458.009	2150.2
2461.163	2241.67
2464.317	2321.62
2467.471	2378.22
2470.624	2381.35
2473.777	2312.01
2476.929	2258.86
2480.082	2189.97
2483.234	2166.19
2486.385	2279.86
2489.537	2289.16
2492.688	2372.26
2495.839	2303.99
2498.989	2259.04
2502.14	2271.55
2505.29	2295.39
2508.439	2333.67
2511.589	2322.89
2514.738	2539.25
2517.887	2482.93
2521.035	2622.13
2524.183	2637.28
2527.331	2658.82
2530.479	2651.14
2533.627	2665.7
