Data from N_2_HIR_WI_4N_Splice17_13-33-46-401.txt Node
Date: Sat Mar 07 13:33:46 EST 2020
User: sa697716
Spectrometer: NQ5500242
Trigger mode: 0
Integration Time (sec): 1.450000E-1
Scans to average: 20
Nonlinearity correction enabled: false
Boxcar width: 5
Storing dark spectrum: false
XAxis mode: Wavelengths
Number of Pixels in Spectrum: 512
>>>>>Begin Spectral Data<<<<<
187.83	118.86
188.298	130.18
188.766	104.16
189.233	101.12
189.701	103.22
190.169	138.46
190.636	146.8
191.104	207.61
191.571	88.51
192.039	177.27
192.506	365.98
192.974	10.03
193.441	74.47
193.908	-40.56
194.375	42.16
194.842	23.26
195.31	159.06
195.777	271.14
196.244	90.74
196.711	85.83
197.177	89.51
197.644	87.21
198.111	86.98
198.578	86.95
199.045	87.73
199.511	87.01
199.978	86.94
200.445	86.8
200.911	86.89
201.378	87.09
201.844	86.72
202.31	86.05
202.777	86.44
203.243	86.19
203.709	85.76
204.176	84.74
204.642	84.14
205.108	83.77
205.574	83.27
206.04	82.36
206.506	81.26
206.972	80.69
207.438	79.88
207.903	78.59
208.369	76.91
208.835	75.19
209.301	73.69
209.766	71.8
210.232	69.85
210.697	67.82
211.163	66.02
211.628	64.66
212.094	62.88
212.559	61.27
213.024	59.92
213.49	58.5
213.955	57.11
214.42	55.63
214.885	54.07
215.35	51.81
215.815	48.94
216.28	45.37
216.745	41.35
217.21	37.52
217.675	33.94
218.14	30.83
218.604	28.13
219.069	25.87
219.534	24.05
219.998	22.46
220.463	21.24
220.927	20.08
221.392	19.24
221.856	18.5
222.32	17.88
222.785	17.36
223.249	16.85
223.713	16.38
224.177	15.98
224.642	15.59
225.106	15.2
225.57	14.81
226.034	14.52
226.497	14.21
226.961	13.93
227.425	13.67
227.889	13.4
228.353	13.13
228.816	12.9
229.28	12.65
229.744	12.42
230.207	12.22
230.671	12
231.134	11.79
231.597	11.61
232.061	11.43
232.524	11.24
232.987	11.06
233.45	10.91
233.914	10.75
234.377	10.61
234.84	10.47
235.303	10.35
235.766	10.24
236.229	10.14
236.691	10.03
237.154	9.91
237.617	9.81
238.08	9.71
238.542	9.61
239.005	9.53
239.468	9.42
239.93	9.35
240.393	9.25
240.855	9.14
241.317	9.06
241.78	8.96
242.242	8.87
242.704	8.8
243.166	8.71
243.629	8.64
244.091	8.54
244.553	8.46
245.015	8.36
245.477	8.28
245.939	8.21
246.4	8.12
246.862	8.04
247.324	7.97
247.786	7.88
248.247	7.8
248.709	7.72
249.17	7.64
249.632	7.59
250.093	7.53
250.555	7.47
251.016	7.4
251.477	7.34
251.939	7.29
252.4	7.23
252.861	7.18
253.322	7.13
253.783	7.1
254.244	7.06
254.705	7
255.166	6.95
255.627	6.9
256.088	6.85
256.549	6.81
257.009	6.75
257.47	6.7
257.931	6.64
258.391	6.58
258.852	6.52
259.312	6.47
259.773	6.42
260.233	6.37
260.694	6.32
261.154	6.27
261.614	6.22
262.074	6.17
262.534	6.13
262.994	6.09
263.455	6.05
263.915	6.02
264.374	5.98
264.834	5.94
265.294	5.9
265.754	5.88
266.214	5.85
266.673	5.83
267.133	5.8
267.593	5.77
268.052	5.76
268.512	5.74
268.971	5.72
269.431	5.69
269.89	5.67
270.349	5.65
270.809	5.63
271.268	5.61
271.727	5.59
272.186	5.58
272.645	5.57
273.104	5.54
273.563	5.52
274.022	5.5
274.481	5.49
274.94	5.48
275.399	5.46
275.857	5.45
276.316	5.43
276.775	5.42
277.233	5.4
277.692	5.38
278.15	5.37
278.609	5.36
279.067	5.34
279.525	5.33
279.984	5.31
280.442	5.3
280.9	5.29
281.358	5.28
281.816	5.27
282.274	5.26
282.732	5.25
283.19	5.24
283.648	5.22
284.106	5.21
284.564	5.19
285.021	5.19
285.479	5.17
285.937	5.15
286.394	5.14
286.852	5.12
287.309	5.1
287.767	5.09
288.224	5.07
288.682	5.05
289.139	5.03
289.596	5.01
290.053	4.98
290.511	4.95
290.968	4.93
291.425	4.9
291.882	4.88
292.339	4.85
292.796	4.83
293.252	4.81
293.709	4.8
294.166	4.78
294.623	4.76
295.079	4.74
295.536	4.73
295.992	4.72
296.449	4.7
296.905	4.69
297.362	4.68
297.818	4.66
298.274	4.66
298.731	4.64
299.187	4.63
299.643	4.62
300.099	4.61
300.555	4.6
301.011	4.58
301.467	4.58
301.923	4.57
302.379	4.56
302.835	4.56
303.291	4.54
303.746	4.53
304.202	4.53
304.658	4.52
305.113	4.52
305.569	4.52
306.024	4.51
306.479	4.5
306.935	4.49
307.39	4.49
307.845	4.48
308.301	4.47
308.756	4.48
309.211	4.47
309.666	4.48
310.121	4.47
310.576	4.47
311.031	4.47
311.486	4.48
311.94	4.49
312.395	4.48
312.85	4.48
313.305	4.48
313.759	4.48
314.214	4.47
314.668	4.45
315.123	4.45
315.577	4.43
316.032	4.42
316.486	4.39
316.94	4.38
317.394	4.37
317.849	4.36
318.303	4.33
318.757	4.31
319.211	4.29
319.665	4.28
320.119	4.26
320.572	4.24
321.026	4.23
321.48	4.22
321.934	4.2
322.387	4.18
322.841	4.17
323.295	4.16
323.748	4.15
324.202	4.15
324.655	4.15
325.108	4.15
325.562	4.15
326.015	4.14
326.468	4.14
326.921	4.14
327.374	4.14
327.827	4.14
328.28	4.14
328.733	4.14
329.186	4.14
329.639	4.14
330.092	4.14
330.545	4.14
330.997	4.13
331.45	4.13
331.903	4.14
332.355	4.14
332.808	4.15
333.26	4.14
333.713	4.15
334.165	4.14
334.617	4.14
335.069	4.15
335.522	4.16
335.974	4.16
336.426	4.15
336.878	4.14
337.33	4.13
337.782	4.14
338.234	4.14
338.686	4.13
339.137	4.12
339.589	4.11
340.041	4.1
340.493	4.08
340.944	4.06
341.396	4.05
341.847	4.04
342.299	4.02
342.75	3.99
343.201	3.96
343.653	3.95
344.104	3.93
344.555	3.91
345.006	3.89
345.457	3.88
345.908	3.87
346.359	3.87
346.81	3.85
347.261	3.84
347.712	3.83
348.163	3.83
348.613	3.83
349.064	3.83
349.515	3.82
349.965	3.82
350.416	3.82
350.866	3.82
351.317	3.8
351.767	3.81
352.217	3.81
352.668	3.81
353.118	3.8
353.568	3.79
354.018	3.79
354.468	3.8
354.918	3.79
355.368	3.79
355.818	3.79
356.268	3.79
356.718	3.8
357.168	3.79
357.617	3.78
358.067	3.78
358.517	3.8
358.966	3.8
359.416	3.79
359.865	3.79
360.315	3.79
360.764	3.79
361.213	3.78
361.663	3.77
362.112	3.78
362.561	3.78
363.01	3.78
363.459	3.75
363.908	3.73
364.357	3.74
364.806	3.73
365.255	3.73
365.703	3.73
366.152	3.73
366.601	3.74
367.05	3.73
367.498	3.72
367.947	3.71
368.395	3.73
368.844	3.73
369.292	3.72
369.74	3.72
370.189	3.71
370.637	3.7
371.085	3.69
371.533	3.68
371.981	3.67
372.429	3.67
372.877	3.65
373.325	3.65
373.773	3.64
374.221	3.63
374.669	3.62
375.116	3.61
375.564	3.6
376.012	3.6
376.459	3.59
376.907	3.6
377.354	3.6
377.801	3.61
378.249	3.6
378.696	3.6
379.143	3.59
379.591	3.59
380.038	3.59
380.485	3.59
380.932	3.58
381.379	3.58
381.826	3.58
382.273	3.57
382.72	3.56
383.166	3.55
383.613	3.54
384.06	3.52
384.506	3.52
384.953	3.51
385.4	3.52
385.846	3.52
386.292	3.5
386.739	3.49
387.185	3.48
387.631	3.48
388.078	3.48
388.524	3.47
388.97	3.47
389.416	3.47
389.862	3.47
390.308	3.47
390.754	3.48
391.2	3.49
391.645	3.49
392.091	3.51
392.537	3.52
392.983	3.53
393.428	3.54
393.874	3.55
394.319	3.55
394.765	3.55
395.21	3.56
395.655	3.56
396.101	3.57
396.546	3.58
396.991	3.59
397.436	3.6
397.881	3.62
398.326	3.64
398.771	3.65
399.216	3.66
399.661	3.68
400.106	3.69
400.551	3.69
400.995	3.69
401.44	3.7
401.885	3.71
402.329	3.73
402.774	3.73
403.218	3.76
403.663	3.78
404.107	3.8
404.551	3.82
404.995	3.84
405.44	3.85
405.884	3.87
406.328	3.89
406.772	3.89
407.216	3.9
407.66	3.91
408.104	3.9
408.547	3.91
408.991	3.92
409.435	3.92
409.879	3.94
410.322	3.96
410.766	3.99
411.209	4.03
411.653	4.07
412.096	4.09
412.54	4.12
412.983	4.15
413.426	4.2
413.869	4.23
414.312	4.28
414.756	4.31
415.199	4.33
415.642	4.34
416.085	4.36
416.527	4.36
416.97	4.34
417.413	4.35
417.856	4.34
418.298	4.34
418.741	4.33
419.184	4.32
419.626	4.33
420.069	4.34
420.511	4.35
420.953	4.36
421.396	4.38
421.838	4.41
422.28	4.43
422.722	4.47
423.164	4.48
423.606	4.51
424.048	4.53
424.49	4.54
424.932	4.54
425.374	4.52
425.816	4.49
426.258	4.49
426.699	4.48
427.141	4.47
427.582	4.46
428.024	4.47
428.465	4.47
428.907	4.47
429.348	4.46
429.789	4.47
430.231	4.51
430.672	4.55
431.113	4.58
431.554	4.6
431.995	4.62
432.436	4.63
432.877	4.65
433.318	4.68
433.759	4.7
434.2	4.74
434.64	4.76
435.081	4.77
435.522	4.78
435.962	4.8
436.403	4.83
436.843	4.86
437.284	4.85
437.724	4.87
438.164	4.87
438.604	4.88
439.045	4.9
439.485	4.9
439.925	4.91
440.365	4.91
440.805	4.93
441.245	4.94
441.685	4.95
442.125	4.99
442.564	4.99
443.004	5.01
443.444	5.02
443.883	5.02
444.323	5.03
444.762	5.04
445.202	5.05
445.641	5.06
446.081	5.08
446.52	5.08
446.959	5.09
447.398	5.11
447.837	5.12
448.276	5.13
448.716	5.15
449.154	5.17
449.593	5.2
450.032	5.21
450.471	5.19
450.91	5.2
451.349	5.21
451.787	5.2
452.226	5.19
452.664	5.18
453.103	5.17
453.541	5.16
453.98	5.16
454.418	5.13
454.856	5.12
455.295	5.11
455.733	5.08
456.171	5.07
456.609	5.07
457.047	5.05
457.485	5.04
457.923	5.03
458.361	5.02
458.798	5.02
459.236	5.01
459.674	5
460.111	5
460.549	5.02
460.987	5.02
461.424	5.01
461.862	5.03
462.299	5.05
462.736	5.05
463.173	5.06
463.611	5.05
464.048	5.08
464.485	5.08
464.922	5.08
465.359	5.08
465.796	5.08
466.233	5.09
466.67	5.09
467.106	5.1
467.543	5.09
467.98	5.09
468.416	5.08
468.853	5.07
469.29	5.07
469.726	5.07
470.162	5.07
470.599	5.07
471.035	5.06
471.471	5.05
471.907	5.04
472.344	5.04
472.78	5.04
473.216	5.04
473.652	5.04
474.088	5.02
474.523	5.01
474.959	5
475.395	4.98
475.831	4.97
476.266	4.97
476.702	4.96
477.138	4.95
477.573	4.94
478.008	4.93
478.444	4.9
478.879	4.91
479.314	4.89
479.75	4.88
480.185	4.87
480.62	4.85
481.055	4.83
481.49	4.81
481.925	4.81
482.36	4.8
482.795	4.79
483.229	4.78
483.664	4.78
484.099	4.78
484.534	4.77
484.968	4.79
485.403	4.79
485.837	4.8
486.271	4.81
486.706	4.82
487.14	4.83
487.574	4.84
488.009	4.85
488.443	4.86
488.877	4.88
489.311	4.91
489.745	4.93
490.179	4.96
490.613	4.99
491.046	5.02
491.48	5.05
491.914	5.09
492.348	5.13
492.781	5.18
493.215	5.23
493.648	5.28
494.082	5.32
494.515	5.37
494.948	5.42
495.382	5.47
495.815	5.54
496.248	5.61
496.681	5.68
497.114	5.75
497.547	5.82
497.98	5.91
498.413	5.98
498.846	6.07
499.279	6.16
499.711	6.25
500.144	6.36
500.577	6.46
501.009	6.56
501.442	6.68
501.874	6.79
502.306	6.91
502.739	7.04
503.171	7.18
503.603	7.31
504.036	7.46
504.468	7.6
504.9	7.75
505.332	7.9
505.764	8.06
506.196	8.22
506.627	8.41
507.059	8.59
507.491	8.76
507.923	8.95
508.354	9.15
508.786	9.35
509.217	9.56
509.649	9.78
510.08	9.99
510.512	10.22
510.943	10.44
511.374	10.66
511.805	10.89
512.237	11.13
512.668	11.37
513.099	11.61
513.53	11.85
513.961	12.09
514.391	12.34
514.822	12.6
515.253	12.85
515.684	13.11
516.114	13.38
516.545	13.63
516.975	13.88
517.406	14.13
517.836	14.38
518.267	14.64
518.697	14.9
519.127	15.14
519.558	15.37
519.988	15.62
520.418	15.84
520.848	16.06
521.278	16.3
521.708	16.69
522.138	16.93
522.567	17.15
522.997	17.36
523.427	17.57
523.857	17.78
524.286	17.97
524.716	18.15
525.145	18.35
525.575	18.52
526.004	18.7
526.433	18.7
526.863	18.85
527.292	19.01
527.721	19.14
528.15	19.29
528.579	19.42
529.008	19.57
529.437	19.7
529.866	19.81
530.295	19.95
530.724	20.06
531.152	20.17
531.581	20.28
532.01	20.38
532.438	20.48
532.867	20.55
533.295	20.63
533.723	20.71
534.152	20.76
534.58	20.85
535.008	20.91
535.436	20.98
535.865	21.02
536.293	21.07
536.721	21.12
537.149	21.18
537.576	21.24
538.004	21.29
538.432	21.33
538.86	21.37
539.287	21.4
539.715	21.44
540.143	21.47
540.57	21.51
540.998	21.53
541.425	21.56
541.852	21.58
542.28	21.59
542.707	21.62
543.134	21.64
543.561	21.67
543.988	21.68
544.415	21.7
544.842	21.72
545.269	21.75
545.696	21.77
546.123	21.8
546.549	21.82
546.976	21.86
547.403	21.86
547.829	21.87
548.256	21.89
548.682	21.9
549.108	21.93
549.535	21.96
549.961	21.96
550.387	21.98
550.813	21.99
551.24	22
551.666	22
552.092	22
552.518	22.01
552.943	21.99
553.369	21.99
553.795	21.96
554.221	21.93
554.646	21.9
555.072	21.87
555.498	21.83
555.923	21.78
556.349	21.72
556.774	21.66
557.199	21.61
557.625	21.57
558.05	21.52
558.475	21.47
558.9	21.41
559.325	21.35
559.75	21.27
560.175	21.21
560.6	21.13
561.025	21.06
561.449	20.99
561.874	20.9
562.299	20.81
562.723	20.71
563.148	20.6
563.572	20.48
563.997	20.37
564.421	20.25
564.846	20.14
565.27	20.01
565.694	19.9
566.118	19.77
566.542	19.65
566.966	19.51
567.39	19.38
567.814	19.26
568.238	19.12
568.662	19
569.086	18.87
569.509	18.73
569.933	18.62
570.357	18.49
570.78	18.35
571.204	18.23
571.627	18.12
572.05	18
572.474	17.89
572.897	17.79
573.32	17.69
573.743	17.57
574.166	17.48
574.589	17.37
575.012	17.27
575.435	17.18
575.858	17.1
576.281	16.99
576.704	16.9
577.126	16.82
577.549	16.73
577.972	16.64
578.394	16.58
578.817	16.51
579.239	16.45
579.661	16.37
580.084	16.31
580.506	16.24
580.928	16.18
581.35	16.12
581.772	16.04
582.194	15.98
582.616	15.92
583.038	15.85
583.46	15.79
583.882	15.72
584.303	15.65
584.725	15.58
585.147	15.54
585.568	15.49
585.99	15.44
586.411	15.39
586.833	15.33
587.254	15.27
587.675	15.23
588.096	15.18
588.518	15.14
588.939	15.1
589.36	15.05
589.781	14.99
590.202	14.95
590.623	14.91
591.043	14.88
591.464	14.84
591.885	14.82
592.305	14.79
592.726	14.77
593.147	14.73
593.567	14.7
593.987	14.67
594.408	14.64
594.828	14.6
595.248	14.56
595.669	14.53
596.089	14.49
596.509	14.46
596.929	14.41
597.349	14.36
597.769	14.33
598.189	14.3
598.608	14.27
599.028	14.25
599.448	14.22
599.867	14.18
600.287	14.14
600.706	14.1
601.126	14.07
601.545	14.03
601.965	14
602.384	13.95
602.803	13.9
603.222	13.85
603.641	13.79
604.061	13.74
604.48	13.69
604.898	13.64
605.317	13.58
605.736	13.52
606.155	13.46
606.574	13.39
606.992	13.33
607.411	13.28
607.829	13.18
608.248	13.1
608.666	13.04
609.085	12.97
609.503	12.89
609.921	12.82
610.339	12.74
610.758	12.67
611.176	12.59
611.594	12.53
612.012	12.46
612.43	12.42
612.847	12.36
613.265	12.29
613.683	12.23
614.101	12.16
614.518	12.1
614.936	12.03
615.353	11.96
615.771	11.92
616.188	11.86
616.606	11.8
617.023	11.74
617.44	11.69
617.857	11.64
618.274	11.59
618.691	11.55
619.108	11.5
619.525	11.46
619.942	11.43
620.359	11.38
620.776	11.36
621.192	11.32
621.609	11.3
622.026	11.28
622.442	11.28
622.859	11.25
623.275	11.24
623.691	11.23
624.108	11.21
624.524	11.2
624.94	11.18
625.356	11.17
625.772	11.16
626.188	11.15
626.604	11.13
627.02	11.11
627.436	11.1
627.852	11.09
628.268	11.08
628.683	11.07
629.099	11.06
629.514	11.05
629.93	11.03
630.345	11.02
630.761	11
631.176	10.98
631.591	10.95
632.007	10.93
632.422	10.88
632.837	10.85
633.252	10.8
633.667	10.75
634.082	10.69
634.497	10.63
634.911	10.57
635.326	10.5
635.741	10.43
636.155	10.35
636.57	10.28
636.984	10.22
637.399	10.13
637.813	10.04
638.228	9.95
638.642	9.86
639.056	9.76
639.47	9.67
639.884	9.58
640.298	9.47
640.712	9.36
641.126	9.25
641.54	9.13
641.954	9.01
642.368	8.91
642.781	8.8
643.195	8.7
643.609	8.59
644.022	8.49
644.436	8.39
644.849	8.3
645.262	8.21
645.676	8.13
646.089	8.04
646.502	7.98
646.915	7.92
647.328	7.85
647.741	7.79
648.154	7.74
648.567	7.7
648.98	7.64
649.393	7.6
649.805	7.57
650.218	7.53
650.631	7.49
651.043	7.46
651.456	7.42
651.868	7.38
652.28	7.34
652.693	7.3
653.105	7.25
653.517	7.2
653.929	7.15
654.341	7.1
654.753	7.05
655.165	7
655.577	6.94
655.989	6.87
656.401	6.81
656.813	6.74
657.224	6.66
657.636	6.58
658.047	6.5
658.459	6.42
658.87	6.34
659.282	6.24
659.693	6.16
660.104	6.07
660.515	5.99
660.926	5.92
661.338	5.83
661.749	5.76
662.159	5.68
662.57	5.61
662.981	5.54
663.392	5.48
663.803	5.43
664.213	5.36
664.624	5.31
665.035	5.25
665.445	5.2
665.855	5.17
666.266	5.14
666.676	5.11
667.086	5.07
667.497	5.04
667.907	5.02
668.317	5
668.727	4.98
669.137	4.97
669.547	4.96
669.956	4.95
670.366	4.93
670.776	4.92
671.186	4.91
671.595	4.91
672.005	4.89
672.414	4.89
672.824	4.89
673.233	4.89
673.642	4.9
674.052	4.91
674.461	4.91
674.87	4.92
675.279	4.95
675.688	4.96
676.097	4.98
676.506	5.02
676.915	5.05
677.323	5.07
677.732	5.1
678.141	5.13
678.549	5.16
678.958	5.2
679.366	5.26
679.775	5.3
680.183	5.36
680.592	5.44
681	5.51
681.408	5.59
681.816	5.69
682.224	5.79
682.632	5.91
683.04	6.04
683.448	6.18
683.856	6.32
684.264	6.49
684.671	6.68
685.079	6.88
685.487	7.1
685.894	7.34
686.302	7.6
686.709	7.88
687.116	8.18
687.524	8.5
687.931	8.85
688.338	9.22
688.745	9.6
689.152	9.98
689.559	10.4
689.966	10.82
690.373	11.26
690.78	11.72
691.187	12.17
691.593	12.63
692	13.1
692.407	13.56
692.813	14.05
693.22	14.54
693.626	15.04
694.032	15.53
694.439	16.03
694.845	16.52
695.251	17.01
695.657	17.49
696.063	17.98
696.469	18.46
696.875	18.96
697.281	19.43
697.687	19.9
698.093	20.33
698.498	20.78
698.904	21.22
699.31	21.63
699.715	22.06
700.12	22.49
700.526	22.89
700.931	23.28
701.337	23.65
701.742	24.02
702.147	24.4
702.552	24.78
702.957	25.1
703.362	25.47
703.767	25.81
704.172	26.14
704.577	26.46
704.981	26.8
705.386	27.11
705.791	27.43
706.195	27.75
706.6	28.05
707.004	28.34
707.408	28.66
707.813	28.94
708.217	29.23
708.621	29.52
709.025	29.77
709.43	30.03
709.834	30.31
710.237	30.55
710.641	30.79
711.045	31.02
711.449	31.26
711.853	31.5
712.256	31.7
712.66	31.92
713.064	32.11
713.467	32.36
713.87	32.56
714.274	32.74
714.677	32.94
715.08	33.14
715.484	33.36
715.887	33.57
716.29	33.74
716.693	33.92
717.096	34.11
717.499	34.31
717.901	34.47
718.304	34.66
718.707	34.84
719.109	35.02
719.512	35.16
719.915	35.32
720.317	35.44
720.719	35.56
721.122	35.72
721.524	35.85
721.926	35.98
722.328	36.13
722.731	36.24
723.133	36.36
723.535	36.48
723.937	36.62
724.338	36.73
724.74	36.87
725.142	37.07
725.544	37.17
725.945	37.3
726.347	37.39
726.748	37.47
727.15	37.56
727.551	37.64
727.952	37.7
728.354	37.79
728.755	37.86
729.156	37.92
729.557	37.92
729.958	37.97
730.359	38.02
730.76	38.1
731.161	38.14
731.562	38.18
731.962	38.22
732.363	38.29
732.763	38.33
733.164	38.39
733.564	38.43
733.965	38.45
734.365	38.51
734.766	38.55
735.166	38.57
735.566	38.63
735.966	38.69
736.366	38.74
736.766	38.79
737.166	38.82
737.566	38.85
737.966	38.91
738.365	38.96
738.765	38.98
739.165	39.03
739.564	39.05
739.964	39.07
740.363	39.07
740.763	39.12
741.162	39.14
741.561	39.15
741.96	39.16
742.36	39.15
742.759	39.16
743.158	39.19
743.557	39.17
743.955	39.2
744.354	39.22
744.753	39.25
745.152	39.26
745.55	39.3
745.949	39.32
746.348	39.34
746.746	39.35
747.144	39.38
747.543	39.39
747.941	39.42
748.339	39.41
748.737	39.41
749.136	39.41
749.534	39.39
749.932	39.36
750.33	39.34
750.727	39.33
751.125	39.34
751.523	39.33
751.921	39.33
752.318	39.35
752.716	39.35
753.113	39.37
753.511	39.38
753.908	39.4
754.305	39.42
754.703	39.43
755.1	39.44
755.497	39.44
755.894	39.44
756.291	39.44
756.688	39.43
757.085	39.42
757.482	39.4
757.878	39.42
758.275	39.4
758.672	39.39
759.068	39.41
759.465	39.4
759.861	39.41
760.258	39.41
760.654	39.41
761.05	39.45
761.447	39.46
761.843	39.46
762.239	39.43
762.635	39.44
763.031	39.45
763.427	39.44
763.822	39.48
764.218	39.49
764.614	39.5
765.01	39.49
765.405	39.46
765.801	39.44
766.196	39.45
766.592	39.48
766.987	39.49
767.382	39.48
767.778	39.48
768.173	39.48
768.568	39.46
768.963	39.46
769.358	39.48
769.753	39.46
770.148	39.47
770.542	39.48
770.937	39.47
771.332	39.46
771.726	39.46
772.121	39.46
772.515	39.47
772.91	39.47
773.304	39.47
773.699	39.46
774.093	39.46
774.487	39.47
774.881	39.48
775.275	39.47
775.669	39.47
776.063	39.48
776.457	39.49
776.851	39.47
777.245	39.45
777.638	39.44
778.032	39.46
778.425	39.5
778.819	39.48
779.212	39.49
779.606	39.52
779.999	39.52
780.392	39.54
780.786	39.53
781.179	39.56
781.572	39.6
781.965	39.61
782.358	39.6
782.751	39.58
783.143	39.59
783.536	39.56
783.929	39.56
784.322	39.57
784.714	39.54
785.107	39.57
785.499	39.53
785.891	39.52
786.284	39.53
786.676	39.52
787.068	39.54
787.46	39.56
787.852	39.58
788.245	39.57
788.636	39.55
789.028	39.57
789.42	39.53
789.812	39.55
790.204	39.57
790.595	39.57
790.987	39.61
791.378	39.6
791.77	39.6
792.161	39.61
792.553	39.62
792.944	39.61
793.335	39.59
793.726	39.6
794.117	39.59
794.508	39.54
794.899	39.52
795.29	39.49
795.681	39.44
796.072	39.42
796.463	39.44
796.853	39.41
797.244	39.42
797.634	39.44
798.025	39.48
798.415	39.47
798.806	39.48
799.196	39.51
799.586	39.54
799.976	39.57
800.366	39.58
800.756	39.56
801.146	39.58
801.536	39.59
801.926	39.6
802.316	39.55
802.706	39.56
803.095	39.61
803.485	39.58
803.874	39.56
804.264	39.57
804.653	39.55
805.043	39.56
805.432	39.54
805.821	39.55
806.21	39.54
806.599	39.56
806.988	39.53
807.377	39.52
807.766	39.53
808.155	39.5
808.544	39.48
808.933	39.52
809.321	39.51
809.71	39.52
810.098	39.5
810.487	39.48
810.875	39.46
811.264	39.48
811.652	39.48
812.04	39.49
812.428	39.54
812.816	39.51
813.204	39.47
813.592	39.45
813.98	39.45
814.368	39.48
814.756	39.49
815.144	39.5
815.531	39.51
815.919	39.49
816.306	39.46
816.694	39.42
817.081	39.43
817.469	39.44
817.856	39.43
818.243	39.41
818.63	39.39
819.017	39.36
819.404	39.33
819.791	39.31
820.178	39.3
820.565	39.27
820.952	39.27
821.339	39.25
821.725	39.26
822.112	39.27
822.498	39.3
822.885	39.29
823.271	39.29
823.657	39.3
824.044	39.29
824.43	39.31
824.816	39.33
825.202	39.31
825.588	39.32
825.974	39.29
826.36	39.26
826.746	39.24
827.132	39.24
827.517	39.23
827.903	39.24
828.289	39.26
828.674	39.25
829.06	39.23
829.445	39.22
829.83	39.22
830.216	39.2
830.601	39.19
830.986	39.18
831.371	39.17
831.756	39.18
832.141	39.18
832.526	39.14
832.911	39.13
833.295	39.13
833.68	39.15
834.065	39.15
834.449	39.16
834.834	39.15
835.218	39.14
835.603	39.11
835.987	39.09
836.371	39.07
836.755	39.07
837.139	39.06
837.524	39.06
837.908	39.05
838.291	39.03
838.675	39.03
839.059	39.04
839.443	39.03
839.827	39.02
840.21	39.02
840.594	39.01
840.977	39.02
841.361	39.02
841.744	38.99
842.127	38.96
842.511	38.97
842.894	38.94
843.277	38.93
843.66	38.92
844.043	38.92
844.426	38.91
844.809	38.93
845.191	38.92
845.574	38.91
845.957	38.92
846.339	38.93
846.722	38.92
847.104	38.95
847.487	38.94
847.869	38.95
848.252	38.96
848.634	38.95
849.016	38.96
849.398	38.97
849.78	38.96
850.162	38.94
850.544	38.95
850.926	38.93
851.307	38.93
851.689	38.94
852.071	38.94
852.452	38.94
852.834	38.94
853.215	38.91
853.597	38.9
853.978	38.9
854.359	38.92
854.741	38.92
855.122	38.91
855.503	38.88
855.884	38.87
856.265	38.86
856.646	38.85
857.026	38.85
857.407	38.84
857.788	38.84
858.169	38.84
858.549	38.84
858.93	38.85
859.31	38.87
859.69	38.9
860.071	38.9
860.451	38.89
860.831	38.89
861.211	38.87
861.591	38.89
861.971	38.88
862.351	38.87
862.731	38.86
863.111	38.85
863.491	38.83
863.87	38.82
864.25	38.81
864.629	38.8
865.009	38.81
865.388	38.81
865.768	38.78
866.147	38.79
866.526	38.79
866.905	38.78
867.284	38.76
867.663	38.76
868.042	38.78
868.421	38.82
868.8	38.84
869.179	38.85
869.558	38.85
869.936	38.86
870.315	38.84
870.693	38.86
871.072	38.88
871.45	38.9
871.828	38.91
872.207	38.92
872.585	38.88
872.963	38.88
873.341	38.87
873.719	38.89
874.097	38.89
874.475	38.92
874.853	38.92
875.23	38.92
875.608	38.94
875.986	38.97
876.363	38.95
876.741	38.97
877.118	38.97
877.495	38.96
877.873	38.96
878.25	38.98
878.627	38.97
879.004	38.98
879.381	38.99
879.758	38.96
880.135	38.92
880.512	38.89
880.889	38.88
881.265	38.86
881.642	38.87
882.019	38.89
882.395	38.84
882.772	38.84
883.148	38.81
883.524	38.78
883.901	38.78
884.277	38.77
884.653	38.79
885.029	38.8
885.405	38.79
885.781	38.78
886.157	38.74
886.532	38.76
886.908	38.73
887.284	38.74
887.659	38.71
888.035	38.68
888.411	38.66
888.786	38.64
889.161	38.62
889.537	38.63
889.912	38.61
890.287	38.63
890.662	38.61
891.037	38.62
891.412	38.61
891.787	38.61
892.162	38.61
892.536	38.62
892.911	38.6
893.286	38.58
893.66	38.57
894.035	38.57
894.409	38.56
894.784	38.57
895.158	38.55
895.532	38.57
895.906	38.56
896.281	38.56
896.655	38.56
897.029	38.59
897.402	38.61
897.776	38.61
898.15	38.61
898.524	38.61
898.898	38.61
899.271	38.64
899.645	38.65
900.018	38.67
900.392	38.69
900.765	38.7
901.138	38.7
901.511	38.72
901.884	38.75
902.258	38.77
902.631	38.77
903.003	38.78
903.376	38.79
903.749	38.77
904.122	38.79
904.495	38.8
904.867	38.82
905.24	38.84
905.612	38.85
905.985	38.83
906.357	38.82
906.729	38.84
907.102	38.84
907.474	38.86
907.846	38.88
908.218	38.87
908.59	38.89
908.962	38.89
909.334	38.91
909.705	38.91
910.077	38.91
910.449	38.96
910.82	38.94
911.192	38.94
911.563	38.9
911.935	38.89
912.306	38.9
912.677	38.89
913.048	38.91
913.419	38.89
913.79	38.88
914.161	38.9
914.532	38.87
914.903	38.91
915.274	38.89
915.645	38.92
916.015	38.93
916.386	38.94
916.756	38.93
917.127	38.91
917.497	38.9
917.868	38.92
918.238	38.91
918.608	38.91
918.978	38.87
919.348	38.92
919.718	38.91
920.088	38.95
920.458	38.95
920.828	38.96
921.198	38.97
921.567	39
921.937	39.01
922.306	39.01
922.676	39.02
923.045	39.03
923.415	39.02
923.784	39.03
924.153	39.03
924.522	39.05
924.891	39.08
925.26	39.06
925.629	39.07
925.998	39.07
926.367	39.1
926.736	39.12
927.104	39.15
927.473	39.15
927.842	39.15
928.21	39.17
928.578	39.16
928.947	39.16
929.315	39.18
929.683	39.17
930.051	39.17
930.42	39.19
930.788	39.17
931.156	39.16
931.523	39.14
931.891	39.22
932.259	39.22
932.627	39.23
932.994	39.24
933.362	39.25
933.729	39.28
934.097	39.34
934.464	39.39
934.831	39.4
935.199	39.46
935.566	39.56
935.933	39.52
936.3	39.54
936.667	39.55
937.034	39.61
937.401	39.68
937.767	39.72
938.134	39.72
938.501	39.74
938.867	39.83
939.234	39.85
939.6	39.87
939.967	39.91
940.333	39.93
940.699	40.02
941.065	40
941.431	40
941.798	40.02
942.163	40.08
942.529	40.05
942.895	40.02
943.261	40.02
943.627	40.02
943.992	40.04
944.358	40.05
944.723	40
945.089	39.93
945.454	39.92
945.82	39.9
946.185	39.85
946.55	39.82
946.915	39.86
947.28	39.82
947.645	39.8
948.01	39.78
948.375	39.79
948.74	39.76
949.104	39.85
949.469	39.82
949.834	39.78
950.198	39.76
950.562	39.69
950.927	39.61
951.291	39.53
951.655	39.46
952.02	39.43
952.384	39.37
952.748	39.33
953.112	39.27
953.476	39.22
953.839	39.19
954.203	39.13
954.567	39.16
954.931	39.08
955.294	39.11
955.658	39.14
956.021	39.12
956.385	39.1
956.748	39.1
957.111	39.09
957.474	39.06
957.837	39.01
958.2	39.02
958.563	38.98
958.926	39.04
959.289	39.03
959.652	38.99
960.015	38.98
960.377	38.99
960.74	39.03
961.102	39
961.465	39.06
961.827	39.14
962.189	39.18
962.552	39.18
962.914	39.16
963.276	39.17
963.638	39.17
964	39.16
964.362	39.18
964.724	39.11
965.085	39.14
965.447	39.07
965.809	39.02
966.17	38.98
966.532	38.98
966.893	39
967.255	39
967.616	39.04
967.977	39.04
968.338	39.01
968.699	39.07
969.061	39.07
969.421	39.12
969.782	39.17
970.143	39.21
970.504	39.27
970.865	39.32
971.225	39.29
971.586	39.25
971.946	39.24
972.307	39.27
972.667	39.26
973.027	39.3
973.388	39.29
973.748	39.26
974.108	39.35
974.468	39.34
974.828	39.4
975.188	39.46
975.548	39.51
975.907	39.54
976.267	39.52
976.627	39.57
976.986	39.53
977.346	39.57
977.705	39.58
978.064	39.51
978.424	39.49
978.783	39.44
979.142	39.44
979.501	39.46
979.86	39.51
980.219	39.56
980.578	39.56
980.937	39.65
981.296	39.67
981.654	39.69
982.013	39.73
982.371	39.79
982.73	39.81
983.088	39.82
983.447	39.84
983.805	39.87
984.163	39.85
984.521	39.88
984.879	39.83
985.237	39.88
985.595	39.96
985.953	39.99
986.311	40
986.669	40.01
987.026	40.09
987.384	40.17
987.741	40.14
988.099	40.24
988.456	40.23
988.814	40.31
989.171	40.32
989.528	40.37
989.885	40.32
990.242	40.36
990.599	40.37
990.956	40.42
991.313	40.44
991.67	40.56
992.027	40.75
992.383	40.83
992.74	40.93
993.096	40.94
993.453	40.93
993.809	41.04
994.165	41.12
994.522	41.28
994.878	41.28
995.234	41.28
995.59	41.26
995.946	41.14
996.302	41.23
996.658	41.28
997.013	41.34
997.369	41.4
997.725	41.41
998.08	41.43
998.436	41.39
998.791	41.52
999.147	41.57
999.502	41.67
999.857	41.74
1000.212	41.75
1000.567	41.78
1000.922	41.88
1001.277	41.97
1001.632	42.02
1001.987	42.1
1002.342	42.2
1002.696	42.19
1003.051	42.46
1003.406	42.59
1003.76	42.66
1004.114	42.65
1004.469	42.69
1004.823	42.95
1005.177	42.91
1005.531	43.01
1005.885	43.14
1006.239	43.15
1006.593	43.31
1006.947	43.28
1007.301	43.24
1007.655	43.33
1008.008	43.53
1008.362	43.67
1008.715	43.53
1009.069	43.73
1009.422	43.91
1009.776	43.88
1010.129	44.1
1010.482	44.1
1010.835	44.13
1011.188	44.34
1011.541	44.31
1011.894	44.43
1012.247	44.54
1012.6	44.69
1012.952	44.73
1013.305	44.86
1013.657	45.14
1014.01	45.28
1014.362	45.34
1014.715	45.47
1015.067	45.6
1015.419	45.86
1015.771	45.89
1016.123	46
1016.475	46.08
1016.827	46.31
1017.179	46.31
1017.531	46.3
1017.883	46.33
1018.234	46.62
1018.586	46.74
1018.938	47.07
1019.289	47.02
1019.64	47.19
1019.992	47.34
1020.343	47.5
1020.694	47.79
1021.045	48.09
1021.396	48.38
1021.747	48.61
1022.098	48.82
1022.449	48.92
1022.8	48.97
1023.151	49.34
1023.501	49.58
1023.852	49.75
1024.202	49.72
1024.553	49.56
1024.903	49.63
1025.253	49.95
1025.604	49.91
1025.954	49.75
1026.304	50.08
1026.654	50.22
1027.004	50.29
1027.354	50.49
1027.703	50.64
1028.053	51
1028.403	51.36
1028.753	51.15
1029.102	51.19
1029.452	51.56
1029.801	52.03
1030.15	52.01
1030.499	51.87
897.758	1496.09
901.051	1501.73
904.343	1497.02
907.636	1524.4
910.928	1482.67
914.22	1482.32
917.511	1463.55
920.803	1400.41
924.094	1396.99
927.384	1363.48
930.675	1305.57
933.965	1296.21
937.255	1222.36
940.544	1173.46
943.834	1118.67
947.123	1110.54
950.411	1043.11
953.7	1022.13
956.988	965.8
960.276	926.11
963.563	912.8
966.851	880.7
970.138	873.13
973.424	845.33
976.711	850.44
979.997	805.95
983.283	800.91
986.568	785.69
989.853	761.8
993.138	749.73
996.423	718.88
999.708	698.4
1002.992	690.28
1006.275	658.87
1009.559	652.88
1012.842	628.24
1016.125	612.02
1019.408	600.66
1022.69	591.86
1025.972	579.23
1029.254	564.43
1032.536	555.35
1035.817	544.05
1039.098	536.8
1042.379	525.33
1045.659	518.87
1048.939	506.16
1052.219	495.9
1055.498	486.88
1058.778	475.69
1062.057	464.5
1065.335	459.75
1068.614	454.52
1071.892	448.83
1075.17	434.2
1078.447	426.28
1081.724	422.6
1085.001	419.53
1088.278	410.68
1091.554	403.64
1094.83	403.66
1098.106	400.62
1101.382	396.52
1104.657	393.71
1107.932	386.23
1111.206	389.49
1114.481	378.84
1117.755	375.68
1121.029	372.36
1124.302	371.98
1127.575	364.54
1130.848	360.04
1134.121	356.86
1137.393	355.22
1140.665	346.64
1143.937	346.46
1147.208	342.62
1150.48	342.81
1153.75	337.52
1157.021	332.33
1160.291	332.56
1163.561	329.49
1166.831	329.21
1170.101	326.32
1173.37	325.17
1176.639	326.54
1179.907	322.63
1183.176	319.46
1186.444	318.9
1189.711	318.7
1192.979	318.23
1196.246	315.26
1199.513	316.63
1202.78	314.93
1206.046	315.06
1209.312	311.91
1212.578	312.48
1215.843	314.3
1219.108	312.92
1222.373	319.69
1225.638	321.84
1228.902	326.5
1232.166	327.22
1235.43	329.84
1238.693	333.49
1241.956	335.01
1245.219	341.55
1248.482	340.73
1251.744	341.39
1255.006	342.52
1258.268	334.05
1261.529	331.03
1264.79	328.1
1268.051	326.28
1271.312	322.29
1274.572	318.34
1277.832	315.13
1281.092	309.47
1284.351	307.2
1287.61	307.04
1290.869	302.14
1294.128	299.77
1297.386	300.26
1300.644	297.37
1303.902	298.09
1307.159	296.61
1310.416	297.12
1313.673	296.97
1316.93	299.74
1320.186	300.63
1323.442	300.87
1326.697	306.96
1329.953	308.64
1333.208	309.18
1336.463	313.01
1339.717	313.65
1342.972	317.56
1346.226	320
1349.479	320.45
1352.733	322.48
1355.986	323.36
1359.238	323.42
1362.491	325.26
1365.743	327.67
1368.995	328.78
1372.247	327.06
1375.498	327.43
1378.749	330.48
1382	326.58
1385.251	328.37
1388.501	326.54
1391.751	328.74
1395	327.72
1398.25	324.56
1401.499	323.54
1404.748	323.17
1407.996	320.82
1411.244	319.58
1414.492	317.49
1417.74	315.41
1420.987	310.53
1424.234	310.8
1427.481	306.03
1430.728	306.25
1433.974	302.83
1437.22	300.35
1440.465	299.06
1443.711	297.8
1446.956	296.01
1450.201	291.73
1453.445	289.3
1456.689	288.59
1459.933	282.65
1463.177	280.96
1466.42	276.37
1469.663	273.45
1472.906	271.67
1476.148	264.83
1479.391	261.2
1482.633	258.54
1485.874	254.64
1489.115	252.93
1492.356	249.83
1495.597	249.87
1498.838	245.8
1502.078	244.13
1505.318	243.05
1508.557	242.19
1511.797	241.97
1515.036	240.7
1518.274	239.73
1521.513	236.97
1524.751	236.57
1527.989	235.64
1531.227	234.41
1534.464	234.87
1537.701	232.86
1540.938	232.2
1544.174	230.05
1547.41	229.37
1550.646	228.06
1553.882	228.18
1557.117	225.94
1560.352	224.4
1563.587	223.62
1566.821	221.93
1570.055	219.27
1573.289	217.92
1576.523	217.78
1579.756	215.37
1582.989	214.11
1586.222	214.17
1589.454	212.21
1592.686	214.01
1595.918	213.03
1599.15	212.11
1602.381	212.27
1605.612	212.13
1608.843	213.37
1612.073	212.8
1615.303	214.39
1618.533	214.8
1621.762	213.9
1624.992	214.65
1628.221	214.04
1631.449	214.21
1634.678	213.08
1637.906	214.37
1641.134	214.23
1644.361	213.52
1647.588	214.33
1650.815	213.35
1654.042	212.32
1657.269	213.93
1660.495	213.67
1663.72	212.33
1666.946	213.22
1670.171	214.39
1673.396	213.82
1676.621	214.3
1679.845	214.34
1683.069	214.12
1686.293	215.72
1689.517	216.83
1692.74	216.12
1695.963	217.01
1699.185	220.08
1702.408	219.68
1705.63	220.57
1708.852	221.14
1712.073	221.81
1715.294	222.26
1718.515	224.13
1721.736	223.48
1724.956	224.48
1728.176	224.3
1731.396	226.76
1734.616	225.45
1737.835	226.65
1741.054	225.49
1744.272	225.8
1747.491	227.58
1750.709	228.52
1753.927	227.7
1757.144	227.51
1760.361	228.45
1763.578	228.74
1766.795	227.8
1770.011	229.64
1773.227	229.77
1776.443	232.37
1779.658	233.72
1782.874	233.45
1786.089	234.24
1789.303	235.14
1792.518	237.64
1795.732	237.7
1798.945	240.99
1802.159	240.66
1805.372	241.39
1808.585	245.73
1811.797	246.44
1815.01	247.14
1818.222	248.91
1821.434	251.22
1824.645	252
1827.856	256.01
1831.067	257.73
1834.278	256.97
1837.488	258.9
1840.698	260.94
1843.908	258.03
1847.117	259.93
1850.326	261.33
1853.535	260.6
1856.744	264.34
1859.952	264.51
1863.16	263.06
1866.368	261.77
1869.575	265.11
1872.782	261.41
1875.989	260.58
1879.196	260.29
1882.402	258.2
1885.608	259.24
1888.814	260.42
1892.019	258.97
1895.224	258.32
1898.429	257.28
1901.634	259.08
1904.838	258.63
1908.042	262.82
1911.246	263.81
1914.449	265.19
1917.652	265.34
1920.855	265.52
1924.058	264.67
1927.26	263.75
1930.462	264.54
1933.664	268.18
1936.865	265.78
1940.066	265.22
1943.267	262.96
1946.467	262.76
1949.668	264.49
1952.868	268.25
1956.067	267.71
1959.267	268.63
1962.466	269.5
1965.665	268.1
1968.863	268.22
1972.061	272.16
1975.259	274.98
1978.457	277.38
1981.654	280.01
1984.852	280.44
1988.048	279.34
1991.245	282.02
1994.441	285.87
1997.637	286.9
2000.833	293.18
2004.028	297.09
2007.223	298.09
2010.418	300.68
2013.613	305.89
2016.807	308.45
2020.001	311.3
2023.194	315.46
2026.388	322.84
2029.581	328.95
2032.774	333.15
2035.966	338.56
2039.158	338.81
2042.35	346.14
2045.542	349.12
2048.733	354.51
2051.924	358.98
2055.115	365.87
2058.306	367.02
2061.496	370.22
2064.686	370.41
2067.875	376.37
2071.065	378.91
2074.254	376.82
2077.442	381.42
2080.631	382.13
2083.819	385.4
2087.007	387.22
2090.195	389.68
2093.382	393.73
2096.569	390.65
2099.756	397.08
2102.942	398.04
2106.128	402.22
2109.314	411.34
2112.5	409.28
2115.685	418.82
2118.87	419.71
2122.055	426.48
2125.239	430.96
2128.424	435.39
2131.608	439.68
2134.791	445.06
2137.974	446.57
2141.157	447.43
2144.34	448.57
2147.523	456.1
2150.705	452.6
2153.887	456.74
2157.068	458.02
2160.25	453.81
2163.431	456.27
2166.611	461.06
2169.792	469.68
2172.972	475.58
2176.152	478.33
2179.331	484.58
2182.511	491.7
2185.69	499.42
2188.868	509.59
2192.047	509.65
2195.225	524.17
2198.403	538.43
2201.58	548.58
2204.758	558.29
2207.935	569.29
2211.111	579.88
2214.288	587.41
2217.464	589.29
2220.64	595.03
2223.815	602.87
2226.991	629.02
2230.166	629.86
2233.34	640.32
2236.515	651.07
2239.689	651.4
2242.863	656.45
2246.036	676.01
2249.209	669.42
2252.382	680.97
2255.555	703.49
2258.727	705.44
2261.9	709.69
2265.071	716.93
2268.243	726.9
2271.414	734.56
2274.585	753.45
2277.756	760.18
2280.926	764.8
2284.096	784.38
2287.266	802.73
2290.436	806.93
2293.605	825.68
2296.774	852.23
2299.942	878.23
2303.111	884.53
2306.279	903.49
2309.447	915.93
2312.614	938.54
2315.781	963.4
2318.948	1008.21
2322.115	992.09
2325.281	1047.04
2328.447	1025.07
2331.613	1067.29
2334.779	1055.76
2337.944	1100.68
2341.109	1111.86
2344.274	1140.55
2347.438	1183.22
2350.602	1183.56
2353.766	1217.62
2356.929	1236.5
2360.092	1226.33
2363.255	1316.71
2366.418	1308.49
2369.58	1337.98
2372.742	1421.48
2375.904	1458.57
2379.066	1446.67
2382.227	1421.19
2385.388	1536.46
2388.548	1542.67
2391.709	1560.27
2394.869	1741.32
2398.029	1663.47
2401.188	1711.33
2404.347	1702.72
2407.506	1670.15
2410.665	1721.63
2413.823	1825.89
2416.981	1929.33
2420.139	1871.03
2423.296	1845.03
2426.453	1925.65
2429.61	1851.86
2432.767	1944.18
2435.923	1922.33
2439.079	2099.03
2442.235	2131.17
2445.391	2105.97
2448.546	2096.38
2451.701	2032.37
2454.855	2032.07
2458.009	2161.76
2461.163	2246.72
2464.317	2326.09
2467.471	2385.12
2470.624	2391.06
2473.777	2321.37
2476.929	2262.75
2480.082	2197.98
2483.234	2168.06
2486.385	2283.75
2489.537	2293.25
2492.688	2375.46
2495.839	2316.94
2498.989	2267.59
2502.14	2276.36
2505.29	2299.82
2508.439	2341.13
2511.589	2334.38
2514.738	2547.05
2517.887	2493.97
2521.035	2635.12
2524.183	2655.25
2527.331	2675.12
2530.479	2662.33
2533.627	2684.31
