Data from N_2_DIV_PA_2N_Splice17_13-38-46-173.txt Node
Date: Sat Mar 07 13:38:46 EST 2020
User: sa697716
Spectrometer: NQ5500242
Trigger mode: 0
Integration Time (sec): 1.450000E-1
Scans to average: 20
Nonlinearity correction enabled: false
Boxcar width: 5
Storing dark spectrum: false
XAxis mode: Wavelengths
Number of Pixels in Spectrum: 512
>>>>>Begin Spectral Data<<<<<
187.83	173.2
188.298	195.23
188.766	169.1
189.233	138.75
189.701	145.61
190.169	187.93
190.636	202.66
191.104	330.92
191.571	260.39
192.039	-100.15
192.506	-431.32
192.974	57.09
193.441	161.51
193.908	13.16
194.375	21.91
194.842	-0.33
195.31	129.47
195.777	341.24
196.244	105.79
196.711	87.89
197.177	87.09
197.644	85.41
198.111	85.16
198.578	84.74
199.045	84.99
199.511	84.67
199.978	84.47
200.445	84.36
200.911	84.32
201.378	84.21
201.844	83.67
202.31	82.88
202.777	82.52
203.243	82.35
203.709	81.99
204.176	81.41
204.642	80.9
205.108	80.46
205.574	79.59
206.04	78.5
206.506	77.66
206.972	77.22
207.438	76.29
207.903	75.15
208.369	73.49
208.835	71.61
209.301	69.79
209.766	67.55
210.232	65.3
210.697	63.22
211.163	61.12
211.628	59.34
212.094	57.35
212.559	55.86
213.024	54.36
213.49	52.8
213.955	51.47
214.42	49.8
214.885	48.06
215.35	45.85
215.815	43.15
216.28	39.77
216.745	35.68
217.21	31.75
217.675	27.94
218.14	24.67
218.604	21.84
219.069	19.4
219.534	17.49
219.998	15.83
220.463	14.51
220.927	13.26
221.392	12.36
221.856	11.61
222.32	10.95
222.785	10.45
223.249	9.99
223.713	9.55
224.177	9.21
224.642	8.87
225.106	8.52
225.57	8.2
226.034	7.97
226.497	7.73
226.961	7.53
227.425	7.33
227.889	7.11
228.353	6.92
228.816	6.77
229.28	6.61
229.744	6.44
230.207	6.32
230.671	6.19
231.134	6.05
231.597	5.94
232.061	5.81
232.524	5.72
232.987	5.62
233.45	5.53
233.914	5.44
234.377	5.35
234.84	5.27
235.303	5.21
235.766	5.15
236.229	5.1
236.691	5.03
237.154	4.98
237.617	4.92
238.08	4.87
238.542	4.81
239.005	4.75
239.468	4.71
239.93	4.68
240.393	4.64
240.855	4.58
241.317	4.52
241.78	4.48
242.242	4.42
242.704	4.4
243.166	4.34
243.629	4.32
244.091	4.28
244.553	4.24
245.015	4.19
245.477	4.14
245.939	4.11
246.4	4.08
246.862	4.05
247.324	4.01
247.786	3.96
248.247	3.93
248.709	3.88
249.17	3.84
249.632	3.81
250.093	3.78
250.555	3.76
251.016	3.73
251.477	3.69
251.939	3.67
252.4	3.65
252.861	3.63
253.322	3.62
253.783	3.6
254.244	3.59
254.705	3.56
255.166	3.54
255.627	3.51
256.088	3.49
256.549	3.47
257.009	3.44
257.47	3.4
257.931	3.37
258.391	3.33
258.852	3.29
259.312	3.26
259.773	3.23
260.233	3.2
260.694	3.17
261.154	3.14
261.614	3.11
262.074	3.07
262.534	3.05
262.994	3.03
263.455	3
263.915	2.98
264.374	2.95
264.834	2.93
265.294	2.91
265.754	2.89
266.214	2.87
266.673	2.85
267.133	2.84
267.593	2.83
268.052	2.81
268.512	2.81
268.971	2.8
269.431	2.79
269.89	2.78
270.349	2.77
270.809	2.77
271.268	2.76
271.727	2.76
272.186	2.75
272.645	2.75
273.104	2.74
273.563	2.74
274.022	2.73
274.481	2.74
274.94	2.74
275.399	2.73
275.857	2.73
276.316	2.73
276.775	2.73
277.233	2.73
277.692	2.73
278.15	2.73
278.609	2.74
279.067	2.74
279.525	2.73
279.984	2.73
280.442	2.73
280.9	2.74
281.358	2.75
281.816	2.75
282.274	2.76
282.732	2.76
283.19	2.76
283.648	2.76
284.106	2.76
284.564	2.76
285.021	2.77
285.479	2.77
285.937	2.76
286.394	2.76
286.852	2.75
287.309	2.75
287.767	2.74
288.224	2.73
288.682	2.72
289.139	2.7
289.596	2.69
290.053	2.66
290.511	2.64
290.968	2.63
291.425	2.61
291.882	2.6
292.339	2.58
292.796	2.56
293.252	2.56
293.709	2.55
294.166	2.55
294.623	2.55
295.079	2.55
295.536	2.55
295.992	2.55
296.449	2.55
296.905	2.55
297.362	2.55
297.818	2.54
298.274	2.54
298.731	2.53
299.187	2.52
299.643	2.52
300.099	2.52
300.555	2.51
301.011	2.51
301.467	2.51
301.923	2.5
302.379	2.51
302.835	2.52
303.291	2.52
303.746	2.53
304.202	2.53
304.658	2.54
305.113	2.54
305.569	2.55
306.024	2.56
306.479	2.56
306.935	2.56
307.39	2.57
307.845	2.58
308.301	2.59
308.756	2.59
309.211	2.59
309.666	2.61
310.121	2.61
310.576	2.62
311.031	2.63
311.486	2.63
311.94	2.65
312.395	2.65
312.85	2.65
313.305	2.65
313.759	2.65
314.214	2.65
314.668	2.65
315.123	2.64
315.577	2.65
316.032	2.64
316.486	2.64
316.94	2.63
317.394	2.63
317.849	2.62
318.303	2.61
318.757	2.6
319.211	2.59
319.665	2.57
320.119	2.56
320.572	2.55
321.026	2.55
321.48	2.54
321.934	2.53
322.387	2.53
322.841	2.53
323.295	2.54
323.748	2.54
324.202	2.54
324.655	2.55
325.108	2.57
325.562	2.57
326.015	2.57
326.468	2.57
326.921	2.58
327.374	2.58
327.827	2.58
328.28	2.58
328.733	2.59
329.186	2.59
329.639	2.59
330.092	2.59
330.545	2.6
330.997	2.6
331.45	2.62
331.903	2.63
332.355	2.65
332.808	2.64
333.26	2.64
333.713	2.65
334.165	2.65
334.617	2.67
335.069	2.65
335.522	2.66
335.974	2.67
336.426	2.66
336.878	2.66
337.33	2.66
337.782	2.66
338.234	2.67
338.686	2.68
339.137	2.69
339.589	2.67
340.041	2.68
340.493	2.67
340.944	2.65
341.396	2.63
341.847	2.61
342.299	2.6
342.75	2.59
343.201	2.56
343.653	2.55
344.104	2.53
344.555	2.52
345.006	2.5
345.457	2.5
345.908	2.5
346.359	2.5
346.81	2.49
347.261	2.49
347.712	2.49
348.163	2.48
348.613	2.49
349.064	2.49
349.515	2.5
349.965	2.51
350.416	2.5
350.866	2.51
351.317	2.5
351.767	2.51
352.217	2.51
352.668	2.52
353.118	2.52
353.568	2.52
354.018	2.52
354.468	2.53
354.918	2.52
355.368	2.53
355.818	2.53
356.268	2.54
356.718	2.55
357.168	2.55
357.617	2.54
358.067	2.54
358.517	2.55
358.966	2.55
359.416	2.55
359.865	2.55
360.315	2.56
360.764	2.56
361.213	2.55
361.663	2.54
362.112	2.55
362.561	2.56
363.01	2.56
363.459	2.54
363.908	2.54
364.357	2.54
364.806	2.55
365.255	2.54
365.703	2.55
366.152	2.57
366.601	2.58
367.05	2.58
367.498	2.58
367.947	2.6
368.395	2.61
368.844	2.61
369.292	2.61
369.74	2.61
370.189	2.62
370.637	2.61
371.085	2.61
371.533	2.6
371.981	2.61
372.429	2.61
372.877	2.6
373.325	2.61
373.773	2.61
374.221	2.61
374.669	2.61
375.116	2.6
375.564	2.61
376.012	2.62
376.459	2.62
376.907	2.63
377.354	2.64
377.801	2.66
378.249	2.67
378.696	2.67
379.143	2.68
379.591	2.69
380.038	2.71
380.485	2.71
380.932	2.72
381.379	2.73
381.826	2.74
382.273	2.75
382.72	2.75
383.166	2.77
383.613	2.79
384.06	2.8
384.506	2.82
384.953	2.84
385.4	2.87
385.846	2.91
386.292	2.93
386.739	2.96
387.185	3
387.631	3.04
388.078	3.07
388.524	3.11
388.97	3.13
389.416	3.18
389.862	3.23
390.308	3.28
390.754	3.34
391.2	3.41
391.645	3.47
392.091	3.53
392.537	3.58
392.983	3.65
393.428	3.74
393.874	3.85
394.319	3.97
394.765	4.1
395.21	4.21
395.655	4.34
396.101	4.48
396.546	4.63
396.991	4.81
397.436	5
397.881	5.2
398.326	5.39
398.771	5.57
399.216	5.73
399.661	5.88
400.106	6.02
400.551	6.12
400.995	6.22
401.44	6.32
401.885	6.42
402.329	6.53
402.774	6.63
403.218	6.75
403.663	6.87
404.107	7.01
404.551	7.14
404.995	7.28
405.44	7.41
405.884	7.54
406.328	7.69
406.772	7.84
407.216	8
407.66	8.16
408.104	8.28
408.547	8.42
408.991	8.55
409.435	8.68
409.879	8.83
410.322	8.99
410.766	9.18
411.209	9.35
411.653	9.51
412.096	9.66
412.54	9.79
412.983	9.95
413.426	10.12
413.869	10.25
414.312	10.41
414.756	10.55
415.199	10.67
415.642	10.76
416.085	10.85
416.527	10.9
416.97	10.93
417.413	10.95
417.856	10.95
418.298	10.94
418.741	10.96
419.184	11
419.626	11.05
420.069	11.1
420.511	11.18
420.953	11.27
421.396	11.38
421.838	11.5
422.28	11.65
422.722	11.81
423.164	11.94
423.606	12.06
424.048	12.14
424.49	12.16
424.932	12.13
425.374	12
425.816	11.81
426.258	11.64
426.699	11.52
427.141	11.51
427.582	11.59
428.024	11.74
428.465	11.9
428.907	12.03
429.348	12.18
429.789	12.39
430.231	12.74
430.672	13.18
431.113	13.65
431.554	14.11
431.995	14.47
432.436	14.74
432.877	14.95
433.318	15.15
433.759	15.38
434.2	15.64
434.64	15.92
435.081	16.18
435.522	16.41
435.962	16.6
436.403	16.77
436.843	16.92
437.284	17.07
437.724	17.24
438.164	17.44
438.604	17.68
439.045	17.93
439.485	18.15
439.925	18.34
440.365	18.53
440.805	18.68
441.245	18.83
441.685	18.96
442.125	19.11
442.564	19.29
443.004	19.45
443.444	19.64
443.883	19.82
444.323	20
444.762	20.18
445.202	20.38
445.641	20.64
446.081	20.93
446.52	21.22
446.959	21.51
447.398	21.73
447.837	21.87
448.276	21.93
448.716	21.99
449.154	22.04
449.593	22.08
450.032	22.07
450.471	22
450.91	21.94
451.349	21.87
451.787	21.8
452.226	21.75
452.664	21.75
453.103	21.75
453.541	21.74
453.98	21.72
454.418	21.67
454.856	21.63
455.295	21.58
455.733	21.53
456.171	21.51
456.609	21.5
457.047	21.48
457.485	21.49
457.923	21.57
458.361	21.66
458.798	21.78
459.236	21.89
459.674	22
460.111	22.14
460.549	22.26
460.987	22.38
461.424	22.54
461.862	22.69
462.299	22.8
462.736	22.91
463.173	23.06
463.611	23.21
464.048	23.42
464.485	23.66
464.922	23.91
465.359	24.15
465.796	24.4
466.233	24.61
466.67	24.85
467.106	25.16
467.543	25.48
467.98	25.77
468.416	26.05
468.853	26.29
469.29	26.5
469.726	26.73
470.162	26.99
470.599	27.22
471.035	27.43
471.471	27.6
471.907	27.69
472.344	27.75
472.78	27.82
473.216	27.91
473.652	27.99
474.088	28.04
474.523	28.11
474.959	28.12
475.395	28.14
475.831	28.14
476.266	28.17
476.702	28.18
477.138	28.2
477.573	28.2
478.008	28.14
478.444	28.06
478.879	27.99
479.314	27.83
479.75	27.67
480.185	27.49
480.62	27.27
481.055	26.92
481.49	26.47
481.925	25.97
482.36	25.48
482.795	25.07
483.229	24.75
483.664	24.51
484.099	24.3
484.534	24.14
484.968	24.01
485.403	23.96
485.837	24.04
486.271	24.24
486.706	24.44
487.14	24.62
487.574	24.71
488.009	24.74
488.443	24.74
488.877	24.79
489.311	24.84
489.745	24.89
490.179	24.96
490.613	25
491.046	25.04
491.48	25.1
491.914	25.21
492.348	25.35
492.781	25.52
493.215	25.67
493.648	25.76
494.082	25.82
494.515	25.87
494.948	25.9
495.382	25.93
495.815	25.96
496.248	25.99
496.681	25.98
497.114	25.95
497.547	25.91
497.98	25.91
498.413	25.96
498.846	26.06
499.279	26.14
499.711	26.2
500.144	26.29
500.577	26.42
501.009	26.59
501.442	26.81
501.874	27.08
502.306	27.33
502.739	27.54
503.171	27.7
503.603	27.83
504.036	28
504.468	28.18
504.9	28.36
505.332	28.52
505.764	28.65
506.196	28.77
506.627	28.88
507.059	29.04
507.491	29.19
507.923	29.38
508.354	29.59
508.786	29.74
509.217	29.85
509.649	29.94
510.08	30.02
510.512	30.11
510.943	30.22
511.374	30.3
511.805	30.33
512.237	30.24
512.668	30.11
513.099	29.97
513.53	29.87
513.961	29.82
514.391	29.81
514.822	29.86
515.253	29.94
515.684	30.03
516.114	30.16
516.545	30.34
516.975	30.67
517.406	31.04
517.836	31.43
518.267	31.77
518.697	32.07
519.127	32.38
519.558	32.68
519.988	32.95
520.418	33.2
520.848	33.41
521.278	33.57
521.708	33.81
522.138	33.82
522.567	33.74
522.997	33.71
523.427	33.74
523.857	33.81
524.286	33.85
524.716	33.9
525.145	33.96
525.575	34
526.004	34.1
526.433	34.09
526.863	34.35
527.292	34.66
527.721	34.88
528.15	34.99
528.579	35
529.008	35
529.437	34.95
529.866	34.89
530.295	34.87
530.724	34.86
531.152	34.85
531.581	34.84
532.01	34.78
532.438	34.76
532.867	34.79
533.295	34.84
533.723	34.88
534.152	34.96
534.58	35.01
535.008	34.99
535.436	34.92
535.865	34.78
536.293	34.63
536.721	34.54
537.149	34.5
537.576	34.51
538.004	34.55
538.432	34.54
538.86	34.55
539.287	34.58
539.715	34.67
540.143	34.8
540.57	34.98
540.998	35.18
541.425	35.36
541.852	35.55
542.28	35.72
542.707	35.85
543.134	36
543.561	36.12
543.988	36.26
544.415	36.38
544.842	36.51
545.269	36.67
545.696	36.8
546.123	36.94
546.549	37.08
546.976	37.2
547.403	37.35
547.829	37.51
548.256	37.69
548.682	37.82
549.108	37.96
549.535	38.1
549.961	38.23
550.387	38.37
550.813	38.5
551.24	38.63
551.666	38.73
552.092	38.79
552.518	38.82
552.943	38.82
553.369	38.85
553.795	38.83
554.221	38.76
554.646	38.63
555.072	38.49
555.498	38.34
555.923	38.19
556.349	38.08
556.774	37.98
557.199	37.91
557.625	37.82
558.05	37.74
558.475	37.68
558.9	37.64
559.325	37.61
559.75	37.55
560.175	37.48
560.6	37.39
561.025	37.24
561.449	37.06
561.874	36.86
562.299	36.66
562.723	36.48
563.148	36.26
563.572	36.02
563.997	35.79
564.421	35.54
564.846	35.28
565.27	35.04
565.694	34.81
566.118	34.58
566.542	34.34
566.966	34.08
567.39	33.84
567.814	33.62
568.238	33.46
568.662	33.32
569.086	33.22
569.509	33.13
569.933	33.03
570.357	32.92
570.78	32.85
571.204	32.79
571.627	32.76
572.05	32.7
572.474	32.63
572.897	32.54
573.32	32.43
573.743	32.31
574.166	32.19
574.589	32.09
575.012	32.01
575.435	31.95
575.858	31.93
576.281	31.93
576.704	31.95
577.126	31.98
577.549	32.04
577.972	32.12
578.394	32.23
578.817	32.38
579.239	32.53
579.661	32.7
580.084	32.86
580.506	33.01
580.928	33.13
581.35	33.23
581.772	33.3
582.194	33.4
582.616	33.52
583.038	33.63
583.46	33.73
583.882	33.79
584.303	33.78
584.725	33.69
585.147	33.61
585.568	33.57
585.99	33.58
586.411	33.67
586.833	33.75
587.254	33.81
587.675	33.9
588.096	34
588.518	34.16
588.939	34.39
589.36	34.68
589.781	35
590.202	35.3
590.623	35.55
591.043	35.73
591.464	35.9
591.885	36.05
592.305	36.2
592.726	36.34
593.147	36.46
593.567	36.53
593.987	36.6
594.408	36.64
594.828	36.69
595.248	36.75
595.669	36.8
596.089	36.81
596.509	36.81
596.929	36.78
597.349	36.72
597.769	36.67
598.189	36.63
598.608	36.64
599.028	36.67
599.448	36.69
599.867	36.71
600.287	36.73
600.706	36.78
601.126	36.84
601.545	36.9
601.965	36.96
602.384	37.03
602.803	37.07
603.222	37.09
603.641	37.08
604.061	37.08
604.48	37.03
604.898	36.98
605.317	36.93
605.736	36.87
606.155	36.8
606.574	36.74
606.992	36.68
607.411	36.64
607.829	36.56
608.248	36.5
608.666	36.43
609.085	36.38
609.503	36.33
609.921	36.26
610.339	36.21
610.758	36.16
611.176	36.1
611.594	36.02
612.012	35.91
612.43	35.81
612.847	35.71
613.265	35.62
613.683	35.57
614.101	35.54
614.518	35.51
614.936	35.49
615.353	35.45
615.771	35.47
616.188	35.48
616.606	35.53
617.023	35.61
617.44	35.64
617.857	35.66
618.274	35.62
618.691	35.56
619.108	35.5
619.525	35.41
619.942	35.32
620.359	35.18
620.776	35.06
621.192	34.91
621.609	34.78
622.026	34.67
622.442	34.57
622.859	34.51
623.275	34.43
623.691	34.33
624.108	34.25
624.524	34.18
624.94	34.14
625.356	34.07
625.772	34.01
626.188	33.97
626.604	33.9
627.02	33.84
627.436	33.77
627.852	33.73
628.268	33.73
628.683	33.74
629.099	33.74
629.514	33.73
629.93	33.75
630.345	33.79
630.761	33.81
631.176	33.85
631.591	33.88
632.007	33.91
632.422	33.93
632.837	33.96
633.252	33.99
633.667	34.02
634.082	34.06
634.497	34.09
634.911	34.1
635.326	34.1
635.741	34.08
636.155	34.05
636.57	34.02
636.984	33.98
637.399	33.92
637.813	33.87
638.228	33.81
638.642	33.76
639.056	33.68
639.47	33.63
639.884	33.57
640.298	33.51
640.712	33.49
641.126	33.44
641.54	33.39
641.954	33.33
642.368	33.24
642.781	33.17
643.195	33.08
643.609	32.99
644.022	32.91
644.436	32.82
644.849	32.72
645.262	32.58
645.676	32.46
646.089	32.37
646.502	32.33
646.915	32.28
647.328	32.23
647.741	32.18
648.154	32.15
648.567	32.11
648.98	32.08
649.393	32.08
649.805	32.1
650.218	32.1
650.631	32.06
651.043	31.91
651.456	31.66
651.868	31.31
652.28	30.91
652.693	30.56
653.105	30.26
653.517	30.04
653.929	29.87
654.341	29.74
654.753	29.64
655.165	29.57
655.577	29.57
655.989	29.71
656.401	29.94
656.813	30.23
657.224	30.47
657.636	30.65
658.047	30.78
658.459	30.81
658.87	30.8
659.282	30.77
659.693	30.73
660.104	30.66
660.515	30.58
660.926	30.49
661.338	30.41
661.749	30.3
662.159	30.18
662.57	30.05
662.981	29.94
663.392	29.84
663.803	29.74
664.213	29.65
664.624	29.57
665.035	29.49
665.445	29.4
665.855	29.29
666.266	29.2
666.676	29.1
667.086	28.97
667.497	28.86
667.907	28.74
668.317	28.62
668.727	28.52
669.137	28.42
669.547	28.32
669.956	28.21
670.366	28.12
670.776	28.03
671.186	27.95
671.595	27.9
672.005	27.83
672.414	27.8
672.824	27.74
673.233	27.7
673.642	27.64
674.052	27.6
674.461	27.54
674.87	27.51
675.279	27.49
675.688	27.47
676.097	27.45
676.506	27.45
676.915	27.42
677.323	27.4
677.732	27.38
678.141	27.37
678.549	27.35
678.958	27.36
679.366	27.36
679.775	27.33
680.183	27.32
680.592	27.32
681	27.3
681.408	27.3
681.816	27.27
682.224	27.12
682.632	26.85
683.04	26.48
683.448	26.1
683.856	25.73
684.264	25.42
684.671	25.12
685.079	24.83
685.487	24.57
685.894	24.34
686.302	24.19
686.709	24.18
687.116	24.34
687.524	24.63
687.931	24.98
688.338	25.35
688.745	25.67
689.152	26
689.559	26.34
689.966	26.65
690.373	26.94
690.78	27.22
691.187	27.48
691.593	27.73
692	27.98
692.407	28.22
692.813	28.46
693.22	28.7
693.626	28.93
694.032	29.17
694.439	29.42
694.845	29.66
695.251	29.89
695.657	30.12
696.063	30.34
696.469	30.54
696.875	30.72
697.281	30.87
697.687	31.04
698.093	31.2
698.498	31.37
698.904	31.56
699.31	31.77
699.715	32
700.12	32.27
700.526	32.52
700.931	32.8
701.337	33.08
701.742	33.37
702.147	33.67
702.552	33.98
702.957	34.25
703.362	34.54
703.767	34.81
704.172	35.08
704.577	35.29
704.981	35.53
705.386	35.75
705.791	36
706.195	36.24
706.6	36.48
707.004	36.7
707.408	36.93
707.813	37.15
708.217	37.35
708.621	37.57
709.025	37.8
709.43	38.02
709.834	38.25
710.237	38.44
710.641	38.62
711.045	38.81
711.449	39.02
711.853	39.22
712.256	39.35
712.66	39.45
713.064	39.47
713.467	39.48
713.87	39.42
714.274	39.29
714.677	39.17
715.08	39.02
715.484	38.88
715.887	38.75
716.29	38.62
716.693	38.62
717.096	38.71
717.499	38.93
717.901	39.2
718.304	39.54
718.707	39.91
719.109	40.27
719.512	40.62
719.915	40.95
720.317	41.22
720.719	41.47
721.122	41.7
721.524	41.85
721.926	41.96
722.328	42.03
722.731	42.1
723.133	42.19
723.535	42.27
723.937	42.4
724.338	42.52
724.74	42.67
725.142	42.95
725.544	43.07
725.945	43.25
726.347	43.36
726.748	43.48
727.15	43.6
727.551	43.75
727.952	43.91
728.354	44.09
728.755	44.3
729.156	44.52
729.557	44.6
729.958	44.82
730.359	45.02
730.76	45.25
731.161	45.45
731.562	45.66
731.962	45.8
732.363	45.94
732.763	46.04
733.164	46.13
733.564	46.19
733.965	46.26
734.365	46.29
734.766	46.29
735.166	46.33
735.566	46.35
735.966	46.35
736.366	46.38
736.766	46.36
737.166	46.39
737.566	46.39
737.966	46.39
738.365	46.4
738.765	46.44
739.165	46.49
739.564	46.54
739.964	46.56
740.363	46.57
740.763	46.61
741.162	46.67
741.561	46.68
741.96	46.72
742.36	46.78
742.759	46.81
743.158	46.81
743.557	46.82
743.955	46.81
744.354	46.81
744.753	46.85
745.152	46.84
745.55	46.81
745.949	46.81
746.348	46.78
746.746	46.72
747.144	46.69
747.543	46.63
747.941	46.59
748.339	46.52
748.737	46.47
749.136	46.38
749.534	46.33
749.932	46.3
750.33	46.25
750.727	46.23
751.125	46.22
751.523	46.18
751.921	46.17
752.318	46.16
752.716	46.13
753.113	46.11
753.511	46.12
753.908	46.12
754.305	46.08
754.703	45.93
755.1	45.62
755.497	45.02
755.894	44.12
756.291	43.03
756.688	41.8
757.085	40.65
757.482	39.59
757.878	38.6
758.275	37.6
758.672	36.61
759.068	35.73
759.465	35
759.861	34.61
760.258	34.59
760.654	34.86
761.05	35.31
761.447	35.8
761.843	36.27
762.239	36.72
762.635	37.24
763.031	37.87
763.427	38.56
763.822	39.36
764.218	40.16
764.614	40.9
765.01	41.57
765.405	42.2
765.801	42.72
766.196	43.23
766.592	43.65
766.987	44.05
767.382	44.31
767.778	44.53
768.173	44.66
768.568	44.75
768.963	44.82
769.358	44.9
769.753	44.95
770.148	44.99
770.542	45
770.937	44.98
771.332	44.95
771.726	44.97
772.121	44.96
772.515	44.96
772.91	44.92
773.304	44.9
773.699	44.85
774.093	44.81
774.487	44.81
774.881	44.77
775.275	44.76
775.669	44.7
776.063	44.63
776.457	44.56
776.851	44.48
777.245	44.41
777.638	44.38
778.032	44.32
778.425	44.31
778.819	44.24
779.212	44.2
779.606	44.14
779.999	44.09
780.392	44.08
780.786	44.01
781.179	44
781.572	43.99
781.965	43.91
782.358	43.88
782.751	43.79
783.143	43.71
783.536	43.63
783.929	43.55
784.322	43.49
784.714	43.4
785.107	43.35
785.499	43.24
785.891	43.15
786.284	43.06
786.676	42.93
787.068	42.85
787.46	42.73
787.852	42.64
788.245	42.56
788.636	42.45
789.028	42.36
789.42	42.24
789.812	42.11
790.204	42
790.595	41.9
790.987	41.82
791.378	41.74
791.77	41.68
792.161	41.61
792.553	41.52
792.944	41.45
793.335	41.4
793.726	41.34
794.117	41.32
794.508	41.25
794.899	41.19
795.29	41.12
795.681	41.01
796.072	40.93
796.463	40.9
796.853	40.82
797.244	40.75
797.634	40.62
798.025	40.56
798.415	40.44
798.806	40.35
799.196	40.26
799.586	40.19
799.976	40.1
800.366	40
800.756	39.87
801.146	39.78
801.536	39.67
801.926	39.59
802.316	39.5
802.706	39.43
803.095	39.33
803.485	39.25
803.874	39.14
804.264	39.04
804.653	38.95
805.043	38.83
805.432	38.73
805.821	38.64
806.21	38.53
806.599	38.42
806.988	38.29
807.377	38.19
807.766	38.03
808.155	37.88
808.544	37.73
808.933	37.59
809.321	37.45
809.71	37.28
810.098	37.09
810.487	36.88
810.875	36.68
811.264	36.51
811.652	36.3
812.04	36.12
812.428	35.96
812.816	35.77
813.204	35.58
813.592	35.39
813.98	35.21
814.368	35.07
814.756	34.95
815.144	34.82
815.531	34.68
815.919	34.59
816.306	34.53
816.694	34.45
817.081	34.44
817.469	34.42
817.856	34.37
818.243	34.29
818.63	34.18
819.017	34.06
819.404	33.96
819.791	33.87
820.178	33.79
820.565	33.69
820.952	33.6
821.339	33.49
821.725	33.4
822.112	33.35
822.498	33.34
822.885	33.35
823.271	33.33
823.657	33.27
824.044	33.26
824.43	33.19
824.816	33.13
825.202	33.05
825.588	33
825.974	32.94
826.36	32.86
826.746	32.77
827.132	32.68
827.517	32.61
827.903	32.58
828.289	32.51
828.674	32.45
829.06	32.38
829.445	32.33
829.83	32.26
830.216	32.2
830.601	32.15
830.986	32.1
831.371	32.06
831.756	32.03
832.141	32
832.526	31.96
832.911	31.93
833.295	31.91
833.68	31.89
834.065	31.86
834.449	31.82
834.834	31.78
835.218	31.75
835.603	31.72
835.987	31.67
836.371	31.63
836.755	31.59
837.139	31.54
837.524	31.5
837.908	31.46
838.291	31.43
838.675	31.4
839.059	31.38
839.443	31.32
839.827	31.26
840.21	31.24
840.594	31.19
840.977	31.17
841.361	31.15
841.744	31.1
842.127	31.07
842.511	31.03
842.894	30.98
843.277	30.93
843.66	30.91
844.043	30.91
844.426	30.86
844.809	30.83
845.191	30.79
845.574	30.75
845.957	30.72
846.339	30.66
846.722	30.61
847.104	30.58
847.487	30.54
847.869	30.5
848.252	30.45
848.634	30.43
849.016	30.39
849.398	30.34
849.78	30.28
850.162	30.22
850.544	30.17
850.926	30.13
851.307	30.08
851.689	30.06
852.071	30.02
852.452	29.97
852.834	29.94
853.215	29.93
853.597	29.92
853.978	29.92
854.359	29.94
854.741	29.96
855.122	29.96
855.503	29.94
855.884	29.92
856.265	29.9
856.646	29.89
857.026	29.87
857.407	29.85
857.788	29.82
858.169	29.82
858.549	29.78
858.93	29.77
859.31	29.75
859.69	29.75
860.071	29.76
860.451	29.74
860.831	29.73
861.211	29.71
861.591	29.67
861.971	29.61
862.351	29.58
862.731	29.54
863.111	29.48
863.491	29.46
863.87	29.42
864.25	29.37
864.629	29.36
865.009	29.33
865.388	29.29
865.768	29.28
866.147	29.29
866.526	29.28
866.905	29.28
867.284	29.28
867.663	29.27
868.042	29.25
868.421	29.28
868.8	29.27
869.179	29.27
869.558	29.28
869.936	29.27
870.315	29.25
870.693	29.26
871.072	29.26
871.45	29.27
871.828	29.26
872.207	29.29
872.585	29.25
872.963	29.24
873.341	29.22
873.719	29.22
874.097	29.2
874.475	29.21
874.853	29.16
875.23	29.16
875.608	29.12
875.986	29.14
876.363	29.1
876.741	29.09
877.118	29.07
877.495	29.07
877.873	29.05
878.25	29.04
878.627	29.03
879.004	29.03
879.381	29.02
879.758	29
880.135	28.95
880.512	28.93
880.889	28.92
881.265	28.91
881.642	28.89
882.019	28.87
882.395	28.84
882.772	28.82
883.148	28.78
883.524	28.75
883.901	28.75
884.277	28.72
884.653	28.69
885.029	28.68
885.405	28.65
885.781	28.61
886.157	28.59
886.532	28.58
886.908	28.54
887.284	28.53
887.659	28.51
888.035	28.47
888.411	28.45
888.786	28.43
889.161	28.41
889.537	28.4
889.912	28.37
890.287	28.35
890.662	28.31
891.037	28.3
891.412	28.27
891.787	28.24
892.162	28.21
892.536	28.2
892.911	28.18
893.286	28.13
893.66	28.11
894.035	28.08
894.409	28.05
894.784	28.03
895.158	28
895.532	27.99
895.906	27.96
896.281	27.95
896.655	27.95
897.029	27.94
897.402	27.93
897.776	27.91
898.15	27.91
898.524	27.92
898.898	27.91
899.271	27.94
899.645	27.94
900.018	27.95
900.392	27.96
900.765	27.96
901.138	27.97
901.511	27.98
901.884	28.01
902.258	28.04
902.631	28.05
903.003	28.06
903.376	28.06
903.749	28.06
904.122	28.05
904.495	28.05
904.867	28.05
905.24	28.04
905.612	28.03
905.985	28
906.357	27.95
906.729	27.93
907.102	27.94
907.474	27.94
907.846	27.91
908.218	27.91
908.59	27.91
908.962	27.92
909.334	27.92
909.705	27.93
910.077	27.97
910.449	27.98
910.82	27.98
911.192	27.97
911.563	27.96
911.935	27.96
912.306	27.97
912.677	27.97
913.048	27.96
913.419	27.95
913.79	27.94
914.161	27.93
914.532	27.93
914.903	27.93
915.274	27.95
915.645	27.96
916.015	27.97
916.386	27.97
916.756	27.98
917.127	28
917.497	28.01
917.868	28.01
918.238	28.01
918.608	28.03
918.978	28.05
919.348	28.05
919.718	28.04
920.088	28.07
920.458	28.06
920.828	28.03
921.198	28.03
921.567	28.05
921.937	28.08
922.306	28.07
922.676	28.05
923.045	28.05
923.415	28.02
923.784	28.02
924.153	28.02
924.522	28.04
924.891	28.06
925.26	28.06
925.629	28.03
925.998	28.01
926.367	28
926.736	27.98
927.104	27.97
927.473	27.98
927.842	27.93
928.21	27.91
928.578	27.86
928.947	27.82
929.315	27.77
929.683	27.73
930.051	27.67
930.42	27.62
930.788	27.57
931.156	27.53
931.523	27.48
931.891	27.5
932.259	27.46
932.627	27.46
932.994	27.42
933.362	27.43
933.729	27.45
934.097	27.5
934.464	27.55
934.831	27.58
935.199	27.61
935.566	27.68
935.933	27.67
936.3	27.73
936.667	27.79
937.034	27.93
937.401	28.01
937.767	28.07
938.134	28.11
938.501	28.15
938.867	28.27
939.234	28.3
939.6	28.34
939.967	28.43
940.333	28.45
940.699	28.51
941.065	28.45
941.431	28.45
941.798	28.48
942.163	28.48
942.529	28.45
942.895	28.38
943.261	28.37
943.627	28.34
943.992	28.34
944.358	28.33
944.723	28.29
945.089	28.28
945.454	28.29
945.82	28.26
946.185	28.22
946.55	28.18
946.915	28.17
947.28	28.13
947.645	28.1
948.01	28.06
948.375	28.02
948.74	27.97
949.104	27.93
949.469	27.87
949.834	27.8
950.198	27.82
950.562	27.82
950.927	27.8
951.291	27.73
951.655	27.7
952.02	27.67
952.384	27.59
952.748	27.59
953.112	27.6
953.476	27.58
953.839	27.6
954.203	27.55
954.567	27.5
954.931	27.43
955.294	27.49
955.658	27.48
956.021	27.48
956.385	27.48
956.748	27.46
957.111	27.43
957.474	27.38
957.837	27.3
958.2	27.27
958.563	27.27
958.926	27.31
959.289	27.28
959.652	27.27
960.015	27.28
960.377	27.33
960.74	27.35
961.102	27.33
961.465	27.4
961.827	27.55
962.189	27.6
962.552	27.59
962.914	27.61
963.276	27.63
963.638	27.63
964	27.58
964.362	27.55
964.724	27.51
965.085	27.54
965.447	27.47
965.809	27.39
966.17	27.39
966.532	27.43
966.893	27.44
967.255	27.42
967.616	27.46
967.977	27.5
968.338	27.52
968.699	27.57
969.061	27.57
969.421	27.62
969.782	27.65
970.143	27.65
970.504	27.66
970.865	27.71
971.225	27.7
971.586	27.71
971.946	27.66
972.307	27.66
972.667	27.67
973.027	27.66
973.388	27.68
973.748	27.72
974.108	27.8
974.468	27.79
974.828	27.82
975.188	27.88
975.548	27.86
975.907	27.93
976.267	27.9
976.627	27.93
976.986	27.93
977.346	27.92
977.705	27.93
978.064	27.88
978.424	27.94
978.783	27.87
979.142	27.86
979.501	27.92
979.86	27.95
980.219	28.03
980.578	28.05
980.937	28.11
981.296	28.1
981.654	28.1
982.013	28.15
982.371	28.18
982.73	28.25
983.088	28.27
983.447	28.31
983.805	28.37
984.163	28.39
984.521	28.38
984.879	28.43
985.237	28.55
985.595	28.61
985.953	28.6
986.311	28.59
986.669	28.62
987.026	28.66
987.384	28.74
987.741	28.69
988.099	28.81
988.456	28.81
988.814	28.87
989.171	28.88
989.528	28.81
989.885	28.89
990.242	28.94
990.599	29.01
990.956	29.05
991.313	29.05
991.67	29.15
992.027	29.32
992.383	29.45
992.74	29.58
993.096	29.65
993.453	29.77
993.809	29.82
994.165	29.91
994.522	30.06
994.878	30.15
995.234	30.21
995.59	30.26
995.946	30.15
996.302	30.22
996.658	30.23
997.013	30.31
997.369	30.4
997.725	30.52
998.08	30.59
998.436	30.49
998.791	30.62
999.147	30.65
999.502	30.76
999.857	30.79
1000.212	30.75
1000.567	30.83
1000.922	30.83
1001.277	30.91
1001.632	30.94
1001.987	30.97
1002.342	31
1002.696	30.87
1003.051	31.11
1003.406	31.26
1003.76	31.3
1004.114	31.35
1004.469	31.39
1004.823	31.79
1005.177	31.8
1005.531	31.9
1005.885	32.06
1006.239	32.3
1006.593	32.66
1006.947	32.72
1007.301	32.58
1007.655	32.73
1008.008	33
1008.362	33.28
1008.715	33.16
1009.069	33.29
1009.422	33.45
1009.776	33.5
1010.129	33.52
1010.482	33.48
1010.835	33.57
1011.188	33.73
1011.541	33.83
1011.894	33.94
1012.247	33.88
1012.6	33.86
1012.952	33.93
1013.305	34.01
1013.657	34.2
1014.01	34.36
1014.362	34.47
1014.715	34.56
1015.067	34.9
1015.419	35.09
1015.771	35.22
1016.123	35.3
1016.475	35.51
1016.827	35.78
1017.179	35.92
1017.531	36.06
1017.883	36.22
1018.234	36.6
1018.586	36.89
1018.938	37.1
1019.289	37.13
1019.64	37.24
1019.992	37.45
1020.343	37.56
1020.694	37.76
1021.045	37.95
1021.396	38.07
1021.747	38.25
1022.098	38.27
1022.449	38.14
1022.8	38.17
1023.151	38.37
1023.501	38.79
1023.852	38.86
1024.202	39.05
1024.553	39.03
1024.903	39.36
1025.253	39.88
1025.604	40.07
1025.954	40.18
1026.304	40.64
1026.654	40.95
1027.004	41.05
1027.354	40.98
1027.703	41.25
1028.053	41.54
1028.403	41.86
1028.753	41.8
1029.102	41.97
1029.452	42.33
1029.801	42.81
1030.15	42.82
1030.499	42.76
897.758	1789.16
901.051	1793.43
904.343	1784.54
907.636	1819.89
910.928	1773.59
914.22	1771.01
917.511	1747.56
920.803	1671.7
924.094	1660.7
927.384	1625.03
930.675	1552.61
933.965	1543.37
937.255	1456.81
940.544	1400.65
943.834	1326.16
947.123	1313.5
950.411	1237.26
953.7	1211.52
956.988	1143.23
960.276	1100.41
963.563	1083.22
966.851	1045.53
970.138	1035.91
973.424	1001.2
976.711	1008.01
979.997	960.26
983.283	955.19
986.568	935
989.853	903.29
993.138	890.42
996.423	855.16
999.708	831.08
1002.992	823.03
1006.275	782.36
1009.559	775.95
1012.842	745.76
1016.125	725.35
1019.408	712.46
1022.69	701.08
1025.972	689.08
1029.254	670.94
1032.536	659.35
1035.817	643.86
1039.098	636.25
1042.379	622.96
1045.659	616.14
1048.939	602.65
1052.219	589.81
1055.498	579.78
1058.778	568.76
1062.057	552.97
1065.335	547.39
1068.614	540.7
1071.892	536.29
1075.17	517.71
1078.447	509.01
1081.724	505
1085.001	500.27
1088.278	490.2
1091.554	480.82
1094.83	480.1
1098.106	479.07
1101.382	474.21
1104.657	470.85
1107.932	462.53
1111.206	465.85
1114.481	453.92
1117.755	449.37
1121.029	445.56
1124.302	446.17
1127.575	436.68
1130.848	431.2
1134.121	425.85
1137.393	424.14
1140.665	414.3
1143.937	412.73
1147.208	408.35
1150.48	408.53
1153.75	402.63
1157.021	396.27
1160.291	396.75
1163.561	392.83
1166.831	392.37
1170.101	389.54
1173.37	388.42
1176.639	390.07
1179.907	385.1
1183.176	381.37
1186.444	380.48
1189.711	380.56
1192.979	379.66
1196.246	376.28
1199.513	377.43
1202.78	374.98
1206.046	375.44
1209.312	371.02
1212.578	371.55
1215.843	375.61
1219.108	372.63
1222.373	381.45
1225.638	383.57
1228.902	390.46
1232.166	389.87
1235.43	394.28
1238.693	399.76
1241.956	401.11
1245.219	408.29
1248.482	408.12
1251.744	407.52
1255.006	409.55
1258.268	398.89
1261.529	395.08
1264.79	390.39
1268.051	388.87
1271.312	383.93
1274.572	379.4
1277.832	375.93
1281.092	368.9
1284.351	366.02
1287.61	366.21
1290.869	360.54
1294.128	357.76
1297.386	358.12
1300.644	355.1
1303.902	356.53
1307.159	354.06
1310.416	354.35
1313.673	354.07
1316.93	357.89
1320.186	358.37
1323.442	358.67
1326.697	366.04
1329.953	366.55
1333.208	367.88
1336.463	371.8
1339.717	372.3
1342.972	376.28
1346.226	378.9
1349.479	379.1
1352.733	381.91
1355.986	382.34
1359.238	381.93
1362.491	384.12
1365.743	388.39
1368.995	388.06
1372.247	385.52
1375.498	385.98
1378.749	390.47
1382	384.6
1385.251	387.12
1388.501	383.02
1391.751	386.34
1395	384.13
1398.25	380.61
1401.499	378.47
1404.748	378.1
1407.996	375.27
1411.244	373.06
1414.492	370.86
1417.74	368.7
1420.987	362.72
1424.234	364.47
1427.481	358
1430.728	359.1
1433.974	354.55
1437.22	351.48
1440.465	350.5
1443.711	348.89
1446.956	346.86
1450.201	340.96
1453.445	338.16
1456.689	336.7
1459.933	330.83
1463.177	328.39
1466.42	322.58
1469.663	319.24
1472.906	317.16
1476.148	309.27
1479.391	304.32
1482.633	300.9
1485.874	296.92
1489.115	295.02
1492.356	290.9
1495.597	290.34
1498.838	285.45
1502.078	283.6
1505.318	282.08
1508.557	282.11
1511.797	280.88
1515.036	280.5
1518.274	279.43
1521.513	276.08
1524.751	275.71
1527.989	275.16
1531.227	273.25
1534.464	274.62
1537.701	272.34
1540.938	271.48
1544.174	267.94
1547.41	267.78
1550.646	266.29
1553.882	266.39
1557.117	263.78
1560.352	261.76
1563.587	261.48
1566.821	259.39
1570.055	256.38
1573.289	254.47
1576.523	254.13
1579.756	252.14
1582.989	250.51
1586.222	250.19
1589.454	248.48
1592.686	249.82
1595.918	249.15
1599.15	247.83
1602.381	248.29
1605.612	248.11
1608.843	249.7
1612.073	249.25
1615.303	250.72
1618.533	251.35
1621.762	250.08
1624.992	250.66
1628.221	250.91
1631.449	250.11
1634.678	249.89
1637.906	250.73
1641.134	250.97
1644.361	250.14
1647.588	251.31
1650.815	250.11
1654.042	248.6
1657.269	250.7
1660.495	250.73
1663.72	248.58
1666.946	250.2
1670.171	250.39
1673.396	250.31
1676.621	250.03
1679.845	250.28
1683.069	249.76
1686.293	251.48
1689.517	253.33
1692.74	252.68
1695.963	253.8
1699.185	257.7
1702.408	257.34
1705.63	258.53
1708.852	259.11
1712.073	259.58
1715.294	260.07
1718.515	261.93
1721.736	261.73
1724.956	261.55
1728.176	261.78
1731.396	264.05
1734.616	262.69
1737.835	263.77
1741.054	262.12
1744.272	263
1747.491	266.06
1750.709	265.97
1753.927	265.52
1757.144	264.16
1760.361	266.47
1763.578	267.01
1766.795	266.21
1770.011	267.74
1773.227	267.9
1776.443	271.13
1779.658	273.05
1782.874	271.26
1786.089	273.4
1789.303	274.29
1792.518	278.13
1795.732	277.73
1798.945	281
1802.159	280.78
1805.372	282.5
1808.585	287.62
1811.797	288.5
1815.01	287.98
1818.222	291.14
1821.434	292.86
1824.645	294.27
1827.856	299.66
1831.067	302.34
1834.278	299.74
1837.488	302.47
1840.698	304.73
1843.908	301.25
1847.117	303.25
1850.326	305.55
1853.535	304.26
1856.744	309.78
1859.952	309.2
1863.16	307.42
1866.368	304.78
1869.575	310.81
1872.782	305.64
1875.989	304.78
1879.196	304.14
1882.402	302.28
1885.608	304.27
1888.814	305.95
1892.019	304.54
1895.224	304.36
1898.429	303.32
1901.634	306.1
1904.838	305.25
1908.042	310.57
1911.246	311.65
1914.449	314.21
1917.652	314.17
1920.855	313.43
1924.058	313.06
1927.26	311.86
1930.462	313.42
1933.664	317.28
1936.865	314.6
1940.066	314.83
1943.267	312.57
1946.467	312.38
1949.668	314.2
1952.868	318.41
1956.067	317.74
1959.267	318.89
1962.466	319.84
1965.665	318.22
1968.863	318.09
1972.061	322.18
1975.259	325.08
1978.457	326.9
1981.654	329.29
1984.852	330.22
1988.048	328.73
1991.245	331.71
1994.441	335.05
1997.637	337.7
2000.833	343.67
2004.028	348.24
2007.223	349.77
2010.418	353.56
2013.613	359.45
2016.807	363.44
2020.001	365.96
2023.194	371.67
2026.388	379.85
2029.581	388.56
2032.774	391.3
2035.966	398.69
2039.158	399.54
2042.35	407.89
2045.542	410.18
2048.733	415.51
2051.924	422.14
2055.115	429.13
2058.306	429.71
2061.496	436.06
2064.686	434.4
2067.875	442.28
2071.065	443.86
2074.254	442.04
2077.442	447.15
2080.631	448.59
2083.819	453.8
2087.007	453.5
2090.195	459.04
2093.382	463.29
2096.569	458.53
2099.756	466.89
2102.942	467.81
2106.128	473.8
2109.314	483.88
2112.5	481.86
2115.685	493.45
2118.87	494.33
2122.055	503.87
2125.239	507.83
2128.424	513.64
2131.608	518.29
2134.791	524.43
2137.974	527.31
2141.157	528.04
2144.34	529.13
2147.523	538.42
2150.705	533.3
2153.887	537.57
2157.068	538.69
2160.25	532.86
2163.431	536.08
2166.611	541
2169.792	552.32
2172.972	558.66
2176.152	560.64
2179.331	569.6
2182.511	578.75
2185.69	586.65
2188.868	599.05
2192.047	600.89
2195.225	618.78
2198.403	633.83
2201.58	645.71
2204.758	658.25
2207.935	673.21
2211.111	686.71
2214.288	693.47
2217.464	695.27
2220.64	704.4
2223.815	715.49
2226.991	743.67
2230.166	746.4
2233.34	761.33
2236.515	772.73
2239.689	774.14
2242.863	775.77
2246.036	801.11
2249.209	793.52
2252.382	806.44
2255.555	832.17
2258.727	833.58
2261.9	838.19
2265.071	846.18
2268.243	858.95
2271.414	870.51
2274.585	890.54
2277.756	901.15
2280.926	905.87
2284.096	925.66
2287.266	947.63
2290.436	955.14
2293.605	978.8
2296.774	1009.76
2299.942	1042.24
2303.111	1047.01
2306.279	1073.56
2309.447	1084.61
2312.614	1112.36
2315.781	1141.25
2318.948	1198.54
2322.115	1178.06
2325.281	1240.96
2328.447	1215.44
2331.613	1265.58
2334.779	1250.35
2337.944	1305.27
2341.109	1315.9
2344.274	1350.41
2347.438	1401.43
2350.602	1403.92
2353.766	1442.59
2356.929	1466.41
2360.092	1454.85
2363.255	1562.31
2366.418	1556
2369.58	1589.93
2372.742	1687.38
2375.904	1732.37
2379.066	1722.4
2382.227	1685.42
2385.388	1830.07
2388.548	1840.83
2391.709	1862.71
2394.869	2078.86
2398.029	1983.6
2401.188	2041.55
2404.347	2027.76
2407.506	1994.65
2410.665	2050.63
2413.823	2178.51
2416.981	2307.92
2420.139	2224.72
2423.296	2197.39
2426.453	2292.21
2429.61	2199.84
2432.767	2309.24
2435.923	2288.02
2439.079	2493.96
2442.235	2526.85
2445.391	2502.2
2448.546	2484.67
2451.701	2414.13
2454.855	2416.45
2458.009	2561.74
2461.163	2661.75
2464.317	2772.3
2467.471	2836.38
2470.624	2836.92
2473.777	2767.69
2476.929	2703.29
2480.082	2626.55
2483.234	2591.83
2486.385	2724.04
2489.537	2736.58
2492.688	2842.02
2495.839	2765.85
2498.989	2701.85
2502.14	2723.1
2505.29	2755.1
2508.439	2790.72
2511.589	2779.61
2514.738	3027.44
2517.887	2966.82
2521.035	3143.55
2524.183	3160
2527.331	3183.06
2530.479	3175.77
2533.627	3196.89
