Data from N_2_DEC_ON_6N_Splice17_13-15-01-490.txt Node
Date: Sat Mar 07 13:15:01 EST 2020
User: sa697716
Spectrometer: NQ5500242
Trigger mode: 0
Integration Time (sec): 1.450000E-1
Scans to average: 20
Nonlinearity correction enabled: false
Boxcar width: 5
Storing dark spectrum: false
XAxis mode: Wavelengths
Number of Pixels in Spectrum: 512
>>>>>Begin Spectral Data<<<<<
187.83	200.8
188.298	208.92
188.766	181.15
189.233	150.71
189.701	152.03
190.169	182.62
190.636	184.96
191.104	248.59
191.571	50.37
192.039	-72.37
192.506	-173.29
192.974	249.99
193.441	237.1
193.908	57.83
194.375	75.58
194.842	29.26
195.31	117.95
195.777	88.5
196.244	59.88
196.711	52.08
197.177	54.93
197.644	54.42
198.111	53.85
198.578	53.94
199.045	54.36
199.511	54.04
199.978	54.23
200.445	53.94
200.911	53.69
201.378	53.62
201.844	53.69
202.31	53.22
202.777	53.56
203.243	53.34
203.709	53.11
204.176	52.72
204.642	52.5
205.108	52.23
205.574	51.87
206.04	51.7
206.506	51.28
206.972	51.27
207.438	50.82
207.903	50.03
208.369	49.24
208.835	48.73
209.301	47.81
209.766	46.81
210.232	45.82
210.697	45.08
211.163	44.5
211.628	43.71
212.094	42.88
212.559	42.23
213.024	41.59
213.49	41.23
213.955	40.57
214.42	40.22
214.885	39.52
215.35	38.68
215.815	37.58
216.28	35.86
216.745	34.2
217.21	32.4
217.675	30.79
218.14	29.53
218.604	28.3
219.069	27.34
219.534	26.54
219.998	25.9
220.463	25.34
220.927	24.75
221.392	24.37
221.856	24.01
222.32	23.7
222.785	23.44
223.249	23.13
223.713	22.86
224.177	22.6
224.642	22.36
225.106	22.07
225.57	21.81
226.034	21.6
226.497	21.36
226.961	21.12
227.425	20.9
227.889	20.67
228.353	20.45
228.816	20.21
229.28	19.98
229.744	19.74
230.207	19.54
230.671	19.31
231.134	19.11
231.597	18.93
232.061	18.72
232.524	18.53
232.987	18.33
233.45	18.16
233.914	17.99
234.377	17.82
234.84	17.65
235.303	17.49
235.766	17.35
236.229	17.17
236.691	16.99
237.154	16.84
237.617	16.68
238.08	16.55
238.542	16.39
239.005	16.25
239.468	16.1
239.93	15.95
240.393	15.81
240.855	15.65
241.317	15.51
241.78	15.38
242.242	15.23
242.704	15.11
243.166	14.97
243.629	14.85
244.091	14.7
244.553	14.58
245.015	14.45
245.477	14.31
245.939	14.2
246.4	14.09
246.862	13.97
247.324	13.87
247.786	13.75
248.247	13.65
248.709	13.53
249.17	13.43
249.632	13.35
250.093	13.26
250.555	13.17
251.016	13.09
251.477	13.01
251.939	12.93
252.4	12.84
252.861	12.75
253.322	12.68
253.783	12.6
254.244	12.52
254.705	12.45
255.166	12.37
255.627	12.29
256.088	12.21
256.549	12.14
257.009	12.05
257.47	11.97
257.931	11.88
258.391	11.79
258.852	11.71
259.312	11.64
259.773	11.55
260.233	11.48
260.694	11.41
261.154	11.32
261.614	11.25
262.074	11.18
262.534	11.11
262.994	11.05
263.455	11
263.915	10.95
264.374	10.9
264.834	10.86
265.294	10.81
265.754	10.77
266.214	10.74
266.673	10.7
267.133	10.68
267.593	10.64
268.052	10.61
268.512	10.58
268.971	10.54
269.431	10.5
269.89	10.46
270.349	10.44
270.809	10.4
271.268	10.37
271.727	10.33
272.186	10.29
272.645	10.27
273.104	10.24
273.563	10.22
274.022	10.19
274.481	10.17
274.94	10.15
275.399	10.11
275.857	10.09
276.316	10.06
276.775	10.03
277.233	10.01
277.692	9.98
278.15	9.95
278.609	9.92
279.067	9.88
279.525	9.85
279.984	9.82
280.442	9.8
280.9	9.77
281.358	9.73
281.816	9.71
282.274	9.69
282.732	9.66
283.19	9.63
283.648	9.59
284.106	9.56
284.564	9.52
285.021	9.49
285.479	9.45
285.937	9.41
286.394	9.37
286.852	9.33
287.309	9.29
287.767	9.25
288.224	9.21
288.682	9.17
289.139	9.14
289.596	9.1
290.053	9.06
290.511	9.02
290.968	8.99
291.425	8.97
291.882	8.95
292.339	8.93
292.796	8.9
293.252	8.88
293.709	8.87
294.166	8.85
294.623	8.84
295.079	8.82
295.536	8.82
295.992	8.81
296.449	8.8
296.905	8.78
297.362	8.78
297.818	8.77
298.274	8.76
298.731	8.75
299.187	8.74
299.643	8.73
300.099	8.73
300.555	8.72
301.011	8.7
301.467	8.7
301.923	8.68
302.379	8.67
302.835	8.66
303.291	8.65
303.746	8.64
304.202	8.64
304.658	8.64
305.113	8.62
305.569	8.62
306.024	8.6
306.479	8.6
306.935	8.59
307.39	8.59
307.845	8.58
308.301	8.58
308.756	8.58
309.211	8.57
309.666	8.56
310.121	8.56
310.576	8.56
311.031	8.56
311.486	8.56
311.94	8.55
312.395	8.55
312.85	8.55
313.305	8.54
313.759	8.54
314.214	8.53
314.668	8.52
315.123	8.51
315.577	8.49
316.032	8.48
316.486	8.46
316.94	8.45
317.394	8.42
317.849	8.4
318.303	8.38
318.757	8.36
319.211	8.34
319.665	8.33
320.119	8.31
320.572	8.3
321.026	8.29
321.48	8.28
321.934	8.26
322.387	8.25
322.841	8.25
323.295	8.24
323.748	8.24
324.202	8.24
324.655	8.24
325.108	8.24
325.562	8.24
326.015	8.23
326.468	8.23
326.921	8.23
327.374	8.22
327.827	8.22
328.28	8.21
328.733	8.2
329.186	8.19
329.639	8.19
330.092	8.18
330.545	8.17
330.997	8.17
331.45	8.17
331.903	8.17
332.355	8.17
332.808	8.16
333.26	8.16
333.713	8.15
334.165	8.14
334.617	8.14
335.069	8.12
335.522	8.12
335.974	8.12
336.426	8.1
336.878	8.09
337.33	8.08
337.782	8.07
338.234	8.05
338.686	8.04
339.137	8.05
339.589	8.03
340.041	8.01
340.493	7.99
340.944	7.97
341.396	7.96
341.847	7.95
342.299	7.92
342.75	7.91
343.201	7.89
343.653	7.87
344.104	7.84
344.555	7.83
345.006	7.82
345.457	7.82
345.908	7.81
346.359	7.81
346.81	7.8
347.261	7.79
347.712	7.78
348.163	7.78
348.613	7.78
349.064	7.79
349.515	7.79
349.965	7.8
350.416	7.79
350.866	7.79
351.317	7.79
351.767	7.8
352.217	7.8
352.668	7.81
353.118	7.82
353.568	7.82
354.018	7.83
354.468	7.84
354.918	7.82
355.368	7.83
355.818	7.83
356.268	7.83
356.718	7.82
357.168	7.81
357.617	7.81
358.067	7.8
358.517	7.81
358.966	7.81
359.416	7.81
359.865	7.82
360.315	7.83
360.764	7.82
361.213	7.83
361.663	7.83
362.112	7.84
362.561	7.84
363.01	7.85
363.459	7.84
363.908	7.83
364.357	7.83
364.806	7.83
365.255	7.83
365.703	7.85
366.152	7.85
366.601	7.86
367.05	7.86
367.498	7.87
367.947	7.88
368.395	7.89
368.844	7.9
369.292	7.89
369.74	7.9
370.189	7.91
370.637	7.91
371.085	7.9
371.533	7.91
371.981	7.91
372.429	7.91
372.877	7.92
373.325	7.92
373.773	7.92
374.221	7.94
374.669	7.95
375.116	7.95
375.564	7.96
376.012	7.97
376.459	7.98
376.907	8
377.354	8.01
377.801	8.02
378.249	8.04
378.696	8.04
379.143	8.04
379.591	8.06
380.038	8.07
380.485	8.08
380.932	8.1
381.379	8.11
381.826	8.12
382.273	8.13
382.72	8.12
383.166	8.12
383.613	8.13
384.06	8.15
384.506	8.15
384.953	8.18
385.4	8.21
385.846	8.24
386.292	8.24
386.739	8.27
387.185	8.3
387.631	8.34
388.078	8.36
388.524	8.39
388.97	8.42
389.416	8.45
389.862	8.48
390.308	8.51
390.754	8.53
391.2	8.57
391.645	8.59
392.091	8.64
392.537	8.67
392.983	8.7
393.428	8.72
393.874	8.74
394.319	8.75
394.765	8.77
395.21	8.78
395.655	8.79
396.101	8.82
396.546	8.83
396.991	8.83
397.436	8.85
397.881	8.88
398.326	8.92
398.771	8.95
399.216	8.97
399.661	8.99
400.106	9.01
400.551	9.02
400.995	9.01
401.44	9.02
401.885	9.03
402.329	9.04
402.774	9.04
403.218	9.06
403.663	9.06
404.107	9.08
404.551	9.09
404.995	9.09
405.44	9.1
405.884	9.11
406.328	9.13
406.772	9.13
407.216	9.13
407.66	9.13
408.104	9.11
408.547	9.1
408.991	9.11
409.435	9.1
409.879	9.11
410.322	9.13
410.766	9.14
411.209	9.16
411.653	9.17
412.096	9.18
412.54	9.17
412.983	9.19
413.426	9.23
413.869	9.23
414.312	9.24
414.756	9.24
415.199	9.22
415.642	9.21
416.085	9.2
416.527	9.2
416.97	9.18
417.413	9.18
417.856	9.16
418.298	9.13
418.741	9.13
419.184	9.12
419.626	9.12
420.069	9.11
420.511	9.12
420.953	9.11
421.396	9.11
421.838	9.13
422.28	9.14
422.722	9.15
423.164	9.14
423.606	9.14
424.048	9.13
424.49	9.14
424.932	9.13
425.374	9.11
425.816	9.09
426.258	9.07
426.699	9.05
427.141	9.05
427.582	9.06
428.024	9.07
428.465	9.07
428.907	9.07
429.348	9.04
429.789	9.04
430.231	9.07
430.672	9.1
431.113	9.13
431.554	9.14
431.995	9.13
432.436	9.12
432.877	9.13
433.318	9.14
433.759	9.15
434.2	9.18
434.64	9.19
435.081	9.18
435.522	9.18
435.962	9.18
436.403	9.19
436.843	9.2
437.284	9.2
437.724	9.18
438.164	9.16
438.604	9.17
439.045	9.17
439.485	9.17
439.925	9.17
440.365	9.16
440.805	9.16
441.245	9.17
441.685	9.2
442.125	9.22
442.564	9.23
443.004	9.25
443.444	9.26
443.883	9.28
444.323	9.29
444.762	9.31
445.202	9.33
445.641	9.35
446.081	9.36
446.52	9.35
446.959	9.38
447.398	9.39
447.837	9.41
448.276	9.42
448.716	9.44
449.154	9.46
449.593	9.5
450.032	9.49
450.471	9.5
450.91	9.49
451.349	9.5
451.787	9.48
452.226	9.47
452.664	9.47
453.103	9.46
453.541	9.45
453.98	9.44
454.418	9.4
454.856	9.39
455.295	9.38
455.733	9.37
456.171	9.36
456.609	9.37
457.047	9.35
457.485	9.34
457.923	9.33
458.361	9.32
458.798	9.32
459.236	9.33
459.674	9.33
460.111	9.32
460.549	9.33
460.987	9.33
461.424	9.33
461.862	9.34
462.299	9.35
462.736	9.35
463.173	9.35
463.611	9.36
464.048	9.36
464.485	9.36
464.922	9.37
465.359	9.37
465.796	9.39
466.233	9.38
466.67	9.38
467.106	9.39
467.543	9.39
467.98	9.39
468.416	9.38
468.853	9.38
469.29	9.38
469.726	9.38
470.162	9.36
470.599	9.37
471.035	9.35
471.471	9.36
471.907	9.34
472.344	9.34
472.78	9.34
473.216	9.34
473.652	9.34
474.088	9.32
474.523	9.31
474.959	9.3
475.395	9.29
475.831	9.28
476.266	9.27
476.702	9.26
477.138	9.24
477.573	9.25
478.008	9.23
478.444	9.22
478.879	9.23
479.314	9.22
479.75	9.22
480.185	9.21
480.62	9.2
481.055	9.19
481.49	9.18
481.925	9.19
482.36	9.19
482.795	9.2
483.229	9.2
483.664	9.21
484.099	9.2
484.534	9.2
484.968	9.22
485.403	9.23
485.837	9.26
486.271	9.28
486.706	9.3
487.14	9.32
487.574	9.33
488.009	9.35
488.443	9.38
488.877	9.41
489.311	9.46
489.745	9.49
490.179	9.53
490.613	9.57
491.046	9.62
491.48	9.66
491.914	9.71
492.348	9.78
492.781	9.84
493.215	9.92
493.648	9.98
494.082	10.05
494.515	10.11
494.948	10.19
495.382	10.27
495.815	10.36
496.248	10.45
496.681	10.55
497.114	10.63
497.547	10.73
497.98	10.84
498.413	10.95
498.846	11.07
499.279	11.19
499.711	11.32
500.144	11.46
500.577	11.59
501.009	11.72
501.442	11.87
501.874	12.04
502.306	12.2
502.739	12.37
503.171	12.55
503.603	12.73
504.036	12.94
504.468	13.14
504.9	13.35
505.332	13.57
505.764	13.8
506.196	14.03
506.627	14.27
507.059	14.52
507.491	14.76
507.923	15.02
508.354	15.31
508.786	15.57
509.217	15.86
509.649	16.15
510.08	16.44
510.512	16.74
510.943	17.05
511.374	17.35
511.805	17.67
512.237	18.01
512.668	18.34
513.099	18.66
513.53	18.99
513.961	19.34
514.391	19.7
514.822	20.06
515.253	20.43
515.684	20.79
516.114	21.17
516.545	21.54
516.975	21.91
517.406	22.27
517.836	22.64
518.267	23.01
518.697	23.36
519.127	23.69
519.558	24.05
519.988	24.39
520.418	24.72
520.848	25.05
521.278	25.37
521.708	25.75
522.138	26.07
522.567	26.37
522.997	26.68
523.427	26.98
523.857	27.29
524.286	27.55
524.716	27.82
525.145	28.09
525.575	28.35
526.004	28.59
526.433	28.76
526.863	28.99
527.292	29.22
527.721	29.41
528.15	29.61
528.579	29.79
529.008	29.98
529.437	30.14
529.866	30.31
530.295	30.47
530.724	30.65
531.152	30.8
531.581	30.94
532.01	31.07
532.438	31.21
532.867	31.33
533.295	31.44
533.723	31.56
534.152	31.67
534.58	31.78
535.008	31.83
535.436	31.9
535.865	31.98
536.293	32.05
536.721	32.1
537.149	32.16
537.576	32.22
538.004	32.28
538.432	32.33
538.86	32.38
539.287	32.39
539.715	32.46
540.143	32.49
540.57	32.53
540.998	32.56
541.425	32.61
541.852	32.63
542.28	32.67
542.707	32.69
543.134	32.72
543.561	32.75
543.988	32.8
544.415	32.81
544.842	32.85
545.269	32.87
545.696	32.92
546.123	32.93
546.549	32.97
546.976	33
547.403	33.03
547.829	33.04
548.256	33.07
548.682	33.07
549.108	33.11
549.535	33.12
549.961	33.13
550.387	33.14
550.813	33.13
551.24	33.13
551.666	33.1
552.092	33.1
552.518	33.08
552.943	33.06
553.369	33.04
553.795	32.98
554.221	32.96
554.646	32.89
555.072	32.85
555.498	32.78
555.923	32.73
556.349	32.67
556.774	32.58
557.199	32.5
557.625	32.41
558.05	32.32
558.475	32.22
558.9	32.13
559.325	32.05
559.75	31.92
560.175	31.82
560.6	31.69
561.025	31.57
561.449	31.44
561.874	31.31
562.299	31.17
562.723	31.05
563.148	30.9
563.572	30.72
563.997	30.56
564.421	30.39
564.846	30.21
565.27	30.05
565.694	29.87
566.118	29.7
566.542	29.52
566.966	29.34
567.39	29.15
567.814	28.98
568.238	28.81
568.662	28.63
569.086	28.47
569.509	28.3
569.933	28.14
570.357	27.97
570.78	27.78
571.204	27.6
571.627	27.43
572.05	27.26
572.474	27.08
572.897	26.92
573.32	26.76
573.743	26.58
574.166	26.41
574.589	26.24
575.012	26.08
575.435	25.94
575.858	25.79
576.281	25.65
576.704	25.51
577.126	25.38
577.549	25.24
577.972	25.1
578.394	24.97
578.817	24.87
579.239	24.77
579.661	24.66
580.084	24.55
580.506	24.46
580.928	24.35
581.35	24.25
581.772	24.14
582.194	24.05
582.616	23.97
583.038	23.87
583.46	23.75
583.882	23.64
584.303	23.55
584.725	23.46
585.147	23.37
585.568	23.28
585.99	23.21
586.411	23.13
586.833	23.03
587.254	22.93
587.675	22.85
588.096	22.8
588.518	22.72
588.939	22.66
589.36	22.58
589.781	22.51
590.202	22.46
590.623	22.4
591.043	22.34
591.464	22.29
591.885	22.25
592.305	22.21
592.726	22.16
593.147	22.12
593.567	22.07
593.987	22.03
594.408	21.98
594.828	21.93
595.248	21.9
595.669	21.86
596.089	21.83
596.509	21.78
596.929	21.74
597.349	21.71
597.769	21.67
598.189	21.63
598.608	21.6
599.028	21.56
599.448	21.51
599.867	21.44
600.287	21.4
600.706	21.35
601.126	21.29
601.545	21.24
601.965	21.19
602.384	21.12
602.803	21.05
603.222	20.99
603.641	20.92
604.061	20.84
604.48	20.78
604.898	20.69
605.317	20.61
605.736	20.53
606.155	20.46
606.574	20.36
606.992	20.26
607.411	20.17
607.829	20.05
608.248	19.96
608.666	19.86
609.085	19.76
609.503	19.66
609.921	19.55
610.339	19.45
610.758	19.33
611.176	19.22
611.594	19.12
612.012	19.01
612.43	18.94
612.847	18.84
613.265	18.75
613.683	18.65
614.101	18.56
614.518	18.46
614.936	18.36
615.353	18.25
615.771	18.18
616.188	18.09
616.606	18.02
617.023	17.93
617.44	17.87
617.857	17.79
618.274	17.71
618.691	17.64
619.108	17.58
619.525	17.52
619.942	17.48
620.359	17.43
620.776	17.38
621.192	17.32
621.609	17.29
622.026	17.25
622.442	17.22
622.859	17.19
623.275	17.17
623.691	17.15
624.108	17.14
624.524	17.12
624.94	17.1
625.356	17.1
625.772	17.09
626.188	17.07
626.604	17.05
627.02	17.03
627.436	17.02
627.852	17.02
628.268	17
628.683	16.98
629.099	16.96
629.514	16.93
629.93	16.91
630.345	16.87
630.761	16.83
631.176	16.79
631.591	16.73
632.007	16.67
632.422	16.6
632.837	16.53
633.252	16.47
633.667	16.4
634.082	16.32
634.497	16.23
634.911	16.14
635.326	16.05
635.741	15.95
636.155	15.85
636.57	15.74
636.984	15.63
637.399	15.5
637.813	15.36
638.228	15.24
638.642	15.09
639.056	14.95
639.47	14.81
639.884	14.68
640.298	14.54
640.712	14.4
641.126	14.25
641.54	14.1
641.954	13.96
642.368	13.82
642.781	13.68
643.195	13.56
643.609	13.42
644.022	13.29
644.436	13.15
644.849	13.03
645.262	12.91
645.676	12.81
646.089	12.71
646.502	12.63
646.915	12.54
647.328	12.46
647.741	12.37
648.154	12.29
648.567	12.23
648.98	12.17
649.393	12.1
649.805	12.06
650.218	12
650.631	11.94
651.043	11.88
651.456	11.84
651.868	11.77
652.28	11.71
652.693	11.67
653.105	11.62
653.517	11.56
653.929	11.5
654.341	11.43
654.753	11.35
655.165	11.27
655.577	11.19
655.989	11.1
656.401	11.02
656.813	10.93
657.224	10.81
657.636	10.71
658.047	10.6
658.459	10.49
658.87	10.38
659.282	10.27
659.693	10.18
660.104	10.07
660.515	9.96
660.926	9.85
661.338	9.75
661.749	9.65
662.159	9.56
662.57	9.48
662.981	9.4
663.392	9.31
663.803	9.23
664.213	9.14
664.624	9.05
665.035	9
665.445	8.93
665.855	8.87
666.266	8.83
666.676	8.8
667.086	8.74
667.497	8.69
667.907	8.67
668.317	8.63
668.727	8.61
669.137	8.6
669.547	8.57
669.956	8.55
670.366	8.55
670.776	8.53
671.186	8.51
671.595	8.51
672.005	8.5
672.414	8.49
672.824	8.5
673.233	8.51
673.642	8.52
674.052	8.54
674.461	8.56
674.87	8.56
675.279	8.59
675.688	8.61
676.097	8.65
676.506	8.68
676.915	8.72
677.323	8.76
677.732	8.79
678.141	8.84
678.549	8.87
678.958	8.93
679.366	9
679.775	9.07
680.183	9.15
680.592	9.24
681	9.34
681.408	9.45
681.816	9.56
682.224	9.71
682.632	9.85
683.04	10.02
683.448	10.18
683.856	10.35
684.264	10.57
684.671	10.8
685.079	11.06
685.487	11.33
685.894	11.63
686.302	11.96
686.709	12.31
687.116	12.7
687.524	13.14
687.931	13.6
688.338	14.08
688.745	14.58
689.152	15.1
689.559	15.65
689.966	16.24
690.373	16.84
690.78	17.47
691.187	18.1
691.593	18.76
692	19.39
692.407	20.05
692.813	20.75
693.22	21.44
693.626	22.14
694.032	22.86
694.439	23.58
694.845	24.3
695.251	25.02
695.657	25.74
696.063	26.44
696.469	27.15
696.875	27.86
697.281	28.56
697.687	29.25
698.093	29.92
698.498	30.57
698.904	31.21
699.31	31.84
699.715	32.47
700.12	33.08
700.526	33.71
700.931	34.31
701.337	34.9
701.742	35.46
702.147	36.03
702.552	36.59
702.957	37.1
703.362	37.62
703.767	38.12
704.172	38.61
704.577	39.11
704.981	39.6
705.386	40.08
705.791	40.56
706.195	41.04
706.6	41.5
707.004	41.95
707.408	42.41
707.813	42.87
708.217	43.31
708.621	43.73
709.025	44.12
709.43	44.49
709.834	44.91
710.237	45.27
710.641	45.65
711.045	46.01
711.449	46.39
711.853	46.77
712.256	47.1
712.66	47.43
713.064	47.78
713.467	48.12
713.87	48.49
714.274	48.78
714.677	49.13
715.08	49.43
715.484	49.72
715.887	50.02
716.29	50.29
716.693	50.59
717.096	50.9
717.499	51.19
717.901	51.47
718.304	51.71
718.707	51.99
719.109	52.23
719.512	52.49
719.915	52.78
720.317	52.99
720.719	53.19
721.122	53.42
721.524	53.65
721.926	53.87
722.328	54.08
722.731	54.28
723.133	54.49
723.535	54.69
723.937	54.85
724.338	55.01
724.74	55.22
725.142	55.52
725.544	55.66
725.945	55.82
726.347	55.93
726.748	56.07
727.15	56.19
727.551	56.32
727.952	56.44
728.354	56.58
728.755	56.65
729.156	56.74
729.557	56.73
729.958	56.86
730.359	56.94
730.76	57.07
731.161	57.17
731.562	57.3
731.962	57.35
732.363	57.44
732.763	57.54
733.164	57.68
733.564	57.77
733.965	57.85
734.365	57.94
734.766	58.01
735.166	58.08
735.566	58.13
735.966	58.18
736.366	58.27
736.766	58.34
737.166	58.37
737.566	58.4
737.966	58.45
738.365	58.5
738.765	58.53
739.165	58.6
739.564	58.63
739.964	58.68
740.363	58.73
740.763	58.78
741.162	58.81
741.561	58.86
741.96	58.9
742.36	58.96
742.759	58.98
743.158	59.01
743.557	59
743.955	59.05
744.354	59.08
744.753	59.1
745.152	59.12
745.55	59.14
745.949	59.16
746.348	59.2
746.746	59.16
747.144	59.2
747.543	59.2
747.941	59.26
748.339	59.24
748.737	59.26
749.136	59.28
749.534	59.26
749.932	59.27
750.33	59.26
750.727	59.28
751.125	59.31
751.523	59.32
751.921	59.33
752.318	59.32
752.716	59.33
753.113	59.34
753.511	59.34
753.908	59.4
754.305	59.42
754.703	59.44
755.1	59.43
755.497	59.44
755.894	59.44
756.291	59.46
756.688	59.45
757.085	59.47
757.482	59.47
757.878	59.49
758.275	59.45
758.672	59.45
759.068	59.49
759.465	59.48
759.861	59.5
760.258	59.52
760.654	59.56
761.05	59.56
761.447	59.58
761.843	59.57
762.239	59.57
762.635	59.56
763.031	59.57
763.427	59.54
763.822	59.54
764.218	59.53
764.614	59.53
765.01	59.49
765.405	59.47
765.801	59.43
766.196	59.43
766.592	59.42
766.987	59.44
767.382	59.4
767.778	59.4
768.173	59.4
768.568	59.39
768.963	59.36
769.358	59.36
769.753	59.36
770.148	59.36
770.542	59.38
770.937	59.39
771.332	59.39
771.726	59.4
772.121	59.39
772.515	59.38
772.91	59.37
773.304	59.4
773.699	59.38
774.093	59.36
774.487	59.35
774.881	59.35
775.275	59.32
775.669	59.28
776.063	59.26
776.457	59.27
776.851	59.25
777.245	59.23
777.638	59.21
778.032	59.22
778.425	59.27
778.819	59.29
779.212	59.31
779.606	59.33
779.999	59.34
780.392	59.42
780.786	59.45
781.179	59.48
781.572	59.53
781.965	59.56
782.358	59.56
782.751	59.54
783.143	59.55
783.536	59.53
783.929	59.53
784.322	59.55
784.714	59.53
785.107	59.53
785.499	59.49
785.891	59.49
786.284	59.5
786.676	59.51
787.068	59.51
787.46	59.49
787.852	59.47
788.245	59.46
788.636	59.44
789.028	59.43
789.42	59.41
789.812	59.43
790.204	59.44
790.595	59.41
790.987	59.4
791.378	59.47
791.77	59.5
792.161	59.51
792.553	59.52
792.944	59.51
793.335	59.51
793.726	59.55
794.117	59.52
794.508	59.5
794.899	59.52
795.29	59.5
795.681	59.43
796.072	59.4
796.463	59.45
796.853	59.43
797.244	59.43
797.634	59.43
798.025	59.42
798.415	59.4
798.806	59.42
799.196	59.41
799.586	59.45
799.976	59.48
800.366	59.47
800.756	59.44
801.146	59.47
801.536	59.49
801.926	59.47
802.316	59.46
802.706	59.49
803.095	59.49
803.485	59.5
803.874	59.47
804.264	59.49
804.653	59.49
805.043	59.49
805.432	59.46
805.821	59.48
806.21	59.5
806.599	59.49
806.988	59.52
807.377	59.5
807.766	59.49
808.155	59.49
808.544	59.48
808.933	59.47
809.321	59.46
809.71	59.48
810.098	59.46
810.487	59.43
810.875	59.46
811.264	59.44
811.652	59.49
812.04	59.5
812.428	59.53
812.816	59.54
813.204	59.54
813.592	59.54
813.98	59.57
814.368	59.58
814.756	59.58
815.144	59.54
815.531	59.51
815.919	59.48
816.306	59.46
816.694	59.45
817.081	59.44
817.469	59.45
817.856	59.46
818.243	59.41
818.63	59.4
819.017	59.41
819.404	59.43
819.791	59.46
820.178	59.47
820.565	59.45
820.952	59.44
821.339	59.42
821.725	59.42
822.112	59.44
822.498	59.47
822.885	59.47
823.271	59.48
823.657	59.45
824.044	59.43
824.43	59.44
824.816	59.45
825.202	59.45
825.588	59.47
825.974	59.46
826.36	59.44
826.746	59.44
827.132	59.44
827.517	59.46
827.903	59.48
828.289	59.54
828.674	59.53
829.06	59.54
829.445	59.53
829.83	59.53
830.216	59.51
830.601	59.51
830.986	59.47
831.371	59.45
831.756	59.47
832.141	59.47
832.526	59.43
832.911	59.43
833.295	59.43
833.68	59.44
834.065	59.42
834.449	59.42
834.834	59.41
835.218	59.42
835.603	59.43
835.987	59.38
836.371	59.35
836.755	59.34
837.139	59.34
837.524	59.34
837.908	59.34
838.291	59.36
838.675	59.37
839.059	59.38
839.443	59.38
839.827	59.36
840.21	59.35
840.594	59.38
840.977	59.36
841.361	59.36
841.744	59.3
842.127	59.27
842.511	59.25
842.894	59.24
843.277	59.25
843.66	59.22
844.043	59.22
844.426	59.24
844.809	59.22
845.191	59.27
845.574	59.26
845.957	59.3
846.339	59.3
846.722	59.32
847.104	59.34
847.487	59.34
847.869	59.35
848.252	59.38
848.634	59.38
849.016	59.4
849.398	59.4
849.78	59.4
850.162	59.39
850.544	59.42
850.926	59.42
851.307	59.38
851.689	59.36
852.071	59.39
852.452	59.38
852.834	59.39
853.215	59.37
853.597	59.35
853.978	59.35
854.359	59.33
854.741	59.32
855.122	59.31
855.503	59.31
855.884	59.32
856.265	59.3
856.646	59.28
857.026	59.3
857.407	59.3
857.788	59.29
858.169	59.3
858.549	59.29
858.93	59.28
859.31	59.29
859.69	59.3
860.071	59.3
860.451	59.29
860.831	59.29
861.211	59.26
861.591	59.26
861.971	59.24
862.351	59.24
862.731	59.26
863.111	59.24
863.491	59.23
863.87	59.22
864.25	59.19
864.629	59.2
865.009	59.19
865.388	59.17
865.768	59.17
866.147	59.2
866.526	59.19
866.905	59.2
867.284	59.19
867.663	59.2
868.042	59.2
868.421	59.21
868.8	59.21
869.179	59.23
869.558	59.25
869.936	59.25
870.315	59.23
870.693	59.25
871.072	59.23
871.45	59.27
871.828	59.27
872.207	59.29
872.585	59.28
872.963	59.3
873.341	59.26
873.719	59.27
874.097	59.26
874.475	59.27
874.853	59.24
875.23	59.25
875.608	59.25
875.986	59.28
876.363	59.3
876.741	59.32
877.118	59.31
877.495	59.35
877.873	59.36
878.25	59.39
878.627	59.4
879.004	59.42
879.381	59.41
879.758	59.38
880.135	59.36
880.512	59.31
880.889	59.32
881.265	59.28
881.642	59.28
882.019	59.27
882.395	59.24
882.772	59.21
883.148	59.18
883.524	59.19
883.901	59.19
884.277	59.17
884.653	59.15
885.029	59.15
885.405	59.18
885.781	59.17
886.157	59.14
886.532	59.15
886.908	59.13
887.284	59.15
887.659	59.1
888.035	59.08
888.411	59.07
888.786	59.09
889.161	59.08
889.537	59.06
889.912	59.05
890.287	59.06
890.662	59.06
891.037	59.09
891.412	59.1
891.787	59.1
892.162	59.11
892.536	59.11
892.911	59.12
893.286	59.12
893.66	59.11
894.035	59.13
894.409	59.13
894.784	59.13
895.158	59.09
895.532	59.09
895.906	59.09
896.281	59.08
896.655	59.07
897.029	59.08
897.402	59.07
897.776	59.09
898.15	59.07
898.524	59.07
898.898	59.05
899.271	59.07
899.645	59.08
900.018	59.12
900.392	59.14
900.765	59.16
901.138	59.14
901.511	59.16
901.884	59.14
902.258	59.17
902.631	59.17
903.003	59.2
903.376	59.2
903.749	59.18
904.122	59.17
904.495	59.18
904.867	59.18
905.24	59.19
905.612	59.2
905.985	59.2
906.357	59.18
906.729	59.2
907.102	59.18
907.474	59.2
907.846	59.22
908.218	59.2
908.59	59.21
908.962	59.23
909.334	59.24
909.705	59.23
910.077	59.25
910.449	59.25
910.82	59.25
911.192	59.24
911.563	59.22
911.935	59.18
912.306	59.17
912.677	59.18
913.048	59.17
913.419	59.15
913.79	59.17
914.161	59.16
914.532	59.15
914.903	59.17
915.274	59.17
915.645	59.18
916.015	59.21
916.386	59.2
916.756	59.19
917.127	59.18
917.497	59.19
917.868	59.19
918.238	59.19
918.608	59.24
918.978	59.22
919.348	59.24
919.718	59.25
920.088	59.25
920.458	59.3
920.828	59.28
921.198	59.27
921.567	59.27
921.937	59.27
922.306	59.28
922.676	59.25
923.045	59.24
923.415	59.22
923.784	59.2
924.153	59.2
924.522	59.19
924.891	59.19
925.26	59.18
925.629	59.16
925.998	59.13
926.367	59.12
926.736	59.08
927.104	59.07
927.473	59.04
927.842	58.98
928.21	58.99
928.578	58.94
928.947	58.97
929.315	58.96
929.683	58.95
930.051	58.93
930.42	58.89
930.788	58.88
931.156	58.84
931.523	58.81
931.891	58.89
932.259	58.87
932.627	58.87
932.994	58.82
933.362	58.81
933.729	58.83
934.097	58.8
934.464	58.85
934.831	58.87
935.199	58.91
935.566	58.92
935.933	58.88
936.3	58.83
936.667	58.81
937.034	58.84
937.401	58.85
937.767	58.84
938.134	58.85
938.501	58.87
938.867	58.9
939.234	58.85
939.6	58.87
939.967	58.92
940.333	58.96
940.699	59.04
941.065	59
941.431	59.03
941.798	59.02
942.163	59.01
942.529	58.98
942.895	58.93
943.261	58.96
943.627	58.95
943.992	58.91
944.358	58.9
944.723	58.84
945.089	58.79
945.454	58.79
945.82	58.75
946.185	58.78
946.55	58.7
946.915	58.67
947.28	58.61
947.645	58.6
948.01	58.57
948.375	58.53
948.74	58.51
949.104	58.56
949.469	58.46
949.834	58.44
950.198	58.44
950.562	58.42
950.927	58.36
951.291	58.26
951.655	58.21
952.02	58.2
952.384	58.2
952.748	58.21
953.112	58.17
953.476	58.14
953.839	58.1
954.203	58.06
954.567	58
954.931	58.01
955.294	58.07
955.658	58.08
956.021	58.08
956.385	58.02
956.748	57.91
957.111	57.87
957.474	57.89
957.837	57.86
958.2	57.83
958.563	57.89
958.926	57.91
959.289	57.93
959.652	57.89
960.015	57.87
960.377	57.88
960.74	57.94
961.102	57.92
961.465	57.95
961.827	58.01
962.189	58.01
962.552	57.99
962.914	57.95
963.276	57.99
963.638	58.04
964	58.02
964.362	57.99
964.724	57.93
965.085	57.95
965.447	57.94
965.809	57.97
966.17	57.98
966.532	58
966.893	58.01
967.255	57.96
967.616	57.97
967.977	58.02
968.338	58.03
968.699	58.1
969.061	58.1
969.421	58.15
969.782	58.12
970.143	58.09
970.504	58.09
970.865	58.13
971.225	58.13
971.586	58.07
971.946	58.02
972.307	58.05
972.667	58.01
973.027	58.02
973.388	57.95
973.748	57.98
974.108	58
974.468	57.93
974.828	57.96
975.188	57.96
975.548	57.99
975.907	58
976.267	57.92
976.627	57.96
976.986	57.93
977.346	57.84
977.705	57.78
978.064	57.8
978.424	57.87
978.783	57.79
979.142	57.71
979.501	57.69
979.86	57.74
980.219	57.76
980.578	57.74
980.937	57.79
981.296	57.88
981.654	57.86
982.013	57.85
982.371	57.81
982.73	57.86
983.088	57.89
983.447	57.87
983.805	57.9
984.163	57.91
984.521	57.88
984.879	57.81
985.237	57.8
985.595	57.86
985.953	57.8
986.311	57.82
986.669	57.74
987.026	57.71
987.384	57.71
987.741	57.54
988.099	57.57
988.456	57.52
988.814	57.6
989.171	57.62
989.528	57.66
989.885	57.75
990.242	57.76
990.599	57.95
990.956	58.06
991.313	58.13
991.67	58.22
992.027	58.32
992.383	58.38
992.74	58.42
993.096	58.47
993.453	58.39
993.809	58.44
994.165	58.55
994.522	58.55
994.878	58.51
995.234	58.45
995.59	58.43
995.946	58.32
996.302	58.4
996.658	58.41
997.013	58.43
997.369	58.49
997.725	58.42
998.08	58.36
998.436	58.31
998.791	58.4
999.147	58.32
999.502	58.4
999.857	58.42
1000.212	58.39
1000.567	58.41
1000.922	58.29
1001.277	58.31
1001.632	58.28
1001.987	58.24
1002.342	58.17
1002.696	58.03
1003.051	58.31
1003.406	58.46
1003.76	58.45
1004.114	58.41
1004.469	58.35
1004.823	58.63
1005.177	58.59
1005.531	58.66
1005.885	58.74
1006.239	58.71
1006.593	58.87
1006.947	58.78
1007.301	58.61
1007.655	58.74
1008.008	58.74
1008.362	58.82
1008.715	58.7
1009.069	58.77
1009.422	58.78
1009.776	58.77
1010.129	58.87
1010.482	58.82
1010.835	58.83
1011.188	58.85
1011.541	58.72
1011.894	58.86
1012.247	58.82
1012.6	58.65
1012.952	58.55
1013.305	58.6
1013.657	58.71
1014.01	58.77
1014.362	58.87
1014.715	59.04
1015.067	59.22
1015.419	59.46
1015.771	59.29
1016.123	59.32
1016.475	59.44
1016.827	59.57
1017.179	59.61
1017.531	59.62
1017.883	59.66
1018.234	59.45
1018.586	59.41
1018.938	59.47
1019.289	59.34
1019.64	59.44
1019.992	59.38
1020.343	59.34
1020.694	59.24
1021.045	59.04
1021.396	58.96
1021.747	58.95
1022.098	59.28
1022.449	59.06
1022.8	59.08
1023.151	59.08
1023.501	59.33
1023.852	59.44
1024.202	59.61
1024.553	59.51
1024.903	59.97
1025.253	60
1025.604	60.03
1025.954	59.7
1026.304	59.81
1026.654	59.75
1027.004	59.81
1027.354	59.54
1027.703	59.41
1028.053	59.28
1028.403	59.51
1028.753	58.91
1029.102	59.16
1029.452	59.4
1029.801	59.9
1030.15	60
1030.499	59.92
897.758	1313.06
901.051	1323
904.343	1315.97
907.636	1341.25
910.928	1301.32
914.22	1299.45
917.511	1279.26
920.803	1224.58
924.094	1221.44
927.384	1191.07
930.675	1142.69
933.965	1136.96
937.255	1068.73
940.544	1027.63
943.834	977.28
947.123	972.12
950.411	912.64
953.7	894.44
956.988	846.92
960.276	812.65
963.563	801.17
966.851	771.9
970.138	767.31
973.424	742.74
976.711	746.79
979.997	710.09
983.283	706.22
986.568	694.48
989.853	671.67
993.138	660.29
996.423	633.37
999.708	616.35
1002.992	611.32
1006.275	581.63
1009.559	577.36
1012.842	555.98
1016.125	541.99
1019.408	531.62
1022.69	525.03
1025.972	515.16
1029.254	503.28
1032.536	495.72
1035.817	484.18
1039.098	477.81
1042.379	470.44
1045.659	464.73
1048.939	453.72
1052.219	444.73
1055.498	437.77
1058.778	427.86
1062.057	417.94
1065.335	413.9
1068.614	409.1
1071.892	405.07
1075.17	391.84
1078.447	383.87
1081.724	381.4
1085.001	378.95
1088.278	371.34
1091.554	364.75
1094.83	364.84
1098.106	362.91
1101.382	359.58
1104.657	356.96
1107.932	351.08
1111.206	353.3
1114.481	344.87
1117.755	341.55
1121.029	338.86
1124.302	338.26
1127.575	331.59
1130.848	327.47
1134.121	324.67
1137.393	322.49
1140.665	315.92
1143.937	314.46
1147.208	312.88
1150.48	312.15
1153.75	308.87
1157.021	304.32
1160.291	304.22
1163.561	302.07
1166.831	301.54
1170.101	298.84
1173.37	298.06
1176.639	299.17
1179.907	296.18
1183.176	291.94
1186.444	292.71
1189.711	291.2
1192.979	290.34
1196.246	288.88
1199.513	288.97
1202.78	287.25
1206.046	287.62
1209.312	284.35
1212.578	284.66
1215.843	286.91
1219.108	286.1
1222.373	290.75
1225.638	293.42
1228.902	297.2
1232.166	297.19
1235.43	300.68
1238.693	304.48
1241.956	305.37
1245.219	310.87
1248.482	310.55
1251.744	310.74
1255.006	310.75
1258.268	303.41
1261.529	300.44
1264.79	298.61
1268.051	297.2
1271.312	292.93
1274.572	289.13
1277.832	287.81
1281.092	282.31
1284.351	279.99
1287.61	280.08
1290.869	276.55
1294.128	274.76
1297.386	275
1300.644	272.14
1303.902	272.32
1307.159	271.73
1310.416	272.56
1313.673	271.19
1316.93	274.86
1320.186	275.02
1323.442	275.43
1326.697	279.92
1329.953	281.22
1333.208	282.29
1336.463	285.03
1339.717	286.28
1342.972	289.08
1346.226	291.53
1349.479	291.99
1352.733	293.37
1355.986	295.19
1359.238	295.13
1362.491	296.87
1365.743	298.54
1368.995	298.68
1372.247	297.99
1375.498	297.54
1378.749	299.91
1382	296.09
1385.251	296.38
1388.501	295.24
1391.751	295.65
1395	294.47
1398.25	292.1
1401.499	291.34
1404.748	290.66
1407.996	288.57
1411.244	287.45
1414.492	285.53
1417.74	283
1420.987	279.5
1424.234	279.32
1427.481	275.26
1430.728	274.53
1433.974	272.83
1437.22	270.18
1440.465	269.21
1443.711	267.29
1446.956	265.92
1450.201	262.69
1453.445	260.26
1456.689	260.24
1459.933	254.53
1463.177	253.39
1466.42	249.59
1469.663	246.12
1472.906	244.8
1476.148	238.59
1479.391	236.34
1482.633	233.98
1485.874	230.47
1489.115	229.17
1492.356	226.41
1495.597	226.9
1498.838	223
1502.078	222.15
1505.318	221.29
1508.557	220.94
1511.797	221.27
1515.036	219.59
1518.274	218.42
1521.513	217.19
1524.751	217.21
1527.989	216.42
1531.227	215.2
1534.464	215.99
1537.701	214.1
1540.938	213.76
1544.174	211.2
1547.41	211.04
1550.646	210.16
1553.882	210.48
1557.117	207.51
1560.352	206.25
1563.587	205.58
1566.821	204.16
1570.055	202.57
1573.289	201.22
1576.523	200.98
1579.756	199.97
1582.989	198.35
1586.222	198.23
1589.454	196.77
1592.686	198.25
1595.918	197.08
1599.15	196.78
1602.381	197.08
1605.612	196.63
1608.843	197.54
1612.073	197.23
1615.303	197.79
1618.533	198.24
1621.762	198.05
1624.992	198.24
1628.221	198.14
1631.449	198.46
1634.678	197.59
1637.906	198.75
1641.134	198.8
1644.361	198.23
1647.588	199.27
1650.815	198.51
1654.042	197.57
1657.269	198.81
1660.495	199.42
1663.72	198.34
1666.946	199.19
1670.171	200.04
1673.396	199.58
1676.621	199.38
1679.845	199.9
1683.069	199.02
1686.293	200.61
1689.517	202.38
1692.74	201.67
1695.963	202.08
1699.185	204.32
1702.408	203.78
1705.63	204.31
1708.852	204.5
1712.073	205.1
1715.294	205.55
1718.515	206.86
1721.736	206.22
1724.956	206.34
1728.176	206.7
1731.396	208.81
1734.616	207.98
1737.835	208.96
1741.054	207.87
1744.272	208.56
1747.491	210.76
1750.709	210.86
1753.927	210.91
1757.144	209.97
1760.361	210.96
1763.578	211.25
1766.795	210.37
1770.011	212.02
1773.227	211.5
1776.443	214.36
1779.658	215.6
1782.874	214.72
1786.089	215.59
1789.303	216.14
1792.518	219.42
1795.732	219.28
1798.945	221.22
1802.159	221.53
1805.372	221.98
1808.585	226.61
1811.797	226.56
1815.01	226.64
1818.222	228.71
1821.434	230.14
1824.645	231.25
1827.856	234.55
1831.067	236.19
1834.278	234.66
1837.488	236.67
1840.698	238.39
1843.908	235.71
1847.117	237.79
1850.326	238.57
1853.535	238.41
1856.744	241.95
1859.952	241.16
1863.16	239.26
1866.368	238.1
1869.575	241.56
1872.782	237.41
1875.989	235.8
1879.196	235.11
1882.402	232.78
1885.608	234.18
1888.814	233.73
1892.019	232.46
1895.224	232.02
1898.429	231.13
1901.634	232.43
1904.838	232.47
1908.042	234.94
1911.246	236.18
1914.449	237.72
1917.652	237.58
1920.855	237.84
1924.058	236.37
1927.26	235.44
1930.462	237.02
1933.664	239.31
1936.865	236.9
1940.066	236.37
1943.267	235.23
1946.467	234.65
1949.668	236.35
1952.868	238.99
1956.067	237.8
1959.267	239.7
1962.466	240.51
1965.665	238.75
1968.863	239.78
1972.061	242.91
1975.259	245.33
1978.457	246.93
1981.654	249.22
1984.852	249.41
1988.048	248.94
1991.245	251.14
1994.441	253.79
1997.637	255.88
2000.833	261
2004.028	264.18
2007.223	265.77
2010.418	268.11
2013.613	273.6
2016.807	276.86
2020.001	278.61
2023.194	282.43
2026.388	289.49
2029.581	295.98
2032.774	297.82
2035.966	303.34
2039.158	304.3
2042.35	310.3
2045.542	311.61
2048.733	315.65
2051.924	318.84
2055.115	324.91
2058.306	325.52
2061.496	328.29
2064.686	327.86
2067.875	334.15
2071.065	335.93
2074.254	334.05
2077.442	337.92
2080.631	339.92
2083.819	342.92
2087.007	342.89
2090.195	347.35
2093.382	351.05
2096.569	348.47
2099.756	353.63
2102.942	354.41
2106.128	356.72
2109.314	364.7
2112.5	362.94
2115.685	370.88
2118.87	371.08
2122.055	379.54
2125.239	380.93
2128.424	384.86
2131.608	389.24
2134.791	392.65
2137.974	395.92
2141.157	397.28
2144.34	398.05
2147.523	404.2
2150.705	401.53
2153.887	405.57
2157.068	406.55
2160.25	402.87
2163.431	405.78
2166.611	409.03
2169.792	418.07
2172.972	422.08
2176.152	423.76
2179.331	430.01
2182.511	437.02
2185.69	441.26
2188.868	450.75
2192.047	451.53
2195.225	465.04
2198.403	476.32
2201.58	484.49
2204.758	493.38
2207.935	501.55
2211.111	510.87
2214.288	515.87
2217.464	516.42
2220.64	526.01
2223.815	531.83
2226.991	553.77
2230.166	554.2
2233.34	562.75
2236.515	572.78
2239.689	574.45
2242.863	578.97
2246.036	596.29
2249.209	591.55
2252.382	602.35
2255.555	619.6
2258.727	621.71
2261.9	625.92
2265.071	631.8
2268.243	640.97
2271.414	646.61
2274.585	661.12
2277.756	666.59
2280.926	671.91
2284.096	686.97
2287.266	702.94
2290.436	707.07
2293.605	723.76
2296.774	742.16
2299.942	768.01
2303.111	771.51
2306.279	788.92
2309.447	798.55
2312.614	818.63
2315.781	837.9
2318.948	878.52
2322.115	864.15
2325.281	909.46
2328.447	892.3
2331.613	927.26
2334.779	914.46
2337.944	955.6
2341.109	965.37
2344.274	990.41
2347.438	1025.32
2350.602	1028.42
2353.766	1059.15
2356.929	1074.13
2360.092	1066.65
2363.255	1141.87
2366.418	1140.2
2369.58	1163.14
2372.742	1234.82
2375.904	1266.95
2379.066	1258.94
2382.227	1238.44
2385.388	1340.84
2388.548	1337.17
2391.709	1353.61
2394.869	1512.64
2398.029	1446.92
2401.188	1485.08
2404.347	1474.79
2407.506	1449.12
2410.665	1491.9
2413.823	1583.85
2416.981	1674.12
2420.139	1615.9
2423.296	1603.01
2426.453	1668.31
2429.61	1605.5
2432.767	1680.85
2435.923	1667.98
2439.079	1822.04
2442.235	1841.82
2445.391	1824.22
2448.546	1809.89
2451.701	1756.93
2454.855	1757.88
2458.009	1862.23
2461.163	1947.82
2464.317	2014.41
2467.471	2060.82
2470.624	2065.7
2473.777	2013.66
2476.929	1968.46
2480.082	1909.12
2483.234	1888.22
2486.385	1984.62
2489.537	1995.46
2492.688	2069.13
2495.839	2007.83
2498.989	1961.88
2502.14	1979.87
2505.29	1995.41
2508.439	2029.01
2511.589	2021.32
2514.738	2209.42
2517.887	2160.54
2521.035	2282.49
2524.183	2305.97
2527.331	2320.04
2530.479	2312.46
2533.627	2333.13
