Data from N_2_HIR_WI_4N_Splice17_13-33-52-337.txt Node
Date: Sat Mar 07 13:33:52 EST 2020
User: sa697716
Spectrometer: NQ5500242
Trigger mode: 0
Integration Time (sec): 1.450000E-1
Scans to average: 20
Nonlinearity correction enabled: false
Boxcar width: 5
Storing dark spectrum: false
XAxis mode: Wavelengths
Number of Pixels in Spectrum: 512
>>>>>Begin Spectral Data<<<<<
187.83	180.01
188.298	187.69
188.766	162.38
189.233	146.41
189.701	146.14
190.169	176.63
190.636	197.29
191.104	253.55
191.571	97.27
192.039	15.03
192.506	-14.1
192.974	135.09
193.441	157.6
193.908	50.9
194.375	91.42
194.842	35
195.31	57.72
195.777	261.16
196.244	99.67
196.711	87.25
197.177	87.54
197.644	86.24
198.111	86.71
198.578	86.75
199.045	87.57
199.511	87.03
199.978	87.3
200.445	87.63
200.911	87.38
201.378	87.22
201.844	87.18
202.31	86.59
202.777	86.62
203.243	86.21
203.709	85.45
204.176	84.46
204.642	84.1
205.108	83.37
205.574	82.43
206.04	81.34
206.506	80.52
206.972	79.97
207.438	79.4
207.903	77.9
208.369	76.13
208.835	74.57
209.301	72.92
209.766	70.9
210.232	69.01
210.697	67.11
211.163	65.36
211.628	63.67
212.094	61.86
212.559	60.29
213.024	59
213.49	57.75
213.955	56.66
214.42	55.2
214.885	53.42
215.35	51.12
215.815	48.31
216.28	44.96
216.745	41.26
217.21	37.48
217.675	33.92
218.14	30.86
218.604	28.19
219.069	25.85
219.534	24.02
219.998	22.52
220.463	21.3
220.927	20.22
221.392	19.35
221.856	18.58
222.32	17.96
222.785	17.44
223.249	16.94
223.713	16.5
224.177	16.14
224.642	15.76
225.106	15.37
225.57	14.99
226.034	14.67
226.497	14.38
226.961	14.11
227.425	13.83
227.889	13.56
228.353	13.29
228.816	13.05
229.28	12.8
229.744	12.58
230.207	12.37
230.671	12.17
231.134	11.98
231.597	11.79
232.061	11.61
232.524	11.44
232.987	11.27
233.45	11.13
233.914	10.98
234.377	10.82
234.84	10.69
235.303	10.57
235.766	10.45
236.229	10.32
236.691	10.21
237.154	10.09
237.617	10
238.08	9.88
238.542	9.77
239.005	9.67
239.468	9.57
239.93	9.46
240.393	9.38
240.855	9.26
241.317	9.17
241.78	9.06
242.242	8.96
242.704	8.86
243.166	8.78
243.629	8.71
244.091	8.61
244.553	8.54
245.015	8.45
245.477	8.38
245.939	8.3
246.4	8.22
246.862	8.15
247.324	8.08
247.786	8
248.247	7.92
248.709	7.83
249.17	7.75
249.632	7.69
250.093	7.63
250.555	7.55
251.016	7.5
251.477	7.43
251.939	7.38
252.4	7.33
252.861	7.28
253.322	7.23
253.783	7.18
254.244	7.14
254.705	7.08
255.166	7.03
255.627	6.98
256.088	6.93
256.549	6.88
257.009	6.82
257.47	6.76
257.931	6.71
258.391	6.65
258.852	6.59
259.312	6.54
259.773	6.48
260.233	6.44
260.694	6.39
261.154	6.33
261.614	6.28
262.074	6.24
262.534	6.19
262.994	6.15
263.455	6.11
263.915	6.07
264.374	6.03
264.834	6
265.294	5.96
265.754	5.94
266.214	5.91
266.673	5.88
267.133	5.86
267.593	5.84
268.052	5.82
268.512	5.8
268.971	5.79
269.431	5.77
269.89	5.74
270.349	5.73
270.809	5.7
271.268	5.68
271.727	5.67
272.186	5.65
272.645	5.63
273.104	5.6
273.563	5.58
274.022	5.56
274.481	5.55
274.94	5.53
275.399	5.51
275.857	5.49
276.316	5.47
276.775	5.46
277.233	5.44
277.692	5.43
278.15	5.42
278.609	5.4
279.067	5.4
279.525	5.38
279.984	5.36
280.442	5.35
280.9	5.35
281.358	5.34
281.816	5.33
282.274	5.31
282.732	5.3
283.19	5.29
283.648	5.27
284.106	5.24
284.564	5.23
285.021	5.22
285.479	5.21
285.937	5.19
286.394	5.17
286.852	5.15
287.309	5.14
287.767	5.12
288.224	5.11
288.682	5.09
289.139	5.07
289.596	5.04
290.053	5.01
290.511	4.99
290.968	4.96
291.425	4.94
291.882	4.91
292.339	4.89
292.796	4.87
293.252	4.85
293.709	4.83
294.166	4.82
294.623	4.8
295.079	4.78
295.536	4.77
295.992	4.76
296.449	4.74
296.905	4.73
297.362	4.71
297.818	4.7
298.274	4.68
298.731	4.66
299.187	4.64
299.643	4.63
300.099	4.62
300.555	4.61
301.011	4.6
301.467	4.59
301.923	4.58
302.379	4.58
302.835	4.57
303.291	4.57
303.746	4.56
304.202	4.56
304.658	4.56
305.113	4.55
305.569	4.55
306.024	4.54
306.479	4.53
306.935	4.53
307.39	4.52
307.845	4.52
308.301	4.52
308.756	4.52
309.211	4.51
309.666	4.51
310.121	4.52
310.576	4.51
311.031	4.51
311.486	4.5
311.94	4.5
312.395	4.49
312.85	4.49
313.305	4.49
313.759	4.48
314.214	4.48
314.668	4.47
315.123	4.45
315.577	4.45
316.032	4.44
316.486	4.43
316.94	4.42
317.394	4.41
317.849	4.39
318.303	4.36
318.757	4.34
319.211	4.33
319.665	4.31
320.119	4.28
320.572	4.26
321.026	4.25
321.48	4.23
321.934	4.22
322.387	4.2
322.841	4.19
323.295	4.19
323.748	4.18
324.202	4.17
324.655	4.16
325.108	4.17
325.562	4.17
326.015	4.16
326.468	4.16
326.921	4.16
327.374	4.16
327.827	4.16
328.28	4.14
328.733	4.14
329.186	4.14
329.639	4.14
330.092	4.13
330.545	4.13
330.997	4.12
331.45	4.12
331.903	4.13
332.355	4.14
332.808	4.14
333.26	4.15
333.713	4.14
334.165	4.14
334.617	4.15
335.069	4.15
335.522	4.15
335.974	4.15
336.426	4.15
336.878	4.14
337.33	4.12
337.782	4.12
338.234	4.11
338.686	4.1
339.137	4.1
339.589	4.08
340.041	4.07
340.493	4.06
340.944	4.04
341.396	4.02
341.847	4.01
342.299	3.99
342.75	3.98
343.201	3.96
343.653	3.95
344.104	3.93
344.555	3.92
345.006	3.9
345.457	3.89
345.908	3.87
346.359	3.88
346.81	3.87
347.261	3.86
347.712	3.85
348.163	3.84
348.613	3.83
349.064	3.83
349.515	3.83
349.965	3.82
350.416	3.81
350.866	3.81
351.317	3.79
351.767	3.79
352.217	3.79
352.668	3.78
353.118	3.77
353.568	3.76
354.018	3.77
354.468	3.77
354.918	3.77
355.368	3.78
355.818	3.78
356.268	3.77
356.718	3.77
357.168	3.77
357.617	3.76
358.067	3.76
358.517	3.77
358.966	3.77
359.416	3.77
359.865	3.76
360.315	3.77
360.764	3.77
361.213	3.76
361.663	3.75
362.112	3.75
362.561	3.76
363.01	3.75
363.459	3.73
363.908	3.72
364.357	3.72
364.806	3.72
365.255	3.71
365.703	3.71
366.152	3.72
366.601	3.73
367.05	3.72
367.498	3.72
367.947	3.73
368.395	3.74
368.844	3.73
369.292	3.72
369.74	3.73
370.189	3.71
370.637	3.7
371.085	3.69
371.533	3.67
371.981	3.66
372.429	3.65
372.877	3.64
373.325	3.63
373.773	3.62
374.221	3.62
374.669	3.6
375.116	3.6
375.564	3.59
376.012	3.58
376.459	3.58
376.907	3.58
377.354	3.58
377.801	3.58
378.249	3.58
378.696	3.57
379.143	3.57
379.591	3.57
380.038	3.57
380.485	3.57
380.932	3.57
381.379	3.56
381.826	3.55
382.273	3.55
382.72	3.53
383.166	3.53
383.613	3.52
384.06	3.51
384.506	3.51
384.953	3.5
385.4	3.5
385.846	3.51
386.292	3.5
386.739	3.49
387.185	3.48
387.631	3.49
388.078	3.48
388.524	3.48
388.97	3.48
389.416	3.48
389.862	3.48
390.308	3.48
390.754	3.48
391.2	3.48
391.645	3.48
392.091	3.5
392.537	3.5
392.983	3.51
393.428	3.52
393.874	3.52
394.319	3.53
394.765	3.53
395.21	3.53
395.655	3.54
396.101	3.55
396.546	3.56
396.991	3.58
397.436	3.58
397.881	3.6
398.326	3.61
398.771	3.62
399.216	3.62
399.661	3.64
400.106	3.66
400.551	3.67
400.995	3.67
401.44	3.67
401.885	3.67
402.329	3.69
402.774	3.7
403.218	3.73
403.663	3.74
404.107	3.77
404.551	3.78
404.995	3.78
405.44	3.78
405.884	3.81
406.328	3.83
406.772	3.84
407.216	3.86
407.66	3.87
408.104	3.87
408.547	3.88
408.991	3.9
409.435	3.91
409.879	3.93
410.322	3.97
410.766	4
411.209	4.02
411.653	4.05
412.096	4.07
412.54	4.09
412.983	4.11
413.426	4.16
413.869	4.17
414.312	4.2
414.756	4.23
415.199	4.24
415.642	4.25
416.085	4.27
416.527	4.27
416.97	4.27
417.413	4.28
417.856	4.28
418.298	4.28
418.741	4.28
419.184	4.27
419.626	4.28
420.069	4.3
420.511	4.31
420.953	4.32
421.396	4.35
421.838	4.37
422.28	4.39
422.722	4.43
423.164	4.44
423.606	4.47
424.048	4.49
424.49	4.5
424.932	4.51
425.374	4.52
425.816	4.5
426.258	4.48
426.699	4.47
427.141	4.47
427.582	4.48
428.024	4.49
428.465	4.48
428.907	4.47
429.348	4.47
429.789	4.46
430.231	4.48
430.672	4.51
431.113	4.55
431.554	4.57
431.995	4.58
432.436	4.59
432.877	4.6
433.318	4.62
433.759	4.66
434.2	4.69
434.64	4.72
435.081	4.73
435.522	4.74
435.962	4.76
436.403	4.79
436.843	4.81
437.284	4.82
437.724	4.83
438.164	4.84
438.604	4.84
439.045	4.85
439.485	4.86
439.925	4.86
440.365	4.86
440.805	4.87
441.245	4.88
441.685	4.89
442.125	4.92
442.564	4.93
443.004	4.93
443.444	4.94
443.883	4.94
444.323	4.94
444.762	4.97
445.202	4.97
445.641	4.99
446.081	5.01
446.52	5
446.959	5.01
447.398	5.03
447.837	5.06
448.276	5.07
448.716	5.08
449.154	5.11
449.593	5.13
450.032	5.14
450.471	5.12
450.91	5.12
451.349	5.13
451.787	5.12
452.226	5.11
452.664	5.1
453.103	5.09
453.541	5.09
453.98	5.09
454.418	5.06
454.856	5.06
455.295	5.05
455.733	5.02
456.171	5
456.609	5
457.047	4.97
457.485	4.96
457.923	4.96
458.361	4.95
458.798	4.94
459.236	4.94
459.674	4.94
460.111	4.94
460.549	4.96
460.987	4.98
461.424	4.99
461.862	5
462.299	5.01
462.736	5.01
463.173	5.01
463.611	5.01
464.048	5.02
464.485	5.02
464.922	5.03
465.359	5.03
465.796	5.05
466.233	5.05
466.67	5.06
467.106	5.06
467.543	5.05
467.98	5.06
468.416	5.05
468.853	5.06
469.29	5.05
469.726	5.05
470.162	5.05
470.599	5.03
471.035	5.02
471.471	5.01
471.907	5.01
472.344	5
472.78	5
473.216	4.99
473.652	4.98
474.088	4.97
474.523	4.96
474.959	4.95
475.395	4.92
475.831	4.91
476.266	4.91
476.702	4.89
477.138	4.88
477.573	4.86
478.008	4.86
478.444	4.84
478.879	4.84
479.314	4.83
479.75	4.83
480.185	4.81
480.62	4.79
481.055	4.77
481.49	4.77
481.925	4.75
482.36	4.74
482.795	4.73
483.229	4.72
483.664	4.71
484.099	4.7
484.534	4.69
484.968	4.7
485.403	4.7
485.837	4.71
486.271	4.72
486.706	4.73
487.14	4.73
487.574	4.74
488.009	4.76
488.443	4.78
488.877	4.8
489.311	4.82
489.745	4.85
490.179	4.88
490.613	4.92
491.046	4.95
491.48	4.98
491.914	5.02
492.348	5.06
492.781	5.11
493.215	5.15
493.648	5.21
494.082	5.25
494.515	5.3
494.948	5.35
495.382	5.4
495.815	5.47
496.248	5.53
496.681	5.6
497.114	5.68
497.547	5.74
497.98	5.82
498.413	5.9
498.846	5.98
499.279	6.06
499.711	6.16
500.144	6.26
500.577	6.35
501.009	6.46
501.442	6.57
501.874	6.68
502.306	6.8
502.739	6.93
503.171	7.06
503.603	7.2
504.036	7.34
504.468	7.48
504.9	7.63
505.332	7.77
505.764	7.93
506.196	8.09
506.627	8.27
507.059	8.44
507.491	8.61
507.923	8.79
508.354	8.99
508.786	9.19
509.217	9.4
509.649	9.6
510.08	9.82
510.512	10.04
510.943	10.26
511.374	10.48
511.805	10.72
512.237	10.94
512.668	11.17
513.099	11.41
513.53	11.64
513.961	11.89
514.391	12.15
514.822	12.39
515.253	12.63
515.684	12.87
516.114	13.12
516.545	13.36
516.975	13.62
517.406	13.87
517.836	14.12
518.267	14.37
518.697	14.61
519.127	14.84
519.558	15.08
519.988	15.34
520.418	15.58
520.848	15.8
521.278	16.02
521.708	16.41
522.138	16.63
522.567	16.84
522.997	17.05
523.427	17.26
523.857	17.47
524.286	17.64
524.716	17.82
525.145	18
525.575	18.19
526.004	18.38
526.433	18.38
526.863	18.54
527.292	18.69
527.721	18.83
528.15	18.95
528.579	19.09
529.008	19.24
529.437	19.37
529.866	19.49
530.295	19.61
530.724	19.72
531.152	19.81
531.581	19.93
532.01	20.03
532.438	20.13
532.867	20.22
533.295	20.31
533.723	20.38
534.152	20.45
534.58	20.52
535.008	20.57
535.436	20.64
535.865	20.68
536.293	20.73
536.721	20.78
537.149	20.83
537.576	20.87
538.004	20.91
538.432	20.94
538.86	20.98
539.287	21
539.715	21.05
540.143	21.06
540.57	21.11
540.998	21.13
541.425	21.16
541.852	21.2
542.28	21.24
542.707	21.26
543.134	21.29
543.561	21.32
543.988	21.37
544.415	21.36
544.842	21.37
545.269	21.39
545.696	21.42
546.123	21.44
546.549	21.46
546.976	21.48
547.403	21.5
547.829	21.52
548.256	21.54
548.682	21.55
549.108	21.59
549.535	21.62
549.961	21.63
550.387	21.62
550.813	21.63
551.24	21.62
551.666	21.61
552.092	21.6
552.518	21.59
552.943	21.57
553.369	21.55
553.795	21.52
554.221	21.5
554.646	21.47
555.072	21.45
555.498	21.4
555.923	21.36
556.349	21.32
556.774	21.28
557.199	21.24
557.625	21.2
558.05	21.13
558.475	21.07
558.9	21
559.325	20.96
559.75	20.89
560.175	20.84
560.6	20.76
561.025	20.69
561.449	20.59
561.874	20.5
562.299	20.4
562.723	20.32
563.148	20.22
563.572	20.11
563.997	19.99
564.421	19.86
564.846	19.72
565.27	19.61
565.694	19.5
566.118	19.38
566.542	19.26
566.966	19.13
567.39	19
567.814	18.88
568.238	18.76
568.662	18.64
569.086	18.53
569.509	18.41
569.933	18.3
570.357	18.17
570.78	18.05
571.204	17.93
571.627	17.82
572.05	17.7
572.474	17.6
572.897	17.5
573.32	17.4
573.743	17.29
574.166	17.2
574.589	17.1
575.012	17
575.435	16.92
575.858	16.83
576.281	16.74
576.704	16.65
577.126	16.55
577.549	16.46
577.972	16.38
578.394	16.3
578.817	16.23
579.239	16.15
579.661	16.08
580.084	16.01
580.506	15.95
580.928	15.89
581.35	15.83
581.772	15.77
582.194	15.7
582.616	15.64
583.038	15.57
583.46	15.49
583.882	15.42
584.303	15.35
584.725	15.27
585.147	15.21
585.568	15.15
585.99	15.09
586.411	15.05
586.833	15
587.254	14.95
587.675	14.91
588.096	14.87
588.518	14.82
588.939	14.79
589.36	14.75
589.781	14.71
590.202	14.67
590.623	14.63
591.043	14.59
591.464	14.55
591.885	14.51
592.305	14.48
592.726	14.46
593.147	14.44
593.567	14.4
593.987	14.37
594.408	14.34
594.828	14.29
595.248	14.27
595.669	14.24
596.089	14.21
596.509	14.17
596.929	14.14
597.349	14.1
597.769	14.07
598.189	14.03
598.608	14
599.028	13.98
599.448	13.95
599.867	13.9
600.287	13.87
600.706	13.83
601.126	13.8
601.545	13.77
601.965	13.74
602.384	13.69
602.803	13.64
603.222	13.59
603.641	13.53
604.061	13.49
604.48	13.44
604.898	13.37
605.317	13.32
605.736	13.26
606.155	13.21
606.574	13.13
606.992	13.06
607.411	13
607.829	12.91
608.248	12.85
608.666	12.77
609.085	12.7
609.503	12.64
609.921	12.58
610.339	12.5
610.758	12.43
611.176	12.35
611.594	12.29
612.012	12.24
612.43	12.2
612.847	12.13
613.265	12.06
613.683	12
614.101	11.93
614.518	11.86
614.936	11.79
615.353	11.72
615.771	11.68
616.188	11.62
616.606	11.57
617.023	11.51
617.44	11.47
617.857	11.42
618.274	11.37
618.691	11.33
619.108	11.29
619.525	11.25
619.942	11.22
620.359	11.19
620.776	11.16
621.192	11.12
621.609	11.09
622.026	11.05
622.442	11.03
622.859	11.02
623.275	10.99
623.691	10.97
624.108	10.95
624.524	10.94
624.94	10.93
625.356	10.93
625.772	10.91
626.188	10.9
626.604	10.9
627.02	10.89
627.436	10.88
627.852	10.88
628.268	10.87
628.683	10.87
629.099	10.86
629.514	10.84
629.93	10.82
630.345	10.8
630.761	10.78
631.176	10.75
631.591	10.73
632.007	10.69
632.422	10.66
632.837	10.62
633.252	10.58
633.667	10.53
634.082	10.48
634.497	10.42
634.911	10.37
635.326	10.31
635.741	10.25
636.155	10.17
636.57	10.1
636.984	10.01
637.399	9.93
637.813	9.84
638.228	9.75
638.642	9.65
639.056	9.56
639.47	9.45
639.884	9.36
640.298	9.25
640.712	9.15
641.126	9.05
641.54	8.94
641.954	8.83
642.368	8.72
642.781	8.62
643.195	8.52
643.609	8.42
644.022	8.32
644.436	8.23
644.849	8.14
645.262	8.04
645.676	7.95
646.089	7.88
646.502	7.81
646.915	7.75
647.328	7.69
647.741	7.62
648.154	7.57
648.567	7.52
648.98	7.47
649.393	7.43
649.805	7.4
650.218	7.37
650.631	7.34
651.043	7.3
651.456	7.26
651.868	7.21
652.28	7.17
652.693	7.14
653.105	7.11
653.517	7.06
653.929	7.02
654.341	6.95
654.753	6.88
655.165	6.82
655.577	6.76
655.989	6.7
656.401	6.65
656.813	6.59
657.224	6.51
657.636	6.42
658.047	6.35
658.459	6.28
658.87	6.21
659.282	6.13
659.693	6.06
660.104	5.97
660.515	5.89
660.926	5.81
661.338	5.73
661.749	5.66
662.159	5.59
662.57	5.52
662.981	5.46
663.392	5.39
663.803	5.33
664.213	5.28
664.624	5.22
665.035	5.18
665.445	5.14
665.855	5.08
666.266	5.04
666.676	5.01
667.086	4.97
667.497	4.94
667.907	4.91
668.317	4.89
668.727	4.86
669.137	4.84
669.547	4.82
669.956	4.81
670.366	4.81
670.776	4.8
671.186	4.79
671.595	4.79
672.005	4.79
672.414	4.79
672.824	4.79
673.233	4.8
673.642	4.81
674.052	4.81
674.461	4.82
674.87	4.83
675.279	4.85
675.688	4.87
676.097	4.89
676.506	4.91
676.915	4.93
677.323	4.96
677.732	5
678.141	5.03
678.549	5.07
678.958	5.11
679.366	5.17
679.775	5.2
680.183	5.25
680.592	5.32
681	5.4
681.408	5.48
681.816	5.58
682.224	5.67
682.632	5.79
683.04	5.9
683.448	6.04
683.856	6.17
684.264	6.34
684.671	6.52
685.079	6.7
685.487	6.9
685.894	7.14
686.302	7.39
686.709	7.66
687.116	7.94
687.524	8.26
687.931	8.6
688.338	8.96
688.745	9.33
689.152	9.72
689.559	10.14
689.966	10.57
690.373	11
690.78	11.45
691.187	11.91
691.593	12.38
692	12.84
692.407	13.3
692.813	13.8
693.22	14.28
693.626	14.75
694.032	15.23
694.439	15.72
694.845	16.19
695.251	16.68
695.657	17.15
696.063	17.61
696.469	18.09
696.875	18.56
697.281	19.01
697.687	19.47
698.093	19.92
698.498	20.37
698.904	20.8
699.31	21.2
699.715	21.63
700.12	22.04
700.526	22.45
700.931	22.84
701.337	23.24
701.742	23.62
702.147	23.99
702.552	24.35
702.957	24.67
703.362	25.02
703.767	25.36
704.172	25.67
704.577	26
704.981	26.32
705.386	26.62
705.791	26.92
706.195	27.23
706.6	27.55
707.004	27.83
707.408	28.13
707.813	28.41
708.217	28.71
708.621	28.98
709.025	29.24
709.43	29.5
709.834	29.78
710.237	30.02
710.641	30.26
711.045	30.47
711.449	30.74
711.853	30.99
712.256	31.21
712.66	31.43
713.064	31.65
713.467	31.86
713.87	32.07
714.274	32.26
714.677	32.47
715.08	32.66
715.484	32.86
715.887	33.06
716.29	33.23
716.693	33.42
717.096	33.62
717.499	33.8
717.901	33.97
718.304	34.14
718.707	34.32
719.109	34.5
719.512	34.64
719.915	34.8
720.317	34.94
720.719	35.07
721.122	35.22
721.524	35.34
721.926	35.48
722.328	35.62
722.731	35.74
723.133	35.88
723.535	35.99
723.937	36.11
724.338	36.22
724.74	36.34
725.142	36.53
725.544	36.62
725.945	36.75
726.347	36.82
726.748	36.92
727.15	37.01
727.551	37.1
727.952	37.17
728.354	37.25
728.755	37.33
729.156	37.39
729.557	37.37
729.958	37.44
730.359	37.49
730.76	37.59
731.161	37.63
731.562	37.71
731.962	37.73
732.363	37.79
732.763	37.83
733.164	37.86
733.564	37.92
733.965	37.97
734.365	38.02
734.766	38.06
735.166	38.09
735.566	38.14
735.966	38.18
736.366	38.24
736.766	38.25
737.166	38.29
737.566	38.33
737.966	38.35
738.365	38.37
738.765	38.41
739.165	38.46
739.564	38.49
739.964	38.5
740.363	38.49
740.763	38.51
741.162	38.55
741.561	38.59
741.96	38.61
742.36	38.66
742.759	38.69
743.158	38.69
743.557	38.66
743.955	38.67
744.354	38.71
744.753	38.76
745.152	38.8
745.55	38.82
745.949	38.82
746.348	38.84
746.746	38.84
747.144	38.85
747.543	38.86
747.941	38.91
748.339	38.89
748.737	38.89
749.136	38.88
749.534	38.85
749.932	38.87
750.33	38.86
750.727	38.87
751.125	38.88
751.523	38.87
751.921	38.87
752.318	38.87
752.716	38.91
753.113	38.89
753.511	38.9
753.908	38.92
754.305	38.91
754.703	38.9
755.1	38.89
755.497	38.88
755.894	38.88
756.291	38.89
756.688	38.87
757.085	38.86
757.482	38.87
757.878	38.84
758.275	38.82
758.672	38.83
759.068	38.85
759.465	38.84
759.861	38.85
760.258	38.84
760.654	38.86
761.05	38.9
761.447	38.9
761.843	38.92
762.239	38.94
762.635	38.94
763.031	38.93
763.427	38.93
763.822	38.95
764.218	38.96
764.614	38.97
765.01	38.96
765.405	38.96
765.801	38.95
766.196	38.94
766.592	38.94
766.987	38.95
767.382	38.95
767.778	38.95
768.173	38.95
768.568	38.95
768.963	38.94
769.358	38.95
769.753	38.94
770.148	38.97
770.542	38.98
770.937	38.98
771.332	38.98
771.726	38.98
772.121	39
772.515	39
772.91	38.98
773.304	38.99
773.699	38.98
774.093	38.94
774.487	38.93
774.881	38.94
775.275	38.93
775.669	38.94
776.063	38.93
776.457	38.93
776.851	38.93
777.245	38.91
777.638	38.91
778.032	38.91
778.425	38.95
778.819	38.94
779.212	38.94
779.606	38.97
779.999	38.94
780.392	38.98
780.786	38.94
781.179	38.94
781.572	38.99
781.965	38.97
782.358	39
782.751	38.99
783.143	38.99
783.536	38.99
783.929	38.96
784.322	38.99
784.714	38.99
785.107	39.02
785.499	39.02
785.891	39
786.284	39.01
786.676	38.99
787.068	38.98
787.46	38.98
787.852	38.97
788.245	38.98
788.636	38.95
789.028	38.91
789.42	38.89
789.812	38.89
790.204	38.87
790.595	38.89
790.987	38.89
791.378	38.92
791.77	38.91
792.161	38.92
792.553	38.9
792.944	38.91
793.335	38.95
793.726	38.98
794.117	38.96
794.508	38.98
794.899	38.97
795.29	38.97
795.681	38.94
796.072	38.96
796.463	38.99
796.853	39.01
797.244	39
797.634	38.97
798.025	38.99
798.415	39.01
798.806	38.99
799.196	38.98
799.586	39.01
799.976	39.04
800.366	39.03
800.756	38.98
801.146	38.97
801.536	39
801.926	39
802.316	38.95
802.706	38.96
803.095	38.98
803.485	38.96
803.874	38.93
804.264	38.91
804.653	38.91
805.043	38.93
805.432	38.93
805.821	38.93
806.21	38.95
806.599	38.98
806.988	38.96
807.377	38.96
807.766	38.99
808.155	38.98
808.544	38.98
808.933	38.97
809.321	38.97
809.71	38.97
810.098	38.97
810.487	38.95
810.875	38.95
811.264	38.96
811.652	38.97
812.04	38.95
812.428	38.97
812.816	38.96
813.204	38.96
813.592	38.94
813.98	38.94
814.368	38.92
814.756	38.91
815.144	38.9
815.531	38.89
815.919	38.84
816.306	38.84
816.694	38.82
817.081	38.83
817.469	38.82
817.856	38.81
818.243	38.78
818.63	38.77
819.017	38.73
819.404	38.72
819.791	38.7
820.178	38.71
820.565	38.68
820.952	38.67
821.339	38.66
821.725	38.65
822.112	38.67
822.498	38.68
822.885	38.68
823.271	38.69
823.657	38.66
824.044	38.67
824.43	38.67
824.816	38.69
825.202	38.67
825.588	38.67
825.974	38.66
826.36	38.64
826.746	38.62
827.132	38.63
827.517	38.62
827.903	38.66
828.289	38.65
828.674	38.63
829.06	38.61
829.445	38.6
829.83	38.6
830.216	38.59
830.601	38.6
830.986	38.6
831.371	38.59
831.756	38.61
832.141	38.6
832.526	38.6
832.911	38.6
833.295	38.58
833.68	38.6
834.065	38.6
834.449	38.59
834.834	38.55
835.218	38.54
835.603	38.52
835.987	38.49
836.371	38.47
836.755	38.45
837.139	38.44
837.524	38.45
837.908	38.43
838.291	38.44
838.675	38.45
839.059	38.46
839.443	38.43
839.827	38.44
840.21	38.42
840.594	38.44
840.977	38.42
841.361	38.43
841.744	38.41
842.127	38.39
842.511	38.36
842.894	38.37
843.277	38.35
843.66	38.35
844.043	38.36
844.426	38.36
844.809	38.35
845.191	38.36
845.574	38.35
845.957	38.36
846.339	38.37
846.722	38.36
847.104	38.35
847.487	38.35
847.869	38.35
848.252	38.34
848.634	38.32
849.016	38.32
849.398	38.33
849.78	38.33
850.162	38.32
850.544	38.3
850.926	38.31
851.307	38.3
851.689	38.29
852.071	38.3
852.452	38.3
852.834	38.31
853.215	38.31
853.597	38.3
853.978	38.29
854.359	38.28
854.741	38.29
855.122	38.28
855.503	38.27
855.884	38.26
856.265	38.27
856.646	38.25
857.026	38.25
857.407	38.24
857.788	38.2
858.169	38.21
858.549	38.22
858.93	38.22
859.31	38.24
859.69	38.25
860.071	38.27
860.451	38.26
860.831	38.27
861.211	38.27
861.591	38.26
861.971	38.29
862.351	38.29
862.731	38.27
863.111	38.25
863.491	38.25
863.87	38.26
864.25	38.25
864.629	38.26
865.009	38.25
865.388	38.23
865.768	38.25
866.147	38.22
866.526	38.21
866.905	38.22
867.284	38.24
867.663	38.23
868.042	38.22
868.421	38.24
868.8	38.23
869.179	38.21
869.558	38.23
869.936	38.24
870.315	38.24
870.693	38.25
871.072	38.26
871.45	38.27
871.828	38.28
872.207	38.28
872.585	38.26
872.963	38.27
873.341	38.27
873.719	38.26
874.097	38.24
874.475	38.27
874.853	38.27
875.23	38.29
875.608	38.28
875.986	38.29
876.363	38.28
876.741	38.3
877.118	38.28
877.495	38.31
877.873	38.31
878.25	38.34
878.627	38.33
879.004	38.33
879.381	38.31
879.758	38.3
880.135	38.28
880.512	38.27
880.889	38.25
881.265	38.26
881.642	38.25
882.019	38.25
882.395	38.22
882.772	38.19
883.148	38.19
883.524	38.16
883.901	38.16
884.277	38.14
884.653	38.11
885.029	38.11
885.405	38.1
885.781	38.09
886.157	38.08
886.532	38.1
886.908	38.09
887.284	38.06
887.659	38.06
888.035	38.05
888.411	38.04
888.786	38.05
889.161	38.04
889.537	38.03
889.912	38.02
890.287	37.99
890.662	37.98
891.037	38
891.412	37.99
891.787	37.98
892.162	37.97
892.536	37.98
892.911	37.96
893.286	37.96
893.66	37.95
894.035	37.95
894.409	37.95
894.784	37.95
895.158	37.93
895.532	37.94
895.906	37.93
896.281	37.93
896.655	37.92
897.029	37.95
897.402	37.94
897.776	37.95
898.15	37.96
898.524	37.97
898.898	37.96
899.271	37.96
899.645	37.99
900.018	38.02
900.392	38.04
900.765	38.06
901.138	38.07
901.511	38.09
901.884	38.12
902.258	38.13
902.631	38.13
903.003	38.19
903.376	38.21
903.749	38.21
904.122	38.22
904.495	38.21
904.867	38.22
905.24	38.23
905.612	38.24
905.985	38.22
906.357	38.22
906.729	38.25
907.102	38.22
907.474	38.22
907.846	38.21
908.218	38.21
908.59	38.23
908.962	38.25
909.334	38.25
909.705	38.23
910.077	38.24
910.449	38.24
910.82	38.22
911.192	38.24
911.563	38.23
911.935	38.22
912.306	38.22
912.677	38.23
913.048	38.25
913.419	38.23
913.79	38.25
914.161	38.27
914.532	38.27
914.903	38.27
915.274	38.27
915.645	38.29
916.015	38.32
916.386	38.33
916.756	38.32
917.127	38.3
917.497	38.35
917.868	38.36
918.238	38.33
918.608	38.36
918.978	38.38
919.348	38.4
919.718	38.4
920.088	38.42
920.458	38.43
920.828	38.44
921.198	38.45
921.567	38.44
921.937	38.43
922.306	38.46
922.676	38.44
923.045	38.43
923.415	38.41
923.784	38.41
924.153	38.41
924.522	38.42
924.891	38.4
925.26	38.39
925.629	38.41
925.998	38.42
926.367	38.43
926.736	38.48
927.104	38.51
927.473	38.52
927.842	38.51
928.21	38.5
928.578	38.49
928.947	38.51
929.315	38.52
929.683	38.52
930.051	38.52
930.42	38.54
930.788	38.51
931.156	38.52
931.523	38.55
931.891	38.63
932.259	38.66
932.627	38.69
932.994	38.72
933.362	38.73
933.729	38.75
934.097	38.79
934.464	38.82
934.831	38.85
935.199	38.91
935.566	38.92
935.933	38.87
936.3	38.86
936.667	38.9
937.034	38.99
937.401	39.06
937.767	39.13
938.134	39.17
938.501	39.21
938.867	39.3
939.234	39.31
939.6	39.37
939.967	39.45
940.333	39.5
940.699	39.49
941.065	39.42
941.431	39.39
941.798	39.35
942.163	39.35
942.529	39.36
942.895	39.29
943.261	39.28
943.627	39.26
943.992	39.26
944.358	39.27
944.723	39.27
945.089	39.27
945.454	39.31
945.82	39.28
946.185	39.26
946.55	39.18
946.915	39.16
947.28	39.1
947.645	39.09
948.01	39.06
948.375	39.04
948.74	38.99
949.104	38.97
949.469	38.87
949.834	38.86
950.198	38.83
950.562	38.81
950.927	38.77
951.291	38.71
951.655	38.63
952.02	38.61
952.384	38.55
952.748	38.56
953.112	38.54
953.476	38.52
953.839	38.46
954.203	38.43
954.567	38.4
954.931	38.34
955.294	38.31
955.658	38.42
956.021	38.35
956.385	38.35
956.748	38.31
957.111	38.28
957.474	38.3
957.837	38.3
958.2	38.29
958.563	38.28
958.926	38.29
959.289	38.33
959.652	38.26
960.015	38.28
960.377	38.28
960.74	38.35
961.102	38.37
961.465	38.41
961.827	38.48
962.189	38.51
962.552	38.49
962.914	38.54
963.276	38.54
963.638	38.55
964	38.56
964.362	38.54
964.724	38.48
965.085	38.42
965.447	38.36
965.809	38.33
966.17	38.27
966.532	38.32
966.893	38.35
967.255	38.34
967.616	38.35
967.977	38.35
968.338	38.37
968.699	38.39
969.061	38.45
969.421	38.47
969.782	38.5
970.143	38.52
970.504	38.5
970.865	38.52
971.225	38.5
971.586	38.53
971.946	38.57
972.307	38.59
972.667	38.63
973.027	38.66
973.388	38.69
973.748	38.76
974.108	38.83
974.468	38.89
974.828	38.93
975.188	38.97
975.548	38.94
975.907	38.96
976.267	38.92
976.627	38.93
976.986	38.91
977.346	38.9
977.705	38.83
978.064	38.82
978.424	38.82
978.783	38.75
979.142	38.81
979.501	38.86
979.86	38.85
980.219	38.97
980.578	39.03
980.937	39.08
981.296	39.16
981.654	39.19
982.013	39.2
982.371	39.22
982.73	39.24
983.088	39.22
983.447	39.22
983.805	39.32
984.163	39.26
984.521	39.28
984.879	39.23
985.237	39.2
985.595	39.25
985.953	39.32
986.311	39.31
986.669	39.36
987.026	39.37
987.384	39.5
987.741	39.49
988.099	39.58
988.456	39.5
988.814	39.54
989.171	39.6
989.528	39.65
989.885	39.7
990.242	39.76
990.599	39.76
990.956	39.84
991.313	39.81
991.67	39.8
992.027	39.97
992.383	40.16
992.74	40.37
993.096	40.41
993.453	40.43
993.809	40.44
994.165	40.48
994.522	40.63
994.878	40.69
995.234	40.72
995.59	40.73
995.946	40.58
996.302	40.55
996.658	40.51
997.013	40.51
997.369	40.55
997.725	40.64
998.08	40.78
998.436	40.83
998.791	40.89
999.147	40.96
999.502	41.1
999.857	41.19
1000.212	41.23
1000.567	41.27
1000.922	41.29
1001.277	41.38
1001.632	41.33
1001.987	41.37
1002.342	41.38
1002.696	41.43
1003.051	41.55
1003.406	41.74
1003.76	41.8
1004.114	41.84
1004.469	41.95
1004.823	42.35
1005.177	42.28
1005.531	42.3
1005.885	42.35
1006.239	42.45
1006.593	42.6
1006.947	42.66
1007.301	42.54
1007.655	42.59
1008.008	42.74
1008.362	42.85
1008.715	42.73
1009.069	42.95
1009.422	43.09
1009.776	43.17
1010.129	43.2
1010.482	43.19
1010.835	43.23
1011.188	43.39
1011.541	43.6
1011.894	43.64
1012.247	43.76
1012.6	43.81
1012.952	43.85
1013.305	44.03
1013.657	44.05
1014.01	44.1
1014.362	44.12
1014.715	44.29
1015.067	44.62
1015.419	44.83
1015.771	44.98
1016.123	45.03
1016.475	45.11
1016.827	45.34
1017.179	45.55
1017.531	45.79
1017.883	46.06
1018.234	46.49
1018.586	46.7
1018.938	46.76
1019.289	46.61
1019.64	46.62
1019.992	46.73
1020.343	46.85
1020.694	47.08
1021.045	47.11
1021.396	47.26
1021.747	47.52
1022.098	47.45
1022.449	47.41
1022.8	47.46
1023.151	47.63
1023.501	48.1
1023.852	48.53
1024.202	48.79
1024.553	48.94
1024.903	49.23
1025.253	49.61
1025.604	49.77
1025.954	49.67
1026.304	49.93
1026.654	50.23
1027.004	50.4
1027.354	50.33
1027.703	50.14
1028.053	50.17
1028.403	50.19
1028.753	49.97
1029.102	50.1
1029.452	50.15
1029.801	50.77
1030.15	50.77
1030.499	50.54
897.758	1500.18
901.051	1503.54
904.343	1498.31
907.636	1524.19
910.928	1484.92
914.22	1486.3
917.511	1468.59
920.803	1404.55
924.094	1399.74
927.384	1367.28
930.675	1309.53
933.965	1301.15
937.255	1228.14
940.544	1179.54
943.834	1124.66
947.123	1114.97
950.411	1046.5
953.7	1024.17
956.988	969.04
960.276	928.88
963.563	915.1
966.851	883.16
970.138	874.59
973.424	846.46
976.711	851.79
979.997	807.52
983.283	802.35
986.568	786.78
989.853	762.93
993.138	749.56
996.423	720.01
999.708	699.89
1002.992	691.08
1006.275	659.88
1009.559	654.69
1012.842	629.79
1016.125	612.24
1019.408	602.04
1022.69	592.17
1025.972	579.99
1029.254	566.1
1032.536	557.13
1035.817	545.25
1039.098	537.1
1042.379	525.77
1045.659	518.91
1048.939	506.21
1052.219	496.67
1055.498	487.69
1058.778	477.93
1062.057	465.46
1065.335	460.2
1068.614	455.4
1071.892	449.55
1075.17	435.7
1078.447	428.12
1081.724	424.65
1085.001	420.98
1088.278	412.74
1091.554	404.23
1094.83	403.97
1098.106	401.86
1101.382	397.57
1104.657	394.46
1107.932	387.41
1111.206	390.02
1114.481	379.03
1117.755	375.49
1121.029	372.43
1124.302	372
1127.575	364.75
1130.848	360.24
1134.121	356.68
1137.393	355.43
1140.665	346.94
1143.937	346.21
1147.208	342.25
1150.48	342.77
1153.75	337.89
1157.021	332.69
1160.291	332.4
1163.561	329.55
1166.831	328.93
1170.101	326.44
1173.37	325.18
1176.639	326.08
1179.907	322.74
1183.176	319.74
1186.444	318.86
1189.711	318.58
1192.979	317.88
1196.246	315.29
1199.513	317.03
1202.78	314.97
1206.046	314.95
1209.312	312.02
1212.578	312.54
1215.843	314.53
1219.108	313.27
1222.373	320.31
1225.638	322.18
1228.902	327.44
1232.166	327.78
1235.43	330.18
1238.693	334.75
1241.956	335.93
1245.219	341.96
1248.482	341.18
1251.744	341.18
1255.006	342.35
1258.268	333.73
1261.529	330.94
1264.79	327.87
1268.051	326.03
1271.312	322.26
1274.572	317.83
1277.832	314.71
1281.092	309.46
1284.351	307.04
1287.61	307.01
1290.869	302.35
1294.128	300.12
1297.386	300.02
1300.644	297.29
1303.902	298.37
1307.159	296.58
1310.416	297.33
1313.673	297.48
1316.93	299.97
1320.186	300.81
1323.442	301.34
1326.697	306.92
1329.953	308.16
1333.208	309.63
1336.463	313.01
1339.717	313.54
1342.972	317.68
1346.226	319.7
1349.479	319.96
1352.733	321.71
1355.986	323.18
1359.238	323.22
1362.491	324.9
1365.743	327.64
1368.995	327.89
1372.247	327.52
1375.498	327.98
1378.749	330.82
1382	326.97
1385.251	328.95
1388.501	327.29
1391.751	329.33
1395	327.79
1398.25	325.22
1401.499	323.84
1404.748	323.94
1407.996	320.87
1411.244	319.26
1414.492	317.39
1417.74	315.66
1420.987	310.65
1424.234	311.03
1427.481	306.46
1430.728	306.94
1433.974	303.21
1437.22	301.01
1440.465	299.91
1443.711	298.25
1446.956	296.84
1450.201	292.46
1453.445	290.25
1456.689	289.23
1459.933	283.21
1463.177	281.63
1466.42	276.92
1469.663	273.88
1472.906	272.27
1476.148	265.5
1479.391	261.52
1482.633	258.74
1485.874	255.04
1489.115	253.36
1492.356	249.87
1495.597	250.22
1498.838	245.58
1502.078	244.07
1505.318	242.99
1508.557	242.67
1511.797	241.8
1515.036	240.92
1518.274	239.69
1521.513	237.06
1524.751	236.53
1527.989	236.14
1531.227	234.49
1534.464	235.46
1537.701	233.33
1540.938	232.71
1544.174	230.24
1547.41	230.05
1550.646	228.54
1553.882	228.72
1557.117	226.18
1560.352	224.37
1563.587	223.4
1566.821	221.84
1570.055	219.3
1573.289	217.92
1576.523	217.73
1579.756	215.15
1582.989	213.69
1586.222	214.04
1589.454	212.08
1592.686	213.81
1595.918	212.97
1599.15	212.19
1602.381	212.36
1605.612	212.12
1608.843	213.18
1612.073	212.74
1615.303	214.23
1618.533	214.73
1621.762	214
1624.992	214.58
1628.221	214.1
1631.449	214.48
1634.678	213.66
1637.906	214.65
1641.134	214.28
1644.361	213.77
1647.588	214.65
1650.815	213.65
1654.042	212.4
1657.269	213.57
1660.495	213.48
1663.72	212.16
1666.946	212.86
1670.171	213.77
1673.396	213.57
1676.621	214.21
1679.845	214.24
1683.069	213.69
1686.293	215.7
1689.517	216.64
1692.74	216.16
1695.963	217.14
1699.185	220.03
1702.408	219.77
1705.63	220.7
1708.852	221.42
1712.073	221.73
1715.294	222.3
1718.515	224.52
1721.736	223.62
1724.956	224.91
1728.176	224.72
1731.396	227.12
1734.616	225.72
1737.835	226.85
1741.054	225.42
1744.272	225.88
1747.491	228.25
1750.709	228.77
1753.927	227.99
1757.144	227.25
1760.361	228.18
1763.578	228.78
1766.795	227.72
1770.011	229.76
1773.227	229.85
1776.443	232.88
1779.658	233.78
1782.874	233.54
1786.089	234.51
1789.303	235.17
1792.518	238.25
1795.732	238.1
1798.945	240.96
1802.159	240.89
1805.372	241.75
1808.585	246.14
1811.797	246.61
1815.01	247.4
1818.222	248.71
1821.434	250.59
1824.645	252.01
1827.856	255.86
1831.067	258.07
1834.278	257.33
1837.488	259.38
1840.698	261.13
1843.908	258.26
1847.117	260.11
1850.326	261.47
1853.535	260.88
1856.744	265.25
1859.952	265.07
1863.16	263.78
1866.368	262.12
1869.575	265.24
1872.782	262.29
1875.989	261.49
1879.196	261.02
1882.402	258.92
1885.608	260.01
1888.814	261.35
1892.019	259.81
1895.224	259.12
1898.429	257.79
1901.634	259.84
1904.838	260.14
1908.042	262.91
1911.246	264.57
1914.449	266.09
1917.652	265.96
1920.855	265.97
1924.058	264.84
1927.26	264.06
1930.462	264.86
1933.664	269.06
1936.865	266.25
1940.066	265.67
1943.267	263.57
1946.467	262.79
1949.668	264.52
1952.868	268.85
1956.067	268.35
1959.267	269.34
1962.466	270.28
1965.665	268.73
1968.863	268.87
1972.061	272.2
1975.259	275.23
1978.457	277.83
1981.654	280.33
1984.852	280.93
1988.048	279.51
1991.245	282.35
1994.441	286.08
1997.637	287.39
2000.833	293.36
2004.028	296.63
2007.223	298.94
2010.418	300.87
2013.613	306.54
2016.807	309.49
2020.001	312.13
2023.194	316.17
2026.388	323.48
2029.581	330.27
2032.774	333.61
2035.966	339.39
2039.158	339.98
2042.35	346.83
2045.542	349.3
2048.733	354.63
2051.924	358.77
2055.115	364.95
2058.306	366.2
2061.496	369.56
2064.686	369.53
2067.875	376.41
2071.065	378.31
2074.254	376.83
2077.442	381.33
2080.631	382.81
2083.819	385.67
2087.007	387.91
2090.195	391.56
2093.382	395.4
2096.569	392.15
2099.756	397.81
2102.942	398.74
2106.128	403.79
2109.314	412.16
2112.5	410.32
2115.685	419.3
2118.87	420.47
2122.055	427.48
2125.239	431.23
2128.424	436.15
2131.608	440.39
2134.791	446.44
2137.974	447.67
2141.157	447.73
2144.34	449.06
2147.523	456.56
2150.705	453.35
2153.887	457.64
2157.068	458.48
2160.25	454.01
2163.431	456.73
2166.611	461.05
2169.792	470.66
2172.972	475.43
2176.152	479.53
2179.331	485.07
2182.511	492.82
2185.69	500.3
2188.868	510.25
2192.047	510.01
2195.225	524.99
2198.403	538.96
2201.58	548.83
2204.758	558.53
2207.935	570.92
2211.111	580.52
2214.288	588.54
2217.464	589.88
2220.64	595.98
2223.815	603.92
2226.991	630.76
2230.166	632.29
2233.34	641.65
2236.515	653.41
2239.689	652.98
2242.863	657.03
2246.036	677.37
2249.209	672.25
2252.382	682.87
2255.555	704.22
2258.727	706.57
2261.9	710.32
2265.071	717.52
2268.243	729.01
2271.414	736.96
2274.585	754
2277.756	761.73
2280.926	767.01
2284.096	785.25
2287.266	804.08
2290.436	811.18
2293.605	830.07
2296.774	856.86
2299.942	883.33
2303.111	888.28
2306.279	909.14
2309.447	921.83
2312.614	946.14
2315.781	969.21
2318.948	1013.21
2322.115	998.43
2325.281	1053.13
2328.447	1030
2331.613	1070.43
2334.779	1058.31
2337.944	1106.11
2341.109	1115.02
2344.274	1145.19
2347.438	1186.59
2350.602	1186.49
2353.766	1223.48
2356.929	1241.24
2360.092	1229.46
2363.255	1321.17
2366.418	1316.52
2369.58	1343.92
2372.742	1423.68
2375.904	1462.77
2379.066	1451.33
2382.227	1420.14
2385.388	1537.68
2388.548	1542.73
2391.709	1562.96
2394.869	1740.78
2398.029	1663.87
2401.188	1711.46
2404.347	1703.56
2407.506	1674.57
2410.665	1723.18
2413.823	1827.28
2416.981	1935.4
2420.139	1875.85
2423.296	1851.6
2426.453	1929.85
2429.61	1860.12
2432.767	1948.85
2435.923	1928.97
2439.079	2107.6
2442.235	2133.18
2445.391	2110.52
2448.546	2099.96
2451.701	2035.21
2454.855	2037.9
2458.009	2161.52
2461.163	2249.69
2464.317	2326.57
2467.471	2388.42
2470.624	2393.17
2473.777	2323.16
2476.929	2269.87
2480.082	2202.05
2483.234	2173.57
2486.385	2300.38
2489.537	2304.72
2492.688	2393.25
2495.839	2326.03
2498.989	2279.29
2502.14	2289.31
2505.29	2312.29
2508.439	2352.24
2511.589	2345.07
2514.738	2560.52
2517.887	2507.75
2521.035	2639.16
2524.183	2659.96
2527.331	2678.53
2530.479	2671.94
2533.627	2691.32
