Data from N_2_HIR_WI_4N_Splice17_13-33-37-495.txt Node
Date: Sat Mar 07 13:33:37 EST 2020
User: sa697716
Spectrometer: NQ5500242
Trigger mode: 0
Integration Time (sec): 1.450000E-1
Scans to average: 20
Nonlinearity correction enabled: false
Boxcar width: 5
Storing dark spectrum: false
XAxis mode: Wavelengths
Number of Pixels in Spectrum: 512
>>>>>Begin Spectral Data<<<<<
187.83	206.31
188.298	226.03
188.766	210.1
189.233	173.96
189.701	167.3
190.169	183.81
190.636	185.21
191.104	251.61
191.571	101.9
192.039	330.59
192.506	473.32
192.974	7.34
193.441	111.35
193.908	19.89
194.375	65.76
194.842	23.58
195.31	26.72
195.777	20.76
196.244	85.31
196.711	85.88
197.177	88.16
197.644	87.79
198.111	87.23
198.578	87.57
199.045	88.28
199.511	87.3
199.978	86.91
200.445	87.32
200.911	87.31
201.378	87.47
201.844	87.27
202.31	86.83
202.777	86.5
203.243	86.13
203.709	85.26
204.176	84.49
204.642	83.84
205.108	83.52
205.574	82.5
206.04	81.43
206.506	80.43
206.972	79.95
207.438	79.43
207.903	78.28
208.369	77.05
208.835	75.63
209.301	73.97
209.766	72.16
210.232	70.14
210.697	68.2
211.163	66.45
211.628	64.51
212.094	62.62
212.559	60.99
213.024	59.61
213.49	58.07
213.955	56.6
214.42	55.09
214.885	53.46
215.35	51.11
215.815	48.22
216.28	44.84
216.745	41.18
217.21	37.36
217.675	33.78
218.14	30.67
218.604	27.93
219.069	25.66
219.534	23.83
219.998	22.29
220.463	21.04
220.927	19.98
221.392	19.07
221.856	18.34
222.32	17.7
222.785	17.13
223.249	16.62
223.713	16.17
224.177	15.8
224.642	15.41
225.106	15.01
225.57	14.67
226.034	14.33
226.497	14.04
226.961	13.76
227.425	13.5
227.889	13.22
228.353	12.97
228.816	12.71
229.28	12.47
229.744	12.24
230.207	12.04
230.671	11.82
231.134	11.62
231.597	11.45
232.061	11.27
232.524	11.1
232.987	10.94
233.45	10.81
233.914	10.68
234.377	10.53
234.84	10.39
235.303	10.27
235.766	10.17
236.229	10.06
236.691	9.94
237.154	9.82
237.617	9.73
238.08	9.63
238.542	9.51
239.005	9.41
239.468	9.32
239.93	9.23
240.393	9.14
240.855	9.02
241.317	8.92
241.78	8.83
242.242	8.75
242.704	8.67
243.166	8.58
243.629	8.5
244.091	8.42
244.553	8.34
245.015	8.25
245.477	8.17
245.939	8.09
246.4	8.03
246.862	7.94
247.324	7.87
247.786	7.78
248.247	7.71
248.709	7.63
249.17	7.55
249.632	7.5
250.093	7.43
250.555	7.37
251.016	7.32
251.477	7.25
251.939	7.21
252.4	7.16
252.861	7.11
253.322	7.05
253.783	7.01
254.244	6.97
254.705	6.91
255.166	6.87
255.627	6.81
256.088	6.77
256.549	6.73
257.009	6.67
257.47	6.61
257.931	6.55
258.391	6.49
258.852	6.43
259.312	6.37
259.773	6.33
260.233	6.27
260.694	6.23
261.154	6.18
261.614	6.13
262.074	6.08
262.534	6.04
262.994	6
263.455	5.96
263.915	5.93
264.374	5.9
264.834	5.87
265.294	5.83
265.754	5.8
266.214	5.77
266.673	5.75
267.133	5.74
267.593	5.72
268.052	5.7
268.512	5.68
268.971	5.66
269.431	5.64
269.89	5.61
270.349	5.6
270.809	5.58
271.268	5.57
271.727	5.55
272.186	5.53
272.645	5.51
273.104	5.49
273.563	5.48
274.022	5.46
274.481	5.45
274.94	5.43
275.399	5.41
275.857	5.4
276.316	5.38
276.775	5.35
277.233	5.34
277.692	5.32
278.15	5.31
278.609	5.3
279.067	5.29
279.525	5.27
279.984	5.26
280.442	5.25
280.9	5.24
281.358	5.23
281.816	5.23
282.274	5.22
282.732	5.21
283.19	5.19
283.648	5.17
284.106	5.16
284.564	5.15
285.021	5.14
285.479	5.13
285.937	5.11
286.394	5.1
286.852	5.08
287.309	5.06
287.767	5.04
288.224	5.03
288.682	5
289.139	4.98
289.596	4.96
290.053	4.92
290.511	4.9
290.968	4.87
291.425	4.84
291.882	4.82
292.339	4.8
292.796	4.78
293.252	4.76
293.709	4.75
294.166	4.74
294.623	4.72
295.079	4.71
295.536	4.7
295.992	4.69
296.449	4.67
296.905	4.66
297.362	4.65
297.818	4.63
298.274	4.63
298.731	4.6
299.187	4.58
299.643	4.57
300.099	4.56
300.555	4.55
301.011	4.53
301.467	4.53
301.923	4.51
302.379	4.51
302.835	4.5
303.291	4.49
303.746	4.49
304.202	4.49
304.658	4.49
305.113	4.49
305.569	4.48
306.024	4.48
306.479	4.48
306.935	4.48
307.39	4.48
307.845	4.47
308.301	4.47
308.756	4.47
309.211	4.46
309.666	4.47
310.121	4.46
310.576	4.46
311.031	4.45
311.486	4.45
311.94	4.44
312.395	4.44
312.85	4.44
313.305	4.44
313.759	4.44
314.214	4.44
314.668	4.42
315.123	4.42
315.577	4.41
316.032	4.4
316.486	4.38
316.94	4.37
317.394	4.35
317.849	4.33
318.303	4.31
318.757	4.29
319.211	4.27
319.665	4.26
320.119	4.24
320.572	4.22
321.026	4.2
321.48	4.19
321.934	4.17
322.387	4.17
322.841	4.16
323.295	4.16
323.748	4.15
324.202	4.14
324.655	4.14
325.108	4.13
325.562	4.13
326.015	4.13
326.468	4.13
326.921	4.13
327.374	4.12
327.827	4.12
328.28	4.11
328.733	4.11
329.186	4.11
329.639	4.1
330.092	4.11
330.545	4.11
330.997	4.11
331.45	4.11
331.903	4.11
332.355	4.12
332.808	4.12
333.26	4.12
333.713	4.11
334.165	4.11
334.617	4.12
335.069	4.11
335.522	4.12
335.974	4.13
336.426	4.12
336.878	4.11
337.33	4.11
337.782	4.11
338.234	4.11
338.686	4.11
339.137	4.12
339.589	4.1
340.041	4.08
340.493	4.07
340.944	4.04
341.396	4.03
341.847	4.02
342.299	4
342.75	3.98
343.201	3.96
343.653	3.93
344.104	3.9
344.555	3.89
345.006	3.88
345.457	3.86
345.908	3.85
346.359	3.84
346.81	3.83
347.261	3.82
347.712	3.81
348.163	3.79
348.613	3.8
349.064	3.8
349.515	3.8
349.965	3.81
350.416	3.81
350.866	3.81
351.317	3.79
351.767	3.8
352.217	3.79
352.668	3.8
353.118	3.8
353.568	3.78
354.018	3.79
354.468	3.79
354.918	3.78
355.368	3.77
355.818	3.77
356.268	3.77
356.718	3.78
357.168	3.76
357.617	3.76
358.067	3.76
358.517	3.77
358.966	3.76
359.416	3.76
359.865	3.76
360.315	3.76
360.764	3.76
361.213	3.76
361.663	3.75
362.112	3.76
362.561	3.76
363.01	3.75
363.459	3.73
363.908	3.73
364.357	3.73
364.806	3.71
365.255	3.71
365.703	3.7
366.152	3.7
366.601	3.71
367.05	3.71
367.498	3.7
367.947	3.71
368.395	3.72
368.844	3.72
369.292	3.72
369.74	3.72
370.189	3.71
370.637	3.7
371.085	3.68
371.533	3.67
371.981	3.67
372.429	3.67
372.877	3.65
373.325	3.64
373.773	3.63
374.221	3.62
374.669	3.62
375.116	3.6
375.564	3.59
376.012	3.58
376.459	3.58
376.907	3.57
377.354	3.56
377.801	3.56
378.249	3.56
378.696	3.55
379.143	3.54
379.591	3.54
380.038	3.54
380.485	3.55
380.932	3.54
381.379	3.54
381.826	3.54
382.273	3.53
382.72	3.52
383.166	3.51
383.613	3.5
384.06	3.49
384.506	3.48
384.953	3.49
385.4	3.47
385.846	3.48
386.292	3.48
386.739	3.47
387.185	3.46
387.631	3.46
388.078	3.45
388.524	3.46
388.97	3.46
389.416	3.47
389.862	3.47
390.308	3.48
390.754	3.48
391.2	3.48
391.645	3.49
392.091	3.51
392.537	3.52
392.983	3.52
393.428	3.53
393.874	3.53
394.319	3.53
394.765	3.53
395.21	3.53
395.655	3.54
396.101	3.55
396.546	3.55
396.991	3.56
397.436	3.57
397.881	3.59
398.326	3.61
398.771	3.63
399.216	3.65
399.661	3.67
400.106	3.68
400.551	3.68
400.995	3.68
401.44	3.69
401.885	3.71
402.329	3.71
402.774	3.72
403.218	3.74
403.663	3.75
404.107	3.77
404.551	3.77
404.995	3.79
405.44	3.8
405.884	3.82
406.328	3.85
406.772	3.86
407.216	3.88
407.66	3.9
408.104	3.89
408.547	3.9
408.991	3.92
409.435	3.95
409.879	3.96
410.322	4.01
410.766	4.03
411.209	4.06
411.653	4.08
412.096	4.1
412.54	4.12
412.983	4.15
413.426	4.21
413.869	4.22
414.312	4.25
414.756	4.28
415.199	4.29
415.642	4.31
416.085	4.32
416.527	4.33
416.97	4.34
417.413	4.34
417.856	4.34
418.298	4.33
418.741	4.34
419.184	4.36
419.626	4.37
420.069	4.38
420.511	4.4
420.953	4.42
421.396	4.44
421.838	4.45
422.28	4.46
422.722	4.5
423.164	4.52
423.606	4.53
424.048	4.53
424.49	4.54
424.932	4.53
425.374	4.51
425.816	4.49
426.258	4.48
426.699	4.47
427.141	4.47
427.582	4.46
428.024	4.47
428.465	4.47
428.907	4.47
429.348	4.46
429.789	4.46
430.231	4.49
430.672	4.51
431.113	4.54
431.554	4.57
431.995	4.59
432.436	4.61
432.877	4.62
433.318	4.65
433.759	4.69
434.2	4.72
434.64	4.76
435.081	4.77
435.522	4.79
435.962	4.82
436.403	4.86
436.843	4.88
437.284	4.89
437.724	4.91
438.164	4.9
438.604	4.91
439.045	4.91
439.485	4.92
439.925	4.92
440.365	4.94
440.805	4.94
441.245	4.94
441.685	4.96
442.125	4.98
442.564	5
443.004	5.02
443.444	5.02
443.883	5.04
444.323	5.05
444.762	5.06
445.202	5.07
445.641	5.1
446.081	5.12
446.52	5.12
446.959	5.15
447.398	5.16
447.837	5.18
448.276	5.19
448.716	5.21
449.154	5.24
449.593	5.27
450.032	5.27
450.471	5.26
450.91	5.25
451.349	5.26
451.787	5.24
452.226	5.24
452.664	5.24
453.103	5.22
453.541	5.21
453.98	5.2
454.418	5.17
454.856	5.16
455.295	5.14
455.733	5.11
456.171	5.11
456.609	5.1
457.047	5.08
457.485	5.06
457.923	5.05
458.361	5.04
458.798	5.03
459.236	5.02
459.674	5.02
460.111	5.03
460.549	5.05
460.987	5.03
461.424	5.03
461.862	5.03
462.299	5.04
462.736	5.04
463.173	5.05
463.611	5.06
464.048	5.08
464.485	5.09
464.922	5.08
465.359	5.09
465.796	5.12
466.233	5.13
466.67	5.14
467.106	5.16
467.543	5.16
467.98	5.14
468.416	5.14
468.853	5.14
469.29	5.14
469.726	5.14
470.162	5.13
470.599	5.11
471.035	5.1
471.471	5.08
471.907	5.07
472.344	5.08
472.78	5.08
473.216	5.07
473.652	5.07
474.088	5.05
474.523	5.05
474.959	5.04
475.395	5.02
475.831	5.01
476.266	5.01
476.702	4.99
477.138	4.97
477.573	4.96
478.008	4.94
478.444	4.93
478.879	4.93
479.314	4.92
479.75	4.91
480.185	4.9
480.62	4.88
481.055	4.87
481.49	4.86
481.925	4.85
482.36	4.85
482.795	4.84
483.229	4.84
483.664	4.84
484.099	4.83
484.534	4.83
484.968	4.83
485.403	4.83
485.837	4.84
486.271	4.86
486.706	4.87
487.14	4.87
487.574	4.89
488.009	4.9
488.443	4.91
488.877	4.93
489.311	4.95
489.745	4.98
490.179	5.01
490.613	5.05
491.046	5.07
491.48	5.1
491.914	5.14
492.348	5.18
492.781	5.24
493.215	5.29
493.648	5.34
494.082	5.39
494.515	5.44
494.948	5.5
495.382	5.55
495.815	5.63
496.248	5.7
496.681	5.78
497.114	5.85
497.547	5.92
497.98	6
498.413	6.07
498.846	6.16
499.279	6.25
499.711	6.34
500.144	6.44
500.577	6.55
501.009	6.65
501.442	6.76
501.874	6.88
502.306	7
502.739	7.13
503.171	7.27
503.603	7.41
504.036	7.56
504.468	7.71
504.9	7.86
505.332	8.02
505.764	8.18
506.196	8.36
506.627	8.54
507.059	8.73
507.491	8.91
507.923	9.1
508.354	9.32
508.786	9.52
509.217	9.74
509.649	9.97
510.08	10.19
510.512	10.42
510.943	10.65
511.374	10.88
511.805	11.13
512.237	11.37
512.668	11.61
513.099	11.86
513.53	12.11
513.961	12.36
514.391	12.63
514.822	12.89
515.253	13.14
515.684	13.41
516.114	13.68
516.545	13.93
516.975	14.21
517.406	14.47
517.836	14.73
518.267	14.99
518.697	15.25
519.127	15.49
519.558	15.74
519.988	16
520.418	16.25
520.848	16.49
521.278	16.73
521.708	17.12
522.138	17.34
522.567	17.55
522.997	17.77
523.427	17.98
523.857	18.2
524.286	18.4
524.716	18.61
525.145	18.79
525.575	18.98
526.004	19.17
526.433	19.18
526.863	19.35
527.292	19.52
527.721	19.67
528.15	19.83
528.579	19.97
529.008	20.11
529.437	20.24
529.866	20.36
530.295	20.48
530.724	20.61
531.152	20.71
531.581	20.83
532.01	20.94
532.438	21.05
532.867	21.15
533.295	21.23
533.723	21.32
534.152	21.4
534.58	21.48
535.008	21.55
535.436	21.62
535.865	21.68
536.293	21.73
536.721	21.78
537.149	21.82
537.576	21.86
538.004	21.93
538.432	21.96
538.86	21.99
539.287	22.02
539.715	22.06
540.143	22.08
540.57	22.12
540.998	22.16
541.425	22.18
541.852	22.2
542.28	22.22
542.707	22.22
543.134	22.25
543.561	22.29
543.988	22.32
544.415	22.33
544.842	22.34
545.269	22.37
545.696	22.39
546.123	22.41
546.549	22.43
546.976	22.45
547.403	22.47
547.829	22.48
548.256	22.49
548.682	22.49
549.108	22.51
549.535	22.53
549.961	22.54
550.387	22.53
550.813	22.55
551.24	22.55
551.666	22.55
552.092	22.55
552.518	22.55
552.943	22.55
553.369	22.54
553.795	22.54
554.221	22.53
554.646	22.51
555.072	22.49
555.498	22.44
555.923	22.39
556.349	22.34
556.774	22.27
557.199	22.21
557.625	22.15
558.05	22.1
558.475	22.02
558.9	21.95
559.325	21.88
559.75	21.81
560.175	21.74
560.6	21.66
561.025	21.59
561.449	21.53
561.874	21.43
562.299	21.34
562.723	21.24
563.148	21.12
563.572	21.01
563.997	20.9
564.421	20.78
564.846	20.65
565.27	20.54
565.694	20.43
566.118	20.3
566.542	20.19
566.966	20.04
567.39	19.93
567.814	19.81
568.238	19.67
568.662	19.54
569.086	19.42
569.509	19.3
569.933	19.17
570.357	19.03
570.78	18.9
571.204	18.77
571.627	18.66
572.05	18.52
572.474	18.42
572.897	18.32
573.32	18.21
573.743	18.11
574.166	18.01
574.589	17.9
575.012	17.8
575.435	17.7
575.858	17.6
576.281	17.5
576.704	17.41
577.126	17.31
577.549	17.21
577.972	17.13
578.394	17.04
578.817	16.96
579.239	16.87
579.661	16.81
580.084	16.74
580.506	16.68
580.928	16.61
581.35	16.56
581.772	16.49
582.194	16.42
582.616	16.35
583.038	16.3
583.46	16.23
583.882	16.16
584.303	16.07
584.725	16.01
585.147	15.97
585.568	15.91
585.99	15.84
586.411	15.8
586.833	15.75
587.254	15.7
587.675	15.64
588.096	15.59
588.518	15.55
588.939	15.53
589.36	15.48
589.781	15.43
590.202	15.39
590.623	15.36
591.043	15.31
591.464	15.26
591.885	15.22
592.305	15.2
592.726	15.17
593.147	15.13
593.567	15.09
593.987	15.05
594.408	15
594.828	14.97
595.248	14.93
595.669	14.91
596.089	14.9
596.509	14.86
596.929	14.83
597.349	14.78
597.769	14.75
598.189	14.71
598.608	14.69
599.028	14.65
599.448	14.6
599.867	14.56
600.287	14.52
600.706	14.48
601.126	14.42
601.545	14.38
601.965	14.35
602.384	14.31
602.803	14.27
603.222	14.22
603.641	14.17
604.061	14.13
604.48	14.07
604.898	14
605.317	13.95
605.736	13.9
606.155	13.84
606.574	13.77
606.992	13.7
607.411	13.63
607.829	13.53
608.248	13.46
608.666	13.39
609.085	13.33
609.503	13.26
609.921	13.19
610.339	13.12
610.758	13.05
611.176	12.98
611.594	12.91
612.012	12.83
612.43	12.79
612.847	12.72
613.265	12.66
613.683	12.59
614.101	12.53
614.518	12.45
614.936	12.38
615.353	12.3
615.771	12.24
616.188	12.18
616.606	12.13
617.023	12.07
617.44	12.03
617.857	11.98
618.274	11.92
618.691	11.87
619.108	11.83
619.525	11.78
619.942	11.74
620.359	11.7
620.776	11.68
621.192	11.64
621.609	11.61
622.026	11.58
622.442	11.55
622.859	11.53
623.275	11.51
623.691	11.49
624.108	11.48
624.524	11.47
624.94	11.46
625.356	11.46
625.772	11.45
626.188	11.44
626.604	11.42
627.02	11.41
627.436	11.42
627.852	11.4
628.268	11.4
628.683	11.4
629.099	11.39
629.514	11.38
629.93	11.37
630.345	11.34
630.761	11.31
631.176	11.29
631.591	11.27
632.007	11.22
632.422	11.2
632.837	11.15
633.252	11.09
633.667	11.03
634.082	10.96
634.497	10.9
634.911	10.84
635.326	10.77
635.741	10.7
636.155	10.62
636.57	10.54
636.984	10.46
637.399	10.37
637.813	10.28
638.228	10.2
638.642	10.09
639.056	9.99
639.47	9.89
639.884	9.8
640.298	9.68
640.712	9.57
641.126	9.47
641.54	9.35
641.954	9.24
642.368	9.13
642.781	9.02
643.195	8.92
643.609	8.82
644.022	8.72
644.436	8.61
644.849	8.52
645.262	8.43
645.676	8.34
646.089	8.25
646.502	8.19
646.915	8.11
647.328	8.04
647.741	7.98
648.154	7.92
648.567	7.86
648.98	7.81
649.393	7.76
649.805	7.72
650.218	7.68
650.631	7.65
651.043	7.6
651.456	7.56
651.868	7.51
652.28	7.46
652.693	7.43
653.105	7.39
653.517	7.35
653.929	7.31
654.341	7.25
654.753	7.19
655.165	7.13
655.577	7.07
655.989	7.01
656.401	6.94
656.813	6.88
657.224	6.8
657.636	6.71
658.047	6.63
658.459	6.54
658.87	6.46
659.282	6.38
659.693	6.3
660.104	6.21
660.515	6.12
660.926	6.04
661.338	5.95
661.749	5.87
662.159	5.79
662.57	5.72
662.981	5.65
663.392	5.58
663.803	5.51
664.213	5.45
664.624	5.39
665.035	5.34
665.445	5.29
665.855	5.25
666.266	5.22
666.676	5.19
667.086	5.14
667.497	5.11
667.907	5.08
668.317	5.06
668.727	5.04
669.137	5.02
669.547	5.01
669.956	4.99
670.366	4.98
670.776	4.97
671.186	4.96
671.595	4.95
672.005	4.94
672.414	4.94
672.824	4.94
673.233	4.94
673.642	4.95
674.052	4.95
674.461	4.95
674.87	4.96
675.279	4.97
675.688	5
676.097	5.02
676.506	5.05
676.915	5.07
677.323	5.11
677.732	5.14
678.141	5.18
678.549	5.22
678.958	5.26
679.366	5.32
679.775	5.37
680.183	5.43
680.592	5.5
681	5.57
681.408	5.67
681.816	5.76
682.224	5.87
682.632	5.99
683.04	6.12
683.448	6.27
683.856	6.42
684.264	6.6
684.671	6.78
685.079	6.99
685.487	7.23
685.894	7.47
686.302	7.73
686.709	8.02
687.116	8.33
687.524	8.67
687.931	9.02
688.338	9.41
688.745	9.8
689.152	10.21
689.559	10.64
689.966	11.08
690.373	11.52
690.78	12.01
691.187	12.48
691.593	12.97
692	13.46
692.407	13.95
692.813	14.44
693.22	14.95
693.626	15.46
694.032	15.98
694.439	16.49
694.845	17.01
695.251	17.49
695.657	17.97
696.063	18.46
696.469	18.95
696.875	19.44
697.281	19.92
697.687	20.4
698.093	20.86
698.498	21.31
698.904	21.76
699.31	22.22
699.715	22.66
700.12	23.11
700.526	23.54
700.931	23.94
701.337	24.35
701.742	24.73
702.147	25.1
702.552	25.5
702.957	25.87
703.362	26.22
703.767	26.54
704.172	26.88
704.577	27.21
704.981	27.55
705.386	27.89
705.791	28.2
706.195	28.52
706.6	28.82
707.004	29.1
707.408	29.38
707.813	29.69
708.217	29.98
708.621	30.28
709.025	30.56
709.43	30.82
709.834	31.08
710.237	31.33
710.641	31.58
711.045	31.83
711.449	32.08
711.853	32.35
712.256	32.55
712.66	32.77
713.064	32.98
713.467	33.19
713.87	33.41
714.274	33.61
714.677	33.83
715.08	34.03
715.484	34.25
715.887	34.46
716.29	34.63
716.693	34.85
717.096	35.04
717.499	35.23
717.901	35.42
718.304	35.59
718.707	35.8
719.109	35.97
719.512	36.13
719.915	36.28
720.317	36.42
720.719	36.56
721.122	36.67
721.524	36.81
721.926	36.95
722.328	37.08
722.731	37.19
723.133	37.31
723.535	37.43
723.937	37.55
724.338	37.67
724.74	37.77
725.142	37.98
725.544	38.08
725.945	38.22
726.347	38.3
726.748	38.39
727.15	38.49
727.551	38.56
727.952	38.66
728.354	38.74
728.755	38.8
729.156	38.9
729.557	38.86
729.958	38.93
730.359	38.97
730.76	39.05
731.161	39.1
731.562	39.18
731.962	39.21
732.363	39.26
732.763	39.32
733.164	39.38
733.564	39.4
733.965	39.48
734.365	39.53
734.766	39.56
735.166	39.59
735.566	39.65
735.966	39.7
736.366	39.73
736.766	39.75
737.166	39.78
737.566	39.81
737.966	39.85
738.365	39.88
738.765	39.92
739.165	39.98
739.564	40.02
739.964	40.04
740.363	40.05
740.763	40.11
741.162	40.12
741.561	40.16
741.96	40.17
742.36	40.18
742.759	40.18
743.158	40.18
743.557	40.18
743.955	40.18
744.354	40.2
744.753	40.2
745.152	40.23
745.55	40.25
745.949	40.25
746.348	40.29
746.746	40.3
747.144	40.33
747.543	40.32
747.941	40.36
748.339	40.36
748.737	40.35
749.136	40.36
749.534	40.33
749.932	40.35
750.33	40.35
750.727	40.34
751.125	40.35
751.523	40.34
751.921	40.36
752.318	40.36
752.716	40.37
753.113	40.39
753.511	40.39
753.908	40.44
754.305	40.43
754.703	40.43
755.1	40.43
755.497	40.44
755.894	40.43
756.291	40.43
756.688	40.41
757.085	40.42
757.482	40.43
757.878	40.42
758.275	40.41
758.672	40.41
759.068	40.44
759.465	40.43
759.861	40.43
760.258	40.44
760.654	40.45
761.05	40.48
761.447	40.49
761.843	40.48
762.239	40.5
762.635	40.5
763.031	40.5
763.427	40.48
763.822	40.5
764.218	40.53
764.614	40.55
765.01	40.53
765.405	40.55
765.801	40.52
766.196	40.52
766.592	40.5
766.987	40.5
767.382	40.5
767.778	40.52
768.173	40.52
768.568	40.48
768.963	40.48
769.358	40.5
769.753	40.47
770.148	40.46
770.542	40.49
770.937	40.51
771.332	40.52
771.726	40.51
772.121	40.51
772.515	40.53
772.91	40.54
773.304	40.54
773.699	40.54
774.093	40.53
774.487	40.53
774.881	40.53
775.275	40.51
775.669	40.49
776.063	40.49
776.457	40.49
776.851	40.46
777.245	40.45
777.638	40.44
778.032	40.44
778.425	40.48
778.819	40.49
779.212	40.5
779.606	40.53
779.999	40.55
780.392	40.56
780.786	40.54
781.179	40.56
781.572	40.57
781.965	40.58
782.358	40.58
782.751	40.56
783.143	40.57
783.536	40.56
783.929	40.56
784.322	40.58
784.714	40.59
785.107	40.63
785.499	40.64
785.891	40.67
786.284	40.68
786.676	40.69
787.068	40.72
787.46	40.7
787.852	40.72
788.245	40.7
788.636	40.68
789.028	40.69
789.42	40.66
789.812	40.66
790.204	40.64
790.595	40.62
790.987	40.61
791.378	40.6
791.77	40.61
792.161	40.61
792.553	40.63
792.944	40.63
793.335	40.61
793.726	40.63
794.117	40.61
794.508	40.61
794.899	40.62
795.29	40.61
795.681	40.57
796.072	40.58
796.463	40.58
796.853	40.57
797.244	40.56
797.634	40.56
798.025	40.57
798.415	40.56
798.806	40.55
799.196	40.56
799.586	40.61
799.976	40.64
800.366	40.64
800.756	40.63
801.146	40.63
801.536	40.62
801.926	40.63
802.316	40.59
802.706	40.6
803.095	40.61
803.485	40.59
803.874	40.54
804.264	40.54
804.653	40.56
805.043	40.57
805.432	40.55
805.821	40.55
806.21	40.56
806.599	40.58
806.988	40.59
807.377	40.58
807.766	40.6
808.155	40.57
808.544	40.57
808.933	40.55
809.321	40.53
809.71	40.53
810.098	40.52
810.487	40.5
810.875	40.5
811.264	40.49
811.652	40.5
812.04	40.48
812.428	40.51
812.816	40.47
813.204	40.47
813.592	40.45
813.98	40.45
814.368	40.45
814.756	40.46
815.144	40.44
815.531	40.45
815.919	40.43
816.306	40.44
816.694	40.42
817.081	40.44
817.469	40.45
817.856	40.45
818.243	40.45
818.63	40.47
819.017	40.49
819.404	40.49
819.791	40.46
820.178	40.45
820.565	40.43
820.952	40.43
821.339	40.41
821.725	40.41
822.112	40.41
822.498	40.42
822.885	40.42
823.271	40.38
823.657	40.32
824.044	40.31
824.43	40.31
824.816	40.33
825.202	40.31
825.588	40.31
825.974	40.28
826.36	40.28
826.746	40.24
827.132	40.23
827.517	40.25
827.903	40.29
828.289	40.31
828.674	40.31
829.06	40.28
829.445	40.31
829.83	40.29
830.216	40.28
830.601	40.27
830.986	40.3
831.371	40.29
831.756	40.28
832.141	40.25
832.526	40.24
832.911	40.21
833.295	40.22
833.68	40.2
834.065	40.21
834.449	40.22
834.834	40.23
835.218	40.22
835.603	40.2
835.987	40.19
836.371	40.19
836.755	40.18
837.139	40.18
837.524	40.18
837.908	40.19
838.291	40.19
838.675	40.15
839.059	40.14
839.443	40.14
839.827	40.13
840.21	40.12
840.594	40.12
840.977	40.15
841.361	40.14
841.744	40.12
842.127	40.09
842.511	40.08
842.894	40.09
843.277	40.06
843.66	40.01
844.043	40.02
844.426	40.04
844.809	40.02
845.191	40
845.574	40.01
845.957	40.03
846.339	40.04
846.722	40.03
847.104	40.06
847.487	40.07
847.869	40.1
848.252	40.08
848.634	40.07
849.016	40.07
849.398	40.08
849.78	40.07
850.162	40.07
850.544	40.07
850.926	40.09
851.307	40.07
851.689	40.09
852.071	40.08
852.452	40.08
852.834	40.08
853.215	40.08
853.597	40.08
853.978	40.07
854.359	40.05
854.741	40.03
855.122	40
855.503	40
855.884	39.97
856.265	39.99
856.646	39.98
857.026	40
857.407	40.01
857.788	40.01
858.169	40.04
858.549	40.04
858.93	40.03
859.31	40.05
859.69	40.06
860.071	40.08
860.451	40.07
860.831	40.09
861.211	40.07
861.591	40.07
861.971	40.03
862.351	40.02
862.731	40.05
863.111	40.06
863.491	40.07
863.87	40.07
864.25	40.06
864.629	40.07
865.009	40.06
865.388	40.04
865.768	40.04
866.147	40.07
866.526	40.07
866.905	40.06
867.284	40.06
867.663	40.04
868.042	40.04
868.421	40.04
868.8	40.02
869.179	40.03
869.558	40.04
869.936	40.03
870.315	40
870.693	40.01
871.072	40.01
871.45	40.01
871.828	40.02
872.207	40.04
872.585	40.02
872.963	40.04
873.341	40.03
873.719	40.05
874.097	40.06
874.475	40.09
874.853	40.09
875.23	40.09
875.608	40.1
875.986	40.11
876.363	40.12
876.741	40.13
877.118	40.12
877.495	40.13
877.873	40.13
878.25	40.13
878.627	40.12
879.004	40.12
879.381	40.13
879.758	40.11
880.135	40.1
880.512	40.07
880.889	40.07
881.265	40.06
881.642	40.06
882.019	40.05
882.395	40.04
882.772	40.02
883.148	40.02
883.524	40
883.901	39.98
884.277	39.97
884.653	39.94
885.029	39.92
885.405	39.93
885.781	39.91
886.157	39.9
886.532	39.89
886.908	39.89
887.284	39.87
887.659	39.85
888.035	39.86
888.411	39.85
888.786	39.88
889.161	39.88
889.537	39.88
889.912	39.87
890.287	39.87
890.662	39.85
891.037	39.86
891.412	39.85
891.787	39.84
892.162	39.84
892.536	39.83
892.911	39.81
893.286	39.81
893.66	39.79
894.035	39.79
894.409	39.77
894.784	39.77
895.158	39.77
895.532	39.78
895.906	39.78
896.281	39.76
896.655	39.76
897.029	39.75
897.402	39.73
897.776	39.77
898.15	39.79
898.524	39.81
898.898	39.8
899.271	39.81
899.645	39.82
900.018	39.85
900.392	39.89
900.765	39.92
901.138	39.93
901.511	39.94
901.884	39.96
902.258	39.96
902.631	39.95
903.003	39.96
903.376	39.96
903.749	39.95
904.122	39.96
904.495	39.96
904.867	39.96
905.24	39.99
905.612	40.03
905.985	40
906.357	39.98
906.729	39.99
907.102	40
907.474	40.03
907.846	40.04
908.218	40.03
908.59	40.04
908.962	40.03
909.334	40.03
909.705	40.02
910.077	40.04
910.449	40.08
910.82	40.1
911.192	40.1
911.563	40.1
911.935	40.11
912.306	40.13
912.677	40.13
913.048	40.13
913.419	40.13
913.79	40.13
914.161	40.14
914.532	40.12
914.903	40.12
915.274	40.13
915.645	40.11
916.015	40.09
916.386	40.09
916.756	40.09
917.127	40.1
917.497	40.11
917.868	40.11
918.238	40.11
918.608	40.13
918.978	40.12
919.348	40.16
919.718	40.14
920.088	40.18
920.458	40.18
920.828	40.19
921.198	40.16
921.567	40.19
921.937	40.21
922.306	40.2
922.676	40.19
923.045	40.19
923.415	40.19
923.784	40.23
924.153	40.23
924.522	40.24
924.891	40.22
925.26	40.24
925.629	40.22
925.998	40.2
926.367	40.2
926.736	40.21
927.104	40.22
927.473	40.19
927.842	40.2
928.21	40.21
928.578	40.21
928.947	40.24
929.315	40.22
929.683	40.2
930.051	40.19
930.42	40.21
930.788	40.22
931.156	40.21
931.523	40.2
931.891	40.22
932.259	40.25
932.627	40.28
932.994	40.28
933.362	40.32
933.729	40.37
934.097	40.41
934.464	40.48
934.831	40.53
935.199	40.6
935.566	40.68
935.933	40.66
936.3	40.65
936.667	40.65
937.034	40.73
937.401	40.77
937.767	40.84
938.134	40.87
938.501	40.88
938.867	40.91
939.234	40.93
939.6	40.98
939.967	41.08
940.333	41.12
940.699	41.16
941.065	41.14
941.431	41.18
941.798	41.19
942.163	41.21
942.529	41.2
942.895	41.21
943.261	41.2
943.627	41.19
943.992	41.17
944.358	41.16
944.723	41.14
945.089	41.06
945.454	41.03
945.82	40.95
946.185	40.97
946.55	40.94
946.915	40.88
947.28	40.86
947.645	40.86
948.01	40.83
948.375	40.82
948.74	40.81
949.104	40.87
949.469	40.85
949.834	40.84
950.198	40.78
950.562	40.77
950.927	40.72
951.291	40.64
951.655	40.53
952.02	40.52
952.384	40.45
952.748	40.41
953.112	40.39
953.476	40.32
953.839	40.27
954.203	40.25
954.567	40.19
954.931	40.17
955.294	40.17
955.658	40.22
956.021	40.19
956.385	40.17
956.748	40.18
957.111	40.12
957.474	40.12
957.837	40.1
958.2	40.06
958.563	40.04
958.926	40.06
959.289	40.06
959.652	40
960.015	40
960.377	40
960.74	39.96
961.102	39.97
961.465	40.01
961.827	40.09
962.189	40.14
962.552	40.13
962.914	40.12
963.276	40.16
963.638	40.18
964	40.13
964.362	40.17
964.724	40.16
965.085	40.16
965.447	40.11
965.809	40.03
966.17	40.02
966.532	40.03
966.893	40.01
967.255	39.95
967.616	39.96
967.977	39.98
968.338	40
968.699	40.06
969.061	40.05
969.421	40.1
969.782	40.14
970.143	40.12
970.504	40.16
970.865	40.22
971.225	40.23
971.586	40.2
971.946	40.21
972.307	40.17
972.667	40.11
973.027	40.16
973.388	40.2
973.748	40.22
974.108	40.31
974.468	40.29
974.828	40.31
975.188	40.33
975.548	40.38
975.907	40.38
976.267	40.42
976.627	40.46
976.986	40.44
977.346	40.35
977.705	40.38
978.064	40.37
978.424	40.45
978.783	40.4
979.142	40.37
979.501	40.36
979.86	40.47
980.219	40.5
980.578	40.51
980.937	40.55
981.296	40.59
981.654	40.58
982.013	40.55
982.371	40.47
982.73	40.56
983.088	40.65
983.447	40.72
983.805	40.73
984.163	40.71
984.521	40.76
984.879	40.75
985.237	40.86
985.595	40.93
985.953	40.99
986.311	41.05
986.669	41.07
987.026	41.08
987.384	41.12
987.741	41.08
988.099	41.17
988.456	41.19
988.814	41.25
989.171	41.23
989.528	41.26
989.885	41.24
990.242	41.32
990.599	41.42
990.956	41.47
991.313	41.46
991.67	41.65
992.027	41.75
992.383	41.84
992.74	41.99
993.096	42.03
993.453	42.08
993.809	42.11
994.165	42.16
994.522	42.19
994.878	42.29
995.234	42.34
995.59	42.23
995.946	42.19
996.302	42.17
996.658	42.14
997.013	42.27
997.369	42.32
997.725	42.44
998.08	42.54
998.436	42.56
998.791	42.61
999.147	42.71
999.502	42.77
999.857	42.87
1000.212	42.86
1000.567	42.85
1000.922	42.85
1001.277	42.89
1001.632	42.91
1001.987	42.97
1002.342	42.88
1002.696	42.82
1003.051	42.95
1003.406	43.14
1003.76	43.09
1004.114	43.3
1004.469	43.49
1004.823	43.74
1005.177	43.75
1005.531	43.91
1005.885	44
1006.239	44.1
1006.593	44.41
1006.947	44.38
1007.301	44.36
1007.655	44.6
1008.008	44.7
1008.362	44.75
1008.715	44.73
1009.069	44.98
1009.422	45.05
1009.776	45
1010.129	45.15
1010.482	45.14
1010.835	45.38
1011.188	45.57
1011.541	45.62
1011.894	45.74
1012.247	45.86
1012.6	45.87
1012.952	45.78
1013.305	45.85
1013.657	45.97
1014.01	46.16
1014.362	46.23
1014.715	46.33
1015.067	46.45
1015.419	46.61
1015.771	46.59
1016.123	46.69
1016.475	46.93
1016.827	47.2
1017.179	47.43
1017.531	47.64
1017.883	47.78
1018.234	47.95
1018.586	47.92
1018.938	48.16
1019.289	48.09
1019.64	48.16
1019.992	48.06
1020.343	47.85
1020.694	47.9
1021.045	47.9
1021.396	47.99
1021.747	48.22
1022.098	48.33
1022.449	48.48
1022.8	48.56
1023.151	48.89
1023.501	49.44
1023.852	49.92
1024.202	50.41
1024.553	50.42
1024.903	50.82
1025.253	51.29
1025.604	51.13
1025.954	51.13
1026.304	51.22
1026.654	51.18
1027.004	51.07
1027.354	51.05
1027.703	50.91
1028.053	50.82
1028.403	51.27
1028.753	51.01
1029.102	50.86
1029.452	51.11
1029.801	51.37
1030.15	51.45
1030.499	51.49
897.758	1488.69
901.051	1496.9
904.343	1488.06
907.636	1517.29
910.928	1474.75
914.22	1476.35
917.511	1457.73
920.803	1393.44
924.094	1389.37
927.384	1357.08
930.675	1298.82
933.965	1290.98
937.255	1215.24
940.544	1169.33
943.834	1112.77
947.123	1106.01
950.411	1038.46
953.7	1017.76
956.988	962.86
960.276	922.98
963.563	909.43
966.851	878.33
970.138	870.68
973.424	843.43
976.711	848.46
979.997	804.84
983.283	798.5
986.568	782.69
989.853	759.02
993.138	746.73
996.423	717.11
999.708	696.35
1002.992	687.16
1006.275	655.58
1009.559	650.42
1012.842	625.41
1016.125	607.01
1019.408	597.65
1022.69	588.18
1025.972	576.88
1029.254	561.26
1032.536	552.12
1035.817	540.63
1039.098	534.28
1042.379	523.18
1045.659	516.19
1048.939	503.4
1052.219	494.86
1055.498	485.78
1058.778	475.49
1062.057	463.29
1065.335	458.89
1068.614	453
1071.892	448.33
1075.17	433.72
1078.447	425.37
1081.724	422.65
1085.001	419.91
1088.278	411.26
1091.554	403.37
1094.83	403.7
1098.106	400.57
1101.382	396.94
1104.657	394.68
1107.932	387.16
1111.206	389.76
1114.481	379.79
1117.755	376.18
1121.029	372.89
1124.302	371.91
1127.575	364.6
1130.848	359.77
1134.121	356.5
1137.393	354.95
1140.665	346.5
1143.937	345.59
1147.208	341.87
1150.48	342.07
1153.75	336.75
1157.021	331.68
1160.291	332.22
1163.561	328.68
1166.831	328.7
1170.101	325.79
1173.37	324.35
1176.639	325.29
1179.907	321.91
1183.176	318.67
1186.444	317.95
1189.711	317.81
1192.979	317.23
1196.246	314.43
1199.513	316.32
1202.78	313.9
1206.046	314.05
1209.312	311.33
1212.578	311.84
1215.843	313.89
1219.108	312.74
1222.373	319.35
1225.638	321.24
1228.902	325.87
1232.166	326.58
1235.43	329.01
1238.693	333.21
1241.956	334.76
1245.219	340.75
1248.482	340.29
1251.744	340.5
1255.006	341.31
1258.268	332.27
1261.529	329.48
1264.79	326.92
1268.051	325.16
1271.312	321.56
1274.572	317.38
1277.832	314.39
1281.092	308.75
1284.351	306.33
1287.61	306.16
1290.869	301.71
1294.128	300.03
1297.386	300.46
1300.644	296.57
1303.902	297.5
1307.159	296.1
1310.416	296.69
1313.673	296.49
1316.93	299.48
1320.186	299.88
1323.442	300.31
1326.697	306.27
1329.953	307.71
1333.208	308.57
1336.463	313.07
1339.717	313.46
1342.972	316.87
1346.226	319.3
1349.479	319.79
1352.733	321.72
1355.986	323.09
1359.238	323.23
1362.491	324.86
1365.743	326.72
1368.995	327.69
1372.247	327.44
1375.498	327.83
1378.749	330.88
1382	327.21
1385.251	329.01
1388.501	326.65
1391.751	328.97
1395	327.53
1398.25	324.64
1401.499	324.41
1404.748	323.54
1407.996	320.08
1411.244	318.66
1414.492	316.54
1417.74	314.45
1420.987	309.94
1424.234	310.32
1427.481	305.68
1430.728	305.93
1433.974	302.82
1437.22	300.37
1440.465	299.51
1443.711	297.71
1446.956	296.22
1450.201	292.46
1453.445	290.08
1456.689	289.13
1459.933	283.4
1463.177	281.81
1466.42	277.21
1469.663	273.58
1472.906	271.74
1476.148	264.53
1479.391	261.25
1482.633	258.51
1485.874	254.19
1489.115	252.38
1492.356	249.1
1495.597	249.33
1498.838	244.77
1502.078	243.28
1505.318	242.27
1508.557	241.88
1511.797	241.23
1515.036	239.96
1518.274	239.02
1521.513	236.75
1524.751	236.32
1527.989	235.69
1531.227	234.27
1534.464	235.11
1537.701	232.95
1540.938	232.54
1544.174	230.06
1547.41	229.86
1550.646	228.14
1553.882	228.44
1557.117	225.79
1560.352	224.28
1563.587	223.29
1566.821	221.74
1570.055	219.15
1573.289	217.94
1576.523	217.39
1579.756	214.99
1582.989	213.73
1586.222	213.96
1589.454	211.98
1592.686	214.1
1595.918	213.12
1599.15	212.22
1602.381	212.33
1605.612	212.18
1608.843	213.22
1612.073	213.03
1615.303	214.79
1618.533	215.01
1621.762	214.2
1624.992	214.53
1628.221	213.79
1631.449	213.79
1634.678	212.93
1637.906	213.83
1641.134	213.77
1644.361	213.02
1647.588	213.7
1650.815	212.58
1654.042	211.84
1657.269	213.23
1660.495	213.29
1663.72	211.75
1666.946	212.86
1670.171	213.82
1673.396	213.7
1676.621	213.89
1679.845	213.69
1683.069	213.91
1686.293	215.4
1689.517	216.35
1692.74	215.75
1695.963	216.49
1699.185	219.35
1702.408	218.63
1705.63	219.76
1708.852	220.27
1712.073	221.08
1715.294	221.83
1718.515	223.11
1721.736	222.63
1724.956	223.48
1728.176	223.55
1731.396	226.26
1734.616	225.48
1737.835	226.86
1741.054	225.13
1744.272	225.59
1747.491	227.66
1750.709	228.64
1753.927	228.16
1757.144	227.61
1760.361	228.67
1763.578	229.11
1766.795	227.9
1770.011	229.66
1773.227	229.43
1776.443	232.54
1779.658	233.55
1782.874	233.32
1786.089	233.97
1789.303	234.72
1792.518	237.4
1795.732	237.65
1798.945	240.58
1802.159	240.6
1805.372	241.03
1808.585	245.73
1811.797	246.09
1815.01	247.07
1818.222	248.56
1821.434	250.41
1824.645	251.3
1827.856	255.63
1831.067	257.33
1834.278	256.36
1837.488	258.33
1840.698	260.17
1843.908	257.45
1847.117	259.7
1850.326	261.08
1853.535	260.1
1856.744	263.89
1859.952	263.9
1863.16	262.37
1866.368	260.97
1869.575	264.56
1872.782	260.83
1875.989	259.86
1879.196	259.8
1882.402	257.49
1885.608	258.62
1888.814	259.88
1892.019	259.3
1895.224	258.66
1898.429	257.97
1901.634	259.65
1904.838	259.24
1908.042	262.68
1911.246	263.97
1914.449	265.07
1917.652	265.07
1920.855	264.82
1924.058	264.43
1927.26	262.83
1930.462	264.36
1933.664	266.8
1936.865	264.33
1940.066	264.4
1943.267	262.84
1946.467	262.42
1949.668	264.26
1952.868	267.8
1956.067	267.41
1959.267	267.7
1962.466	268.83
1965.665	266.96
1968.863	267.57
1972.061	271.31
1975.259	273.83
1978.457	276.24
1981.654	278.66
1984.852	279.03
1988.048	278.08
1991.245	280.87
1994.441	284.69
1997.637	286.22
2000.833	292.63
2004.028	295.94
2007.223	297.46
2010.418	299.81
2013.613	304.37
2016.807	307.44
2020.001	310.41
2023.194	315.1
2026.388	321.68
2029.581	328.09
2032.774	331.45
2035.966	336.89
2039.158	337.93
2042.35	345.04
2045.542	348.36
2048.733	353.41
2051.924	358.43
2055.115	364.61
2058.306	365.53
2061.496	369.75
2064.686	370.22
2067.875	376.09
2071.065	378.13
2074.254	376.28
2077.442	380.81
2080.631	381.03
2083.819	384.94
2087.007	386.05
2090.195	389.91
2093.382	393.52
2096.569	390.3
2099.756	396.47
2102.942	398.16
2106.128	401.99
2109.314	410.54
2112.5	408.97
2115.685	418.63
2118.87	419.69
2122.055	426.61
2125.239	429.73
2128.424	434.6
2131.608	438.02
2134.791	443.58
2137.974	444.7
2141.157	445.49
2144.34	446.41
2147.523	454.45
2150.705	450.77
2153.887	454.67
2157.068	456.21
2160.25	452.47
2163.431	454.94
2166.611	459.51
2169.792	468.45
2172.972	474.43
2176.152	477.92
2179.331	484.2
2182.511	490.92
2185.69	497.76
2188.868	508.1
2192.047	508.7
2195.225	522.72
2198.403	535.98
2201.58	546.23
2204.758	555.9
2207.935	566.72
2211.111	576.86
2214.288	584.06
2217.464	586.52
2220.64	593.06
2223.815	601.2
2226.991	626.53
2230.166	628.24
2233.34	639.12
2236.515	652.22
2239.689	650.44
2242.863	655.37
2246.036	674.92
2249.209	669.64
2252.382	679.93
2255.555	701.49
2258.727	703.35
2261.9	706.18
2265.071	713.03
2268.243	724.09
2271.414	730.82
2274.585	750.83
2277.756	756.82
2280.926	762.25
2284.096	779.63
2287.266	797.52
2290.436	803.35
2293.605	822.14
2296.774	849.05
2299.942	875.02
2303.111	880.52
2306.279	898.57
2309.447	911.36
2312.614	936.56
2315.781	959.71
2318.948	1005.58
2322.115	990.74
2325.281	1042.38
2328.447	1021.28
2331.613	1063.52
2334.779	1051.42
2337.944	1096.5
2341.109	1108
2344.274	1136.58
2347.438	1177.22
2350.602	1177.11
2353.766	1212.19
2356.929	1230.53
2360.092	1222.34
2363.255	1311.41
2366.418	1304.28
2369.58	1333.19
2372.742	1414.08
2375.904	1451.82
2379.066	1440.1
2382.227	1410.79
2385.388	1529.06
2388.548	1533.44
2391.709	1550.27
2394.869	1729.6
2398.029	1653.97
2401.188	1701.03
2404.347	1690.85
2407.506	1661.02
2410.665	1712.53
2413.823	1816.44
2416.981	1923.78
2420.139	1861.02
2423.296	1837.95
2426.453	1918.64
2429.61	1845.55
2432.767	1933.98
2435.923	1914.26
2439.079	2091.04
2442.235	2119.31
2445.391	2095.47
2448.546	2086.58
2451.701	2023.58
2454.855	2025.88
2458.009	2145.21
2461.163	2237.89
2464.317	2319.19
2467.471	2376.57
2470.624	2380.37
2473.777	2315.94
2476.929	2264.14
2480.082	2194.86
2483.234	2165.15
2486.385	2280.84
2489.537	2289.25
2492.688	2377.92
2495.839	2310.87
2498.989	2261.9
2502.14	2274.31
2505.29	2295.96
2508.439	2336.52
2511.589	2324.58
2514.738	2537.32
2517.887	2480.42
2521.035	2620.09
2524.183	2640.71
2527.331	2659.77
2530.479	2645.69
2533.627	2664.79
