Data from N_2_DEC_CT_2N_Splice17_13-31-47-677.txt Node
Date: Sat Mar 07 13:31:47 EST 2020
User: sa697716
Spectrometer: NQ5500242
Trigger mode: 0
Integration Time (sec): 1.450000E-1
Scans to average: 20
Nonlinearity correction enabled: false
Boxcar width: 5
Storing dark spectrum: false
XAxis mode: Wavelengths
Number of Pixels in Spectrum: 512
>>>>>Begin Spectral Data<<<<<
187.83	193.7
188.298	214.75
188.766	183.92
189.233	159.55
189.701	158.87
190.169	168.17
190.636	186.35
191.104	301.43
191.571	411.66
192.039	232.44
192.506	-22.19
192.974	140.91
193.441	211.26
193.908	72.54
194.375	100.47
194.842	53.28
195.31	53.65
195.777	107.93
196.244	69.29
196.711	67.57
197.177	67.63
197.644	65.64
198.111	65.67
198.578	66.69
199.045	66.73
199.511	66.03
199.978	65.95
200.445	66.09
200.911	66.37
201.378	66.51
201.844	66.5
202.31	66.27
202.777	66.48
203.243	66.41
203.709	65.76
204.176	65.5
204.642	65.54
205.108	65.76
205.574	65.52
206.04	64.72
206.506	64.07
206.972	63.97
207.438	63.61
207.903	63.06
208.369	62.3
208.835	61.64
209.301	60.8
209.766	59.56
210.232	58.39
210.697	57.34
211.163	56.6
211.628	56.09
212.094	55.05
212.559	54.38
213.024	53.59
213.49	52.82
213.955	52.17
214.42	51.51
214.885	50.79
215.35	49.58
215.815	48.05
216.28	46.46
216.745	44.64
217.21	42.8
217.675	41.12
218.14	39.8
218.604	38.61
219.069	37.68
219.534	36.86
219.998	36.24
220.463	35.75
220.927	35.26
221.392	34.78
221.856	34.4
222.32	34.1
222.785	33.8
223.249	33.51
223.713	33.26
224.177	32.98
224.642	32.73
225.106	32.41
225.57	32.13
226.034	31.89
226.497	31.67
226.961	31.44
227.425	31.2
227.889	30.95
228.353	30.7
228.816	30.44
229.28	30.19
229.744	29.94
230.207	29.7
230.671	29.47
231.134	29.22
231.597	28.99
232.061	28.75
232.524	28.55
232.987	28.34
233.45	28.14
233.914	27.93
234.377	27.71
234.84	27.49
235.303	27.31
235.766	27.1
236.229	26.92
236.691	26.74
237.154	26.56
237.617	26.37
238.08	26.18
238.542	25.99
239.005	25.82
239.468	25.63
239.93	25.47
240.393	25.32
240.855	25.14
241.317	24.96
241.78	24.79
242.242	24.62
242.704	24.45
243.166	24.29
243.629	24.13
244.091	23.97
244.553	23.84
245.015	23.69
245.477	23.52
245.939	23.37
246.4	23.23
246.862	23.08
247.324	22.95
247.786	22.81
248.247	22.66
248.709	22.52
249.17	22.37
249.632	22.24
250.093	22.12
250.555	22
251.016	21.88
251.477	21.76
251.939	21.65
252.4	21.54
252.861	21.44
253.322	21.35
253.783	21.26
254.244	21.19
254.705	21.09
255.166	20.99
255.627	20.9
256.088	20.82
256.549	20.75
257.009	20.65
257.47	20.56
257.931	20.47
258.391	20.38
258.852	20.29
259.312	20.2
259.773	20.13
260.233	20.07
260.694	20
261.154	19.93
261.614	19.86
262.074	19.8
262.534	19.74
262.994	19.7
263.455	19.67
263.915	19.63
264.374	19.62
264.834	19.61
265.294	19.58
265.754	19.56
266.214	19.57
266.673	19.57
267.133	19.57
267.593	19.59
268.052	19.59
268.512	19.59
268.971	19.59
269.431	19.58
269.89	19.56
270.349	19.57
270.809	19.57
271.268	19.54
271.727	19.52
272.186	19.51
272.645	19.49
273.104	19.46
273.563	19.43
274.022	19.41
274.481	19.38
274.94	19.37
275.399	19.32
275.857	19.29
276.316	19.28
276.775	19.25
277.233	19.22
277.692	19.18
278.15	19.15
278.609	19.14
279.067	19.11
279.525	19.08
279.984	19.05
280.442	19.02
280.9	19
281.358	18.97
281.816	18.95
282.274	18.91
282.732	18.88
283.19	18.84
283.648	18.79
284.106	18.74
284.564	18.71
285.021	18.69
285.479	18.65
285.937	18.61
286.394	18.57
286.852	18.52
287.309	18.49
287.767	18.45
288.224	18.41
288.682	18.37
289.139	18.33
289.596	18.29
290.053	18.23
290.511	18.18
290.968	18.14
291.425	18.1
291.882	18.07
292.339	18.03
292.796	18
293.252	17.96
293.709	17.94
294.166	17.91
294.623	17.87
295.079	17.84
295.536	17.82
295.992	17.79
296.449	17.75
296.905	17.72
297.362	17.69
297.818	17.66
298.274	17.64
298.731	17.6
299.187	17.57
299.643	17.53
300.099	17.5
300.555	17.47
301.011	17.43
301.467	17.4
301.923	17.34
302.379	17.31
302.835	17.27
303.291	17.22
303.746	17.18
304.202	17.14
304.658	17.1
305.113	17.07
305.569	17.03
306.024	16.99
306.479	16.96
306.935	16.94
307.39	16.91
307.845	16.87
308.301	16.84
308.756	16.83
309.211	16.8
309.666	16.77
310.121	16.73
310.576	16.7
311.031	16.66
311.486	16.63
311.94	16.6
312.395	16.56
312.85	16.54
313.305	16.51
313.759	16.48
314.214	16.45
314.668	16.42
315.123	16.39
315.577	16.35
316.032	16.32
316.486	16.29
316.94	16.25
317.394	16.2
317.849	16.16
318.303	16.12
318.757	16.08
319.211	16.04
319.665	16
320.119	15.97
320.572	15.94
321.026	15.92
321.48	15.88
321.934	15.85
322.387	15.82
322.841	15.79
323.295	15.76
323.748	15.73
324.202	15.69
324.655	15.66
325.108	15.61
325.562	15.58
326.015	15.54
326.468	15.5
326.921	15.48
327.374	15.45
327.827	15.43
328.28	15.4
328.733	15.38
329.186	15.36
329.639	15.33
330.092	15.32
330.545	15.29
330.997	15.26
331.45	15.25
331.903	15.24
332.355	15.24
332.808	15.21
333.26	15.17
333.713	15.14
334.165	15.12
334.617	15.12
335.069	15.1
335.522	15.09
335.974	15.08
336.426	15.06
336.878	15.02
337.33	14.99
337.782	14.97
338.234	14.96
338.686	14.94
339.137	14.92
339.589	14.89
340.041	14.86
340.493	14.83
340.944	14.79
341.396	14.75
341.847	14.73
342.299	14.68
342.75	14.65
343.201	14.61
343.653	14.58
344.104	14.54
344.555	14.5
345.006	14.48
345.457	14.45
345.908	14.43
346.359	14.4
346.81	14.37
347.261	14.35
347.712	14.33
348.163	14.3
348.613	14.29
349.064	14.27
349.515	14.25
349.965	14.22
350.416	14.19
350.866	14.18
351.317	14.15
351.767	14.14
352.217	14.12
352.668	14.11
353.118	14.1
353.568	14.08
354.018	14.08
354.468	14.08
354.918	14.07
355.368	14.07
355.818	14.07
356.268	14.08
356.718	14.07
357.168	14.06
357.617	14.06
358.067	14.04
358.517	14.06
358.966	14.05
359.416	14.04
359.865	14.03
360.315	14.02
360.764	14.01
361.213	13.99
361.663	13.97
362.112	13.97
362.561	13.95
363.01	13.95
363.459	13.92
363.908	13.89
364.357	13.88
364.806	13.86
365.255	13.85
365.703	13.84
366.152	13.84
366.601	13.83
367.05	13.8
367.498	13.79
367.947	13.77
368.395	13.75
368.844	13.74
369.292	13.71
369.74	13.69
370.189	13.67
370.637	13.64
371.085	13.61
371.533	13.58
371.981	13.56
372.429	13.55
372.877	13.55
373.325	13.53
373.773	13.51
374.221	13.49
374.669	13.48
375.116	13.46
375.564	13.45
376.012	13.43
376.459	13.41
376.907	13.41
377.354	13.4
377.801	13.38
378.249	13.37
378.696	13.36
379.143	13.35
379.591	13.32
380.038	13.31
380.485	13.31
380.932	13.31
381.379	13.3
381.826	13.29
382.273	13.27
382.72	13.23
383.166	13.2
383.613	13.19
384.06	13.17
384.506	13.16
384.953	13.15
385.4	13.14
385.846	13.13
386.292	13.13
386.739	13.11
387.185	13.1
387.631	13.11
388.078	13.12
388.524	13.12
388.97	13.12
389.416	13.12
389.862	13.13
390.308	13.14
390.754	13.16
391.2	13.16
391.645	13.18
392.091	13.21
392.537	13.22
392.983	13.22
393.428	13.24
393.874	13.25
394.319	13.26
394.765	13.26
395.21	13.27
395.655	13.28
396.101	13.31
396.546	13.32
396.991	13.34
397.436	13.37
397.881	13.41
398.326	13.45
398.771	13.5
399.216	13.54
399.661	13.58
400.106	13.62
400.551	13.65
400.995	13.66
401.44	13.7
401.885	13.72
402.329	13.75
402.774	13.79
403.218	13.83
403.663	13.85
404.107	13.87
404.551	13.91
404.995	13.94
405.44	13.97
405.884	14.02
406.328	14.07
406.772	14.1
407.216	14.13
407.66	14.15
408.104	14.16
408.547	14.18
408.991	14.22
409.435	14.25
409.879	14.3
410.322	14.34
410.766	14.37
411.209	14.42
411.653	14.47
412.096	14.52
412.54	14.58
412.983	14.62
413.426	14.7
413.869	14.75
414.312	14.81
414.756	14.85
415.199	14.88
415.642	14.92
416.085	14.95
416.527	14.96
416.97	14.98
417.413	14.99
417.856	15.02
418.298	15.02
418.741	15.04
419.184	15.07
419.626	15.09
420.069	15.11
420.511	15.14
420.953	15.16
421.396	15.19
421.838	15.23
422.28	15.26
422.722	15.3
423.164	15.32
423.606	15.34
424.048	15.34
424.49	15.35
424.932	15.35
425.374	15.34
425.816	15.33
426.258	15.32
426.699	15.32
427.141	15.32
427.582	15.33
428.024	15.35
428.465	15.38
428.907	15.38
429.348	15.37
429.789	15.38
430.231	15.42
430.672	15.46
431.113	15.5
431.554	15.52
431.995	15.54
432.436	15.55
432.877	15.55
433.318	15.56
433.759	15.6
434.2	15.63
434.64	15.66
435.081	15.67
435.522	15.7
435.962	15.71
436.403	15.75
436.843	15.77
437.284	15.78
437.724	15.79
438.164	15.79
438.604	15.8
439.045	15.81
439.485	15.83
439.925	15.85
440.365	15.87
440.805	15.89
441.245	15.92
441.685	15.95
442.125	15.99
442.564	16.03
443.004	16.05
443.444	16.11
443.883	16.17
444.323	16.2
444.762	16.24
445.202	16.27
445.641	16.3
446.081	16.34
446.52	16.36
446.959	16.4
447.398	16.45
447.837	16.5
448.276	16.51
448.716	16.54
449.154	16.59
449.593	16.63
450.032	16.66
450.471	16.67
450.91	16.68
451.349	16.71
451.787	16.71
452.226	16.71
452.664	16.72
453.103	16.7
453.541	16.69
453.98	16.7
454.418	16.66
454.856	16.65
455.295	16.62
455.733	16.59
456.171	16.58
456.609	16.57
457.047	16.54
457.485	16.54
457.923	16.54
458.361	16.53
458.798	16.51
459.236	16.51
459.674	16.52
460.111	16.54
460.549	16.56
460.987	16.56
461.424	16.55
461.862	16.56
462.299	16.56
462.736	16.55
463.173	16.54
463.611	16.55
464.048	16.54
464.485	16.53
464.922	16.5
465.359	16.49
465.796	16.5
466.233	16.51
466.67	16.5
467.106	16.49
467.543	16.47
467.98	16.47
468.416	16.44
468.853	16.43
469.29	16.41
469.726	16.4
470.162	16.4
470.599	16.38
471.035	16.36
471.471	16.34
471.907	16.33
472.344	16.33
472.78	16.33
473.216	16.33
473.652	16.35
474.088	16.35
474.523	16.34
474.959	16.34
475.395	16.33
475.831	16.32
476.266	16.32
476.702	16.3
477.138	16.28
477.573	16.26
478.008	16.25
478.444	16.23
478.879	16.23
479.314	16.21
479.75	16.2
480.185	16.17
480.62	16.15
481.055	16.15
481.49	16.15
481.925	16.14
482.36	16.13
482.795	16.13
483.229	16.13
483.664	16.13
484.099	16.13
484.534	16.13
484.968	16.16
485.403	16.17
485.837	16.19
486.271	16.22
486.706	16.25
487.14	16.27
487.574	16.31
488.009	16.34
488.443	16.38
488.877	16.44
489.311	16.49
489.745	16.55
490.179	16.61
490.613	16.67
491.046	16.73
491.48	16.79
491.914	16.86
492.348	16.94
492.781	17.02
493.215	17.1
493.648	17.17
494.082	17.26
494.515	17.35
494.948	17.44
495.382	17.53
495.815	17.63
496.248	17.75
496.681	17.86
497.114	17.96
497.547	18.07
497.98	18.2
498.413	18.34
498.846	18.48
499.279	18.61
499.711	18.74
500.144	18.89
500.577	19.05
501.009	19.19
501.442	19.35
501.874	19.51
502.306	19.67
502.739	19.86
503.171	20.04
503.603	20.19
504.036	20.39
504.468	20.58
504.9	20.77
505.332	20.98
505.764	21.19
506.196	21.4
506.627	21.63
507.059	21.85
507.491	22.05
507.923	22.27
508.354	22.54
508.786	22.78
509.217	23.03
509.649	23.3
510.08	23.54
510.512	23.82
510.943	24.1
511.374	24.37
511.805	24.65
512.237	24.93
512.668	25.21
513.099	25.48
513.53	25.76
513.961	26.05
514.391	26.34
514.822	26.63
515.253	26.9
515.684	27.16
516.114	27.45
516.545	27.72
516.975	27.99
517.406	28.26
517.836	28.52
518.267	28.8
518.697	29.05
519.127	29.28
519.558	29.54
519.988	29.8
520.418	30.04
520.848	30.26
521.278	30.49
521.708	30.8
522.138	31.04
522.567	31.26
522.997	31.46
523.427	31.67
523.857	31.87
524.286	32.03
524.716	32.22
525.145	32.41
525.575	32.61
526.004	32.8
526.433	32.89
526.863	33.06
527.292	33.23
527.721	33.38
528.15	33.53
528.579	33.69
529.008	33.86
529.437	33.98
529.866	34.12
530.295	34.25
530.724	34.35
531.152	34.48
531.581	34.59
532.01	34.7
532.438	34.81
532.867	34.91
533.295	35.01
533.723	35.1
534.152	35.18
534.58	35.27
535.008	35.32
535.436	35.43
535.865	35.49
536.293	35.54
536.721	35.59
537.149	35.64
537.576	35.69
538.004	35.73
538.432	35.77
538.86	35.82
539.287	35.85
539.715	35.91
540.143	35.94
540.57	35.97
540.998	36.01
541.425	36.05
541.852	36.08
542.28	36.13
542.707	36.16
543.134	36.21
543.561	36.26
543.988	36.3
544.415	36.31
544.842	36.33
545.269	36.39
545.696	36.42
546.123	36.46
546.549	36.5
546.976	36.52
547.403	36.56
547.829	36.58
548.256	36.61
548.682	36.64
549.108	36.66
549.535	36.71
549.961	36.72
550.387	36.72
550.813	36.76
551.24	36.78
551.666	36.77
552.092	36.79
552.518	36.79
552.943	36.77
553.369	36.77
553.795	36.77
554.221	36.77
554.646	36.76
555.072	36.75
555.498	36.72
555.923	36.7
556.349	36.69
556.774	36.65
557.199	36.61
557.625	36.58
558.05	36.52
558.475	36.48
558.9	36.41
559.325	36.37
559.75	36.31
560.175	36.26
560.6	36.16
561.025	36.09
561.449	36.01
561.874	35.92
562.299	35.83
562.723	35.75
563.148	35.63
563.572	35.52
563.997	35.4
564.421	35.28
564.846	35.17
565.27	35.08
565.694	34.96
566.118	34.85
566.542	34.75
566.966	34.63
567.39	34.53
567.814	34.41
568.238	34.29
568.662	34.19
569.086	34.08
569.509	33.96
569.933	33.83
570.357	33.72
570.78	33.6
571.204	33.48
571.627	33.36
572.05	33.22
572.474	33.14
572.897	33.02
573.32	32.91
573.743	32.8
574.166	32.7
574.589	32.61
575.012	32.5
575.435	32.42
575.858	32.32
576.281	32.22
576.704	32.14
577.126	32.05
577.549	31.97
577.972	31.9
578.394	31.82
578.817	31.75
579.239	31.67
579.661	31.59
580.084	31.52
580.506	31.46
580.928	31.39
581.35	31.33
581.772	31.26
582.194	31.18
582.616	31.12
583.038	31.05
583.46	30.97
583.882	30.89
584.303	30.83
584.725	30.76
585.147	30.71
585.568	30.67
585.99	30.6
586.411	30.53
586.833	30.48
587.254	30.4
587.675	30.36
588.096	30.3
588.518	30.25
588.939	30.2
589.36	30.15
589.781	30.09
590.202	30.03
590.623	29.98
591.043	29.92
591.464	29.88
591.885	29.83
592.305	29.78
592.726	29.76
593.147	29.71
593.567	29.65
593.987	29.61
594.408	29.55
594.828	29.5
595.248	29.47
595.669	29.45
596.089	29.4
596.509	29.36
596.929	29.32
597.349	29.28
597.769	29.23
598.189	29.2
598.608	29.16
599.028	29.11
599.448	29.08
599.867	29.03
600.287	28.97
600.706	28.93
601.126	28.89
601.545	28.84
601.965	28.8
602.384	28.77
602.803	28.71
603.222	28.66
603.641	28.61
604.061	28.55
604.48	28.49
604.898	28.43
605.317	28.38
605.736	28.31
606.155	28.25
606.574	28.18
606.992	28.11
607.411	28.07
607.829	27.98
608.248	27.9
608.666	27.84
609.085	27.79
609.503	27.74
609.921	27.67
610.339	27.62
610.758	27.56
611.176	27.5
611.594	27.44
612.012	27.36
612.43	27.32
612.847	27.26
613.265	27.2
613.683	27.13
614.101	27.05
614.518	26.97
614.936	26.89
615.353	26.8
615.771	26.73
616.188	26.67
616.606	26.62
617.023	26.56
617.44	26.51
617.857	26.45
618.274	26.41
618.691	26.35
619.108	26.31
619.525	26.28
619.942	26.25
620.359	26.21
620.776	26.18
621.192	26.14
621.609	26.12
622.026	26.09
622.442	26.07
622.859	26.03
623.275	26.02
623.691	26
624.108	25.97
624.524	25.95
624.94	25.94
625.356	25.92
625.772	25.91
626.188	25.89
626.604	25.88
627.02	25.88
627.436	25.87
627.852	25.86
628.268	25.84
628.683	25.83
629.099	25.82
629.514	25.8
629.93	25.78
630.345	25.74
630.761	25.69
631.176	25.64
631.591	25.57
632.007	25.51
632.422	25.45
632.837	25.38
633.252	25.31
633.667	25.21
634.082	25.1
634.497	24.99
634.911	24.88
635.326	24.75
635.741	24.62
636.155	24.48
636.57	24.34
636.984	24.18
637.399	24.01
637.813	23.85
638.228	23.68
638.642	23.5
639.056	23.31
639.47	23.14
639.884	22.95
640.298	22.75
640.712	22.55
641.126	22.35
641.54	22.14
641.954	21.93
642.368	21.74
642.781	21.54
643.195	21.37
643.609	21.18
644.022	20.98
644.436	20.81
644.849	20.65
645.262	20.49
645.676	20.33
646.089	20.22
646.502	20.12
646.915	20
647.328	19.9
647.741	19.8
648.154	19.71
648.567	19.63
648.98	19.55
649.393	19.49
649.805	19.43
650.218	19.39
650.631	19.33
651.043	19.27
651.456	19.22
651.868	19.17
652.28	19.12
652.693	19.09
653.105	19.05
653.517	19.01
653.929	18.95
654.341	18.91
654.753	18.85
655.165	18.78
655.577	18.72
655.989	18.64
656.401	18.55
656.813	18.46
657.224	18.35
657.636	18.25
658.047	18.15
658.459	18.03
658.87	17.91
659.282	17.78
659.693	17.66
660.104	17.52
660.515	17.39
660.926	17.27
661.338	17.14
661.749	17.01
662.159	16.9
662.57	16.77
662.981	16.66
663.392	16.54
663.803	16.44
664.213	16.32
664.624	16.21
665.035	16.11
665.445	16.01
665.855	15.91
666.266	15.83
666.676	15.74
667.086	15.65
667.497	15.57
667.907	15.5
668.317	15.43
668.727	15.37
669.137	15.32
669.547	15.28
669.956	15.23
670.366	15.2
670.776	15.16
671.186	15.13
671.595	15.12
672.005	15.08
672.414	15.06
672.824	15.05
673.233	15.04
673.642	15.04
674.052	15.04
674.461	15.05
674.87	15.05
675.279	15.07
675.688	15.09
676.097	15.12
676.506	15.17
676.915	15.21
677.323	15.26
677.732	15.32
678.141	15.38
678.549	15.44
678.958	15.53
679.366	15.64
679.775	15.75
680.183	15.89
680.592	16.05
681	16.23
681.408	16.44
681.816	16.66
682.224	16.92
682.632	17.2
683.04	17.51
683.448	17.84
683.856	18.18
684.264	18.56
684.671	18.96
685.079	19.39
685.487	19.84
685.894	20.32
686.302	20.83
686.709	21.36
687.116	21.92
687.524	22.5
687.931	23.1
688.338	23.73
688.745	24.37
689.152	25.02
689.559	25.68
689.966	26.35
690.373	27.01
690.78	27.69
691.187	28.35
691.593	29.02
692	29.67
692.407	30.32
692.813	30.97
693.22	31.59
693.626	32.23
694.032	32.85
694.439	33.44
694.845	34.05
695.251	34.64
695.657	35.2
696.063	35.75
696.469	36.3
696.875	36.85
697.281	37.37
697.687	37.88
698.093	38.37
698.498	38.84
698.904	39.31
699.31	39.73
699.715	40.16
700.12	40.58
700.526	41
700.931	41.38
701.337	41.75
701.742	42.12
702.147	42.5
702.552	42.83
702.957	43.15
703.362	43.48
703.767	43.78
704.172	44.08
704.577	44.38
704.981	44.68
705.386	44.99
705.791	45.26
706.195	45.54
706.6	45.8
707.004	46.03
707.408	46.3
707.813	46.55
708.217	46.8
708.621	47.04
709.025	47.24
709.43	47.42
709.834	47.64
710.237	47.82
710.641	48
711.045	48.18
711.449	48.38
711.853	48.57
712.256	48.74
712.66	48.91
713.064	49.1
713.467	49.29
713.87	49.46
714.274	49.59
714.677	49.77
715.08	49.9
715.484	50.04
715.887	50.2
716.29	50.34
716.693	50.48
717.096	50.62
717.499	50.74
717.901	50.85
718.304	50.99
718.707	51.11
719.109	51.24
719.512	51.36
719.915	51.48
720.317	51.57
720.719	51.64
721.122	51.73
721.524	51.81
721.926	51.9
722.328	52.01
722.731	52.07
723.133	52.16
723.535	52.24
723.937	52.31
724.338	52.36
724.74	52.45
725.142	52.62
725.544	52.69
725.945	52.79
726.347	52.86
726.748	52.93
727.15	52.99
727.551	53.07
727.952	53.12
728.354	53.2
728.755	53.26
729.156	53.31
729.557	53.26
729.958	53.29
730.359	53.31
730.76	53.36
731.161	53.38
731.562	53.43
731.962	53.43
732.363	53.47
732.763	53.5
733.164	53.55
733.564	53.6
733.965	53.64
734.365	53.7
734.766	53.74
735.166	53.78
735.566	53.81
735.966	53.85
736.366	53.88
736.766	53.92
737.166	53.94
737.566	53.95
737.966	53.94
738.365	53.97
738.765	53.99
739.165	54
739.564	54.01
739.964	54.01
740.363	54.03
740.763	54.05
741.162	54.06
741.561	54.04
741.96	54.04
742.36	54.08
742.759	54.07
743.158	54.06
743.557	54.07
743.955	54.08
744.354	54.1
744.753	54.11
745.152	54.15
745.55	54.17
745.949	54.2
746.348	54.26
746.746	54.26
747.144	54.29
747.543	54.31
747.941	54.32
748.339	54.3
748.737	54.28
749.136	54.28
749.534	54.24
749.932	54.25
750.33	54.26
750.727	54.26
751.125	54.26
751.523	54.23
751.921	54.25
752.318	54.27
752.716	54.29
753.113	54.32
753.511	54.34
753.908	54.38
754.305	54.39
754.703	54.36
755.1	54.34
755.497	54.35
755.894	54.38
756.291	54.37
756.688	54.34
757.085	54.36
757.482	54.34
757.878	54.33
758.275	54.3
758.672	54.27
759.068	54.32
759.465	54.3
759.861	54.31
760.258	54.31
760.654	54.32
761.05	54.34
761.447	54.35
761.843	54.34
762.239	54.33
762.635	54.33
763.031	54.34
763.427	54.29
763.822	54.3
764.218	54.28
764.614	54.28
765.01	54.24
765.405	54.22
765.801	54.18
766.196	54.19
766.592	54.19
766.987	54.18
767.382	54.16
767.778	54.19
768.173	54.2
768.568	54.19
768.963	54.16
769.358	54.2
769.753	54.21
770.148	54.21
770.542	54.21
770.937	54.22
771.332	54.22
771.726	54.23
772.121	54.22
772.515	54.24
772.91	54.24
773.304	54.27
773.699	54.25
774.093	54.24
774.487	54.24
774.881	54.26
775.275	54.23
775.669	54.23
776.063	54.21
776.457	54.21
776.851	54.16
777.245	54.14
777.638	54.11
778.032	54.15
778.425	54.16
778.819	54.17
779.212	54.19
779.606	54.25
779.999	54.25
780.392	54.29
780.786	54.33
781.179	54.4
781.572	54.44
781.965	54.49
782.358	54.49
782.751	54.48
783.143	54.48
783.536	54.45
783.929	54.44
784.322	54.48
784.714	54.5
785.107	54.49
785.499	54.46
785.891	54.47
786.284	54.48
786.676	54.47
787.068	54.48
787.46	54.51
787.852	54.51
788.245	54.5
788.636	54.46
789.028	54.47
789.42	54.48
789.812	54.5
790.204	54.52
790.595	54.51
790.987	54.51
791.378	54.54
791.77	54.57
792.161	54.55
792.553	54.58
792.944	54.59
793.335	54.61
793.726	54.6
794.117	54.6
794.508	54.56
794.899	54.55
795.29	54.56
795.681	54.52
796.072	54.5
796.463	54.56
796.853	54.54
797.244	54.55
797.634	54.51
798.025	54.53
798.415	54.52
798.806	54.55
799.196	54.6
799.586	54.61
799.976	54.64
800.366	54.64
800.756	54.65
801.146	54.7
801.536	54.72
801.926	54.74
802.316	54.72
802.706	54.73
803.095	54.75
803.485	54.7
803.874	54.72
804.264	54.73
804.653	54.75
805.043	54.76
805.432	54.74
805.821	54.76
806.21	54.77
806.599	54.81
806.988	54.83
807.377	54.83
807.766	54.86
808.155	54.82
808.544	54.79
808.933	54.8
809.321	54.76
809.71	54.76
810.098	54.73
810.487	54.73
810.875	54.71
811.264	54.72
811.652	54.72
812.04	54.71
812.428	54.78
812.816	54.81
813.204	54.8
813.592	54.81
813.98	54.82
814.368	54.84
814.756	54.82
815.144	54.81
815.531	54.8
815.919	54.79
816.306	54.81
816.694	54.77
817.081	54.79
817.469	54.8
817.856	54.81
818.243	54.79
818.63	54.77
819.017	54.79
819.404	54.81
819.791	54.79
820.178	54.81
820.565	54.8
820.952	54.79
821.339	54.77
821.725	54.77
822.112	54.78
822.498	54.81
822.885	54.84
823.271	54.84
823.657	54.81
824.044	54.81
824.43	54.81
824.816	54.83
825.202	54.82
825.588	54.84
825.974	54.82
826.36	54.82
826.746	54.83
827.132	54.82
827.517	54.85
827.903	54.88
828.289	54.92
828.674	54.91
829.06	54.92
829.445	54.92
829.83	54.91
830.216	54.89
830.601	54.87
830.986	54.87
831.371	54.85
831.756	54.84
832.141	54.84
832.526	54.84
832.911	54.83
833.295	54.8
833.68	54.82
834.065	54.85
834.449	54.87
834.834	54.88
835.218	54.86
835.603	54.86
835.987	54.82
836.371	54.79
836.755	54.77
837.139	54.78
837.524	54.79
837.908	54.78
838.291	54.77
838.675	54.73
839.059	54.73
839.443	54.73
839.827	54.7
840.21	54.71
840.594	54.71
840.977	54.71
841.361	54.7
841.744	54.65
842.127	54.64
842.511	54.61
842.894	54.63
843.277	54.61
843.66	54.58
844.043	54.62
844.426	54.61
844.809	54.62
845.191	54.62
845.574	54.63
845.957	54.64
846.339	54.65
846.722	54.68
847.104	54.7
847.487	54.71
847.869	54.73
848.252	54.73
848.634	54.75
849.016	54.76
849.398	54.76
849.78	54.77
850.162	54.78
850.544	54.78
850.926	54.77
851.307	54.76
851.689	54.76
852.071	54.77
852.452	54.77
852.834	54.78
853.215	54.77
853.597	54.78
853.978	54.75
854.359	54.76
854.741	54.75
855.122	54.75
855.503	54.75
855.884	54.76
856.265	54.76
856.646	54.73
857.026	54.72
857.407	54.73
857.788	54.72
858.169	54.75
858.549	54.73
858.93	54.74
859.31	54.76
859.69	54.78
860.071	54.8
860.451	54.8
860.831	54.82
861.211	54.82
861.591	54.82
861.971	54.82
862.351	54.81
862.731	54.83
863.111	54.82
863.491	54.83
863.87	54.81
864.25	54.8
864.629	54.81
865.009	54.82
865.388	54.82
865.768	54.84
866.147	54.83
866.526	54.83
866.905	54.85
867.284	54.86
867.663	54.85
868.042	54.87
868.421	54.89
868.8	54.9
869.179	54.91
869.558	54.9
869.936	54.9
870.315	54.92
870.693	54.92
871.072	54.91
871.45	54.92
871.828	54.95
872.207	54.95
872.585	54.94
872.963	54.93
873.341	54.93
873.719	54.95
874.097	54.93
874.475	54.94
874.853	54.96
875.23	55
875.608	54.99
875.986	55.01
876.363	55.02
876.741	55.03
877.118	55.03
877.495	55.05
877.873	55.08
878.25	55.14
878.627	55.16
879.004	55.15
879.381	55.12
879.758	55.1
880.135	55.09
880.512	55.09
880.889	55.09
881.265	55.09
881.642	55.08
882.019	55.07
882.395	55.02
882.772	54.98
883.148	54.95
883.524	54.95
883.901	54.96
884.277	54.95
884.653	54.92
885.029	54.9
885.405	54.89
885.781	54.87
886.157	54.86
886.532	54.84
886.908	54.84
887.284	54.84
887.659	54.83
888.035	54.83
888.411	54.8
888.786	54.8
889.161	54.8
889.537	54.8
889.912	54.81
890.287	54.79
890.662	54.79
891.037	54.82
891.412	54.8
891.787	54.77
892.162	54.76
892.536	54.78
892.911	54.77
893.286	54.78
893.66	54.79
894.035	54.78
894.409	54.77
894.784	54.75
895.158	54.72
895.532	54.73
895.906	54.74
896.281	54.74
896.655	54.72
897.029	54.74
897.402	54.7
897.776	54.7
898.15	54.7
898.524	54.73
898.898	54.76
899.271	54.78
899.645	54.82
900.018	54.86
900.392	54.88
900.765	54.9
901.138	54.88
901.511	54.93
901.884	54.95
902.258	54.96
902.631	54.98
903.003	55
903.376	55.01
903.749	54.98
904.122	54.97
904.495	54.98
904.867	54.98
905.24	55.02
905.612	55.05
905.985	55.04
906.357	55.02
906.729	55
907.102	55.01
907.474	55.03
907.846	55.02
908.218	55.01
908.59	55.02
908.962	55.04
909.334	55.03
909.705	55.01
910.077	55.02
910.449	55.08
910.82	55.1
911.192	55.07
911.563	55.06
911.935	55.06
912.306	55.1
912.677	55.1
913.048	55.11
913.419	55.07
913.79	55.08
914.161	55.1
914.532	55.04
914.903	55.06
915.274	55.05
915.645	55.06
916.015	55.09
916.386	55.08
916.756	55.09
917.127	55.08
917.497	55.1
917.868	55.08
918.238	55.05
918.608	55.1
918.978	55.1
919.348	55.15
919.718	55.16
920.088	55.15
920.458	55.16
920.828	55.12
921.198	55.11
921.567	55.13
921.937	55.15
922.306	55.19
922.676	55.15
923.045	55.16
923.415	55.11
923.784	55.09
924.153	55.13
924.522	55.16
924.891	55.2
925.26	55.2
925.629	55.2
925.998	55.19
926.367	55.19
926.736	55.23
927.104	55.22
927.473	55.23
927.842	55.2
928.21	55.18
928.578	55.09
928.947	55.06
929.315	55.04
929.683	55.04
930.051	55.01
930.42	54.97
930.788	54.92
931.156	54.87
931.523	54.85
931.891	54.89
932.259	54.87
932.627	54.89
932.994	54.89
933.362	54.87
933.729	54.84
934.097	54.86
934.464	54.91
934.831	54.91
935.199	54.93
935.566	54.96
935.933	54.91
936.3	54.9
936.667	54.93
937.034	54.98
937.401	55.06
937.767	55.06
938.134	55.03
938.501	55.04
938.867	55.09
939.234	55.13
939.6	55.16
939.967	55.22
940.333	55.24
940.699	55.27
941.065	55.17
941.431	55.16
941.798	55.14
942.163	55.22
942.529	55.16
942.895	55.13
943.261	55.11
943.627	55.05
943.992	55.05
944.358	55.07
944.723	55.07
945.089	55.08
945.454	55.12
945.82	55.14
946.185	55.07
946.55	55.08
946.915	55.08
947.28	55.04
947.645	55.06
948.01	55.03
948.375	54.98
948.74	54.93
949.104	54.99
949.469	54.89
949.834	54.85
950.198	54.86
950.562	54.87
950.927	54.84
951.291	54.78
951.655	54.68
952.02	54.68
952.384	54.61
952.748	54.62
953.112	54.61
953.476	54.55
953.839	54.52
954.203	54.46
954.567	54.39
954.931	54.32
955.294	54.32
955.658	54.41
956.021	54.38
956.385	54.38
956.748	54.3
957.111	54.21
957.474	54.22
957.837	54.19
958.2	54.19
958.563	54.17
958.926	54.2
959.289	54.19
959.652	54.1
960.015	54.12
960.377	54.1
960.74	54.16
961.102	54.18
961.465	54.23
961.827	54.27
962.189	54.31
962.552	54.3
962.914	54.26
963.276	54.28
963.638	54.29
964	54.27
964.362	54.3
964.724	54.28
965.085	54.25
965.447	54.22
965.809	54.2
966.17	54.13
966.532	54.12
966.893	54.15
967.255	54.15
967.616	54.11
967.977	54.12
968.338	54.11
968.699	54.09
969.061	54.07
969.421	54.11
969.782	54.13
970.143	54.18
970.504	54.24
970.865	54.25
971.225	54.22
971.586	54.25
971.946	54.21
972.307	54.19
972.667	54.2
973.027	54.23
973.388	54.18
973.748	54.21
974.108	54.26
974.468	54.22
974.828	54.28
975.188	54.31
975.548	54.33
975.907	54.37
976.267	54.39
976.627	54.36
976.986	54.35
977.346	54.31
977.705	54.27
978.064	54.17
978.424	54.19
978.783	54.07
979.142	54.01
979.501	54.04
979.86	54.04
980.219	54.06
980.578	54.15
980.937	54.21
981.296	54.24
981.654	54.28
982.013	54.3
982.371	54.29
982.73	54.39
983.088	54.44
983.447	54.45
983.805	54.43
984.163	54.39
984.521	54.33
984.879	54.22
985.237	54.22
985.595	54.25
985.953	54.22
986.311	54.19
986.669	54.14
987.026	54.11
987.384	54.1
987.741	54.03
988.099	54.1
988.456	54.08
988.814	54.15
989.171	54.18
989.528	54.12
989.885	54.1
990.242	54.16
990.599	54.25
990.956	54.33
991.313	54.36
991.67	54.46
992.027	54.59
992.383	54.62
992.74	54.7
993.096	54.71
993.453	54.66
993.809	54.79
994.165	54.74
994.522	54.75
994.878	54.74
995.234	54.7
995.59	54.65
995.946	54.56
996.302	54.58
996.658	54.57
997.013	54.57
997.369	54.72
997.725	54.73
998.08	54.86
998.436	54.79
998.791	54.78
999.147	54.85
999.502	54.9
999.857	54.86
1000.212	54.82
1000.567	54.86
1000.922	54.82
1001.277	54.78
1001.632	54.71
1001.987	54.6
1002.342	54.66
1002.696	54.73
1003.051	54.81
1003.406	55
1003.76	55.09
1004.114	55.1
1004.469	55.18
1004.823	55.46
1005.177	55.45
1005.531	55.47
1005.885	55.61
1006.239	55.69
1006.593	55.74
1006.947	55.75
1007.301	55.56
1007.655	55.43
1008.008	55.46
1008.362	55.51
1008.715	55.47
1009.069	55.54
1009.422	55.65
1009.776	55.66
1010.129	55.73
1010.482	55.8
1010.835	55.71
1011.188	55.83
1011.541	55.93
1011.894	56.04
1012.247	56.02
1012.6	55.91
1012.952	55.89
1013.305	55.91
1013.657	55.9
1014.01	55.88
1014.362	55.66
1014.715	55.88
1015.067	55.98
1015.419	56.28
1015.771	56.19
1016.123	56.18
1016.475	56.27
1016.827	56.44
1017.179	56.5
1017.531	56.61
1017.883	56.52
1018.234	56.95
1018.586	56.86
1018.938	57
1019.289	56.66
1019.64	56.8
1019.992	56.81
1020.343	56.65
1020.694	56.71
1021.045	56.64
1021.396	56.61
1021.747	56.97
1022.098	56.96
1022.449	57.03
1022.8	56.95
1023.151	57.17
1023.501	57.29
1023.852	57.42
1024.202	57.72
1024.553	57.61
1024.903	57.82
1025.253	58.06
1025.604	57.95
1025.954	57.75
1026.304	57.96
1026.654	58.02
1027.004	58.2
1027.354	58.06
1027.703	58.09
1028.053	58.14
1028.403	58.65
1028.753	58.41
1029.102	58.38
1029.452	58.41
1029.801	58.56
1030.15	58.34
1030.499	58.3
897.758	1448.03
901.051	1454.79
904.343	1452.44
907.636	1477.58
910.928	1433.98
914.22	1434
917.511	1415.52
920.803	1357.52
924.094	1349.52
927.384	1320.93
930.675	1263.92
933.965	1257.02
937.255	1181.86
940.544	1133.82
943.834	1080.06
947.123	1073.84
950.411	1011.25
953.7	990
956.988	934.45
960.276	898.65
963.563	883.13
966.851	852.74
970.138	843.8
973.424	819.7
976.711	823.99
979.997	783.05
983.283	778.43
986.568	762.11
989.853	739.31
993.138	727.91
996.423	700.02
999.708	680.5
1002.992	672.96
1006.275	644.21
1009.559	636.94
1012.842	614.17
1016.125	597.15
1019.408	586.83
1022.69	578.95
1025.972	567.1
1029.254	553.65
1032.536	544.84
1035.817	534.25
1039.098	526.77
1042.379	515.86
1045.659	510.86
1048.939	497.42
1052.219	489.12
1055.498	480.23
1058.778	469.34
1062.057	458.34
1065.335	452.82
1068.614	447.51
1071.892	441.8
1075.17	428.04
1078.447	419.6
1081.724	417
1085.001	414.38
1088.278	405.13
1091.554	397.78
1094.83	398.42
1098.106	395.4
1101.382	392.03
1104.657	389.4
1107.932	383.6
1111.206	385.53
1114.481	376.14
1117.755	372.65
1121.029	369.47
1124.302	368.69
1127.575	362.36
1130.848	357.31
1134.121	354.3
1137.393	352.55
1140.665	344.34
1143.937	342.96
1147.208	339.93
1150.48	339.88
1153.75	335.04
1157.021	330.48
1160.291	330.95
1163.561	326.96
1166.831	327.05
1170.101	324.59
1173.37	323.49
1176.639	324.7
1179.907	321.53
1183.176	318.92
1186.444	317.54
1189.711	316.77
1192.979	316.54
1196.246	314.22
1199.513	315.35
1202.78	313.61
1206.046	313.42
1209.312	310.76
1212.578	311.23
1215.843	313.35
1219.108	310.69
1222.373	317.93
1225.638	320.37
1228.902	324.41
1232.166	325.31
1235.43	328.04
1238.693	331.72
1241.956	333.63
1245.219	338.81
1248.482	338.93
1251.744	338.52
1255.006	340.42
1258.268	332.58
1261.529	329.43
1264.79	326.43
1268.051	324.07
1271.312	320.35
1274.572	316.22
1277.832	313.55
1281.092	308.81
1284.351	306.19
1287.61	306.46
1290.869	301.21
1294.128	298.94
1297.386	299.6
1300.644	296.85
1303.902	298.52
1307.159	296.76
1310.416	297.62
1313.673	297.12
1316.93	299.44
1320.186	299.26
1323.442	300.38
1326.697	306.66
1329.953	307.77
1333.208	307.68
1336.463	311.12
1339.717	311.07
1342.972	314.69
1346.226	317.44
1349.479	317.64
1352.733	319.34
1355.986	320.62
1359.238	320.12
1362.491	321.89
1365.743	323.76
1368.995	325.08
1372.247	323.44
1375.498	323.54
1378.749	327.15
1382	321.82
1385.251	323.54
1388.501	321.88
1391.751	324.1
1395	322.47
1398.25	319.37
1401.499	318
1404.748	317.21
1407.996	315.38
1411.244	314.04
1414.492	311.33
1417.74	309.85
1420.987	304.88
1424.234	304.94
1427.481	300.05
1430.728	299.93
1433.974	296.96
1437.22	294.73
1440.465	294.08
1443.711	292.12
1446.956	290.52
1450.201	287.31
1453.445	284.56
1456.689	283.97
1459.933	278.89
1463.177	277.15
1466.42	272.79
1469.663	269.39
1472.906	267.9
1476.148	260.75
1479.391	257.36
1482.633	254.79
1485.874	250.58
1489.115	249.12
1492.356	245.82
1495.597	245.26
1498.838	241.66
1502.078	240.4
1505.318	239.46
1508.557	239.12
1511.797	239.2
1515.036	237.98
1518.274	237.49
1521.513	235.45
1524.751	235.04
1527.989	234.47
1531.227	233.52
1534.464	234.23
1537.701	231.77
1540.938	231.2
1544.174	228.76
1547.41	228.49
1550.646	227.05
1553.882	227.04
1557.117	224.15
1560.352	222.99
1563.587	222.45
1566.821	220.76
1570.055	218.18
1573.289	217.01
1576.523	216.98
1579.756	214.5
1582.989	213.45
1586.222	213.93
1589.454	211.56
1592.686	213.66
1595.918	212.22
1599.15	211.37
1602.381	212.2
1605.612	212.38
1608.843	213.4
1612.073	212.96
1615.303	214.58
1618.533	214.3
1621.762	213.74
1624.992	214.6
1628.221	214.34
1631.449	214.56
1634.678	213.93
1637.906	214.66
1641.134	214.37
1644.361	213.83
1647.588	214.25
1650.815	213.45
1654.042	212.87
1657.269	214.03
1660.495	214.23
1663.72	213.18
1666.946	214.23
1670.171	214.94
1673.396	214.26
1676.621	214.57
1679.845	214.98
1683.069	215.2
1686.293	217.01
1689.517	218.04
1692.74	217.67
1695.963	218.34
1699.185	220.56
1702.408	220.49
1705.63	221.32
1708.852	221.91
1712.073	222.48
1715.294	222.83
1718.515	224.48
1721.736	223.6
1724.956	224.13
1728.176	223.91
1731.396	226.17
1734.616	225.29
1737.835	225.98
1741.054	224.77
1744.272	224.99
1747.491	227.42
1750.709	227.54
1753.927	226.83
1757.144	226.5
1760.361	227.62
1763.578	228.29
1766.795	227.09
1770.011	229.05
1773.227	229.19
1776.443	231.71
1779.658	233.14
1782.874	232.38
1786.089	233.81
1789.303	234.3
1792.518	236.93
1795.732	236.76
1798.945	239.52
1802.159	239.58
1805.372	240.02
1808.585	244.09
1811.797	244.75
1815.01	245.23
1818.222	247.04
1821.434	248.56
1824.645	250.12
1827.856	253.82
1831.067	256.23
1834.278	255.07
1837.488	257.27
1840.698	258.92
1843.908	256.37
1847.117	258.07
1850.326	259.62
1853.535	258.92
1856.744	262.72
1859.952	262.17
1863.16	260.98
1866.368	259.13
1869.575	262.26
1872.782	258
1875.989	257.3
1879.196	256.25
1882.402	254.42
1885.608	255.04
1888.814	255.21
1892.019	254.52
1895.224	253.57
1898.429	252.07
1901.634	252.96
1904.838	252.61
1908.042	255.97
1911.246	256.64
1914.449	258.23
1917.652	258.37
1920.855	258.42
1924.058	258.11
1927.26	256.49
1930.462	257.54
1933.664	260.91
1936.865	259.13
1940.066	258.53
1943.267	256.62
1946.467	256.17
1949.668	257.95
1952.868	260.99
1956.067	260.58
1959.267	261.5
1962.466	262.42
1965.665	260.7
1968.863	261.19
1972.061	264.67
1975.259	267.42
1978.457	269.61
1981.654	272.76
1984.852	273.16
1988.048	272.23
1991.245	274.56
1994.441	277.74
1997.637	279.45
2000.833	285.91
2004.028	288.86
2007.223	290.61
2010.418	293.38
2013.613	298.23
2016.807	300.31
2020.001	303.37
2023.194	307.18
2026.388	313.99
2029.581	320.29
2032.774	323.24
2035.966	328.88
2039.158	329.76
2042.35	335.74
2045.542	338.76
2048.733	343.65
2051.924	348.31
2055.115	354.37
2058.306	355.68
2061.496	359.55
2064.686	359.41
2067.875	365.53
2071.065	367.24
2074.254	365.98
2077.442	370.17
2080.631	370.79
2083.819	374.85
2087.007	376.57
2090.195	379.5
2093.382	383.13
2096.569	380.66
2099.756	386.39
2102.942	387.64
2106.128	391.75
2109.314	399.4
2112.5	398.15
2115.685	406.95
2118.87	407.41
2122.055	414.72
2125.239	418.01
2128.424	422.38
2131.608	426.11
2134.791	432.17
2137.974	433.42
2141.157	434.07
2144.34	435.88
2147.523	443.03
2150.705	439.82
2153.887	443.58
2157.068	443.71
2160.25	440.78
2163.431	443.44
2166.611	447.53
2169.792	456.93
2172.972	461.78
2176.152	464.74
2179.331	471.06
2182.511	478.26
2185.69	484.27
2188.868	494.07
2192.047	495.13
2195.225	508.83
2198.403	521.67
2201.58	531.06
2204.758	539.58
2207.935	551.8
2211.111	561.16
2214.288	566.61
2217.464	568.97
2220.64	577.25
2223.815	585.07
2226.991	608.86
2230.166	609.71
2233.34	620.34
2236.515	631
2239.689	630.22
2242.863	633.52
2246.036	651.93
2249.209	647.22
2252.382	657.77
2255.555	678.07
2258.727	680.39
2261.9	682.69
2265.071	689.76
2268.243	700.16
2271.414	708.35
2274.585	725.26
2277.756	732.84
2280.926	737.53
2284.096	756.17
2287.266	773.32
2290.436	777.65
2293.605	797.3
2296.774	823.64
2299.942	848.57
2303.111	852.35
2306.279	871.35
2309.447	884.03
2312.614	906.32
2315.781	931.18
2318.948	974.19
2322.115	959.5
2325.281	1008.72
2328.447	987.91
2331.613	1028.33
2334.779	1017.69
2337.944	1062.81
2341.109	1072.88
2344.274	1101.61
2347.438	1140.79
2350.602	1138.88
2353.766	1173.63
2356.929	1190.51
2360.092	1183.5
2363.255	1265.93
2366.418	1260
2369.58	1285.75
2372.742	1369.06
2375.904	1403.72
2379.066	1393.43
2382.227	1361.83
2385.388	1481.49
2388.548	1478.87
2391.709	1497.92
2394.869	1669.25
2398.029	1603.55
2401.188	1649.76
2404.347	1638.42
2407.506	1604.93
2410.665	1648.69
2413.823	1750.74
2416.981	1858.65
2420.139	1795.12
2423.296	1779.94
2426.453	1853.56
2429.61	1786.21
2432.767	1865.64
2435.923	1849.33
2439.079	2018.08
2442.235	2043.06
2445.391	2027.26
2448.546	2012.76
2451.701	1956.15
2454.855	1953.23
2458.009	2075.03
2461.163	2160.79
2464.317	2233.07
2467.471	2292.05
2470.624	2291.62
2473.777	2233.48
2476.929	2182.22
2480.082	2119.59
2483.234	2094.47
2486.385	2194.34
2489.537	2205.68
2492.688	2281.15
2495.839	2222.94
2498.989	2179.15
2502.14	2186
2505.29	2209.05
2508.439	2250.13
2511.589	2242.15
2514.738	2442.54
2517.887	2384.54
2521.035	2535.74
2524.183	2556.43
2527.331	2571.19
2530.479	2558.93
2533.627	2577.84
