Data from N_2_DEC_VA_2N_Splice17_13-07-27-405.txt Node
Date: Sat Mar 07 13:07:27 EST 2020
User: sa697716
Spectrometer: NQ5500242
Trigger mode: 0
Integration Time (sec): 1.450000E-1
Scans to average: 20
Nonlinearity correction enabled: false
Boxcar width: 5
Storing dark spectrum: false
XAxis mode: Wavelengths
Number of Pixels in Spectrum: 512
>>>>>Begin Spectral Data<<<<<
187.83	228.72
188.298	230.62
188.766	225.77
189.233	192.81
189.701	196.41
190.169	220.84
190.636	241.65
191.104	334.97
191.571	221.45
192.039	3.6
192.506	-351.06
192.974	140.35
193.441	132.24
193.908	98.56
194.375	117.6
194.842	40.97
195.31	-4.85
195.777	-129
196.244	21.97
196.711	32.58
197.177	36.83
197.644	36.57
198.111	37.12
198.578	37.37
199.045	38.17
199.511	38.17
199.978	38.39
200.445	39.19
200.911	39.35
201.378	39.59
201.844	39.79
202.31	39.16
202.777	39.33
203.243	39.27
203.709	39.26
204.176	38.74
204.642	38.4
205.108	38.29
205.574	37.77
206.04	37.14
206.506	36.79
206.972	36.79
207.438	36.7
207.903	36.03
208.369	35.29
208.835	34.69
209.301	33.97
209.766	32.94
210.232	32.12
210.697	31.2
211.163	30.55
211.628	29.81
212.094	28.83
212.559	28.5
213.024	27.71
213.49	27.19
213.955	26.3
214.42	25.68
214.885	25.16
215.35	24.21
215.815	23.2
216.28	21.61
216.745	19.87
217.21	18.2
217.675	16.56
218.14	15.36
218.604	14.16
219.069	13.22
219.534	12.45
219.998	11.76
220.463	11.22
220.927	10.67
221.392	10.3
221.856	9.97
222.32	9.7
222.785	9.45
223.249	9.21
223.713	9.01
224.177	8.83
224.642	8.68
225.106	8.51
225.57	8.33
226.034	8.19
226.497	8.05
226.961	7.92
227.425	7.79
227.889	7.66
228.353	7.54
228.816	7.42
229.28	7.3
229.744	7.18
230.207	7.06
230.671	6.96
231.134	6.86
231.597	6.78
232.061	6.68
232.524	6.6
232.987	6.52
233.45	6.46
233.914	6.36
234.377	6.28
234.84	6.19
235.303	6.16
235.766	6.11
236.229	6.04
236.691	5.97
237.154	5.92
237.617	5.86
238.08	5.81
238.542	5.74
239.005	5.7
239.468	5.66
239.93	5.61
240.393	5.55
240.855	5.47
241.317	5.42
241.78	5.37
242.242	5.32
242.704	5.26
243.166	5.21
243.629	5.18
244.091	5.13
244.553	5.08
245.015	5.02
245.477	4.97
245.939	4.93
246.4	4.89
246.862	4.85
247.324	4.8
247.786	4.76
248.247	4.71
248.709	4.66
249.17	4.61
249.632	4.59
250.093	4.57
250.555	4.53
251.016	4.5
251.477	4.46
251.939	4.43
252.4	4.41
252.861	4.38
253.322	4.36
253.783	4.34
254.244	4.32
254.705	4.28
255.166	4.24
255.627	4.22
256.088	4.19
256.549	4.17
257.009	4.14
257.47	4.11
257.931	4.07
258.391	4.03
258.852	4
259.312	3.97
259.773	3.94
260.233	3.93
260.694	3.91
261.154	3.88
261.614	3.86
262.074	3.83
262.534	3.82
262.994	3.8
263.455	3.78
263.915	3.77
264.374	3.75
264.834	3.73
265.294	3.72
265.754	3.7
266.214	3.69
266.673	3.68
267.133	3.67
267.593	3.66
268.052	3.65
268.512	3.64
268.971	3.64
269.431	3.63
269.89	3.62
270.349	3.62
270.809	3.6
271.268	3.6
271.727	3.59
272.186	3.59
272.645	3.58
273.104	3.57
273.563	3.56
274.022	3.56
274.481	3.56
274.94	3.55
275.399	3.54
275.857	3.54
276.316	3.53
276.775	3.52
277.233	3.51
277.692	3.51
278.15	3.5
278.609	3.5
279.067	3.49
279.525	3.48
279.984	3.48
280.442	3.47
280.9	3.47
281.358	3.46
281.816	3.46
282.274	3.45
282.732	3.44
283.19	3.43
283.648	3.42
284.106	3.41
284.564	3.4
285.021	3.39
285.479	3.39
285.937	3.38
286.394	3.38
286.852	3.36
287.309	3.35
287.767	3.34
288.224	3.33
288.682	3.31
289.139	3.3
289.596	3.29
290.053	3.27
290.511	3.25
290.968	3.24
291.425	3.22
291.882	3.21
292.339	3.2
292.796	3.2
293.252	3.19
293.709	3.19
294.166	3.18
294.623	3.17
295.079	3.17
295.536	3.17
295.992	3.16
296.449	3.15
296.905	3.15
297.362	3.14
297.818	3.13
298.274	3.12
298.731	3.11
299.187	3.1
299.643	3.09
300.099	3.08
300.555	3.07
301.011	3.06
301.467	3.06
301.923	3.05
302.379	3.04
302.835	3.05
303.291	3.05
303.746	3.04
304.202	3.04
304.658	3.04
305.113	3.03
305.569	3.03
306.024	3.03
306.479	3.02
306.935	3.02
307.39	3.02
307.845	3.02
308.301	3.02
308.756	3.02
309.211	3.02
309.666	3.03
310.121	3.03
310.576	3.03
311.031	3.02
311.486	3.03
311.94	3.03
312.395	3.03
312.85	3.03
313.305	3.02
313.759	3.03
314.214	3.02
314.668	3.01
315.123	3.01
315.577	3
316.032	2.99
316.486	2.98
316.94	2.97
317.394	2.95
317.849	2.94
318.303	2.94
318.757	2.92
319.211	2.91
319.665	2.89
320.119	2.88
320.572	2.87
321.026	2.87
321.48	2.86
321.934	2.85
322.387	2.85
322.841	2.84
323.295	2.85
323.748	2.85
324.202	2.85
324.655	2.85
325.108	2.85
325.562	2.86
326.015	2.86
326.468	2.85
326.921	2.85
327.374	2.85
327.827	2.85
328.28	2.85
328.733	2.85
329.186	2.85
329.639	2.85
330.092	2.85
330.545	2.84
330.997	2.84
331.45	2.84
331.903	2.85
332.355	2.85
332.808	2.85
333.26	2.84
333.713	2.84
334.165	2.84
334.617	2.84
335.069	2.83
335.522	2.82
335.974	2.82
336.426	2.82
336.878	2.81
337.33	2.81
337.782	2.8
338.234	2.81
338.686	2.81
339.137	2.81
339.589	2.81
340.041	2.81
340.493	2.81
340.944	2.8
341.396	2.8
341.847	2.79
342.299	2.78
342.75	2.77
343.201	2.75
343.653	2.74
344.104	2.73
344.555	2.71
345.006	2.7
345.457	2.69
345.908	2.69
346.359	2.68
346.81	2.68
347.261	2.67
347.712	2.67
348.163	2.67
348.613	2.68
349.064	2.68
349.515	2.68
349.965	2.69
350.416	2.68
350.866	2.68
351.317	2.67
351.767	2.67
352.217	2.68
352.668	2.68
353.118	2.67
353.568	2.66
354.018	2.67
354.468	2.67
354.918	2.67
355.368	2.67
355.818	2.66
356.268	2.67
356.718	2.67
357.168	2.66
357.617	2.65
358.067	2.65
358.517	2.66
358.966	2.67
359.416	2.67
359.865	2.67
360.315	2.67
360.764	2.68
361.213	2.68
361.663	2.68
362.112	2.69
362.561	2.7
363.01	2.7
363.459	2.68
363.908	2.67
364.357	2.68
364.806	2.68
365.255	2.67
365.703	2.67
366.152	2.68
366.601	2.68
367.05	2.69
367.498	2.68
367.947	2.69
368.395	2.71
368.844	2.71
369.292	2.71
369.74	2.72
370.189	2.73
370.637	2.74
371.085	2.74
371.533	2.74
371.981	2.75
372.429	2.77
372.877	2.78
373.325	2.79
373.773	2.81
374.221	2.83
374.669	2.84
375.116	2.86
375.564	2.88
376.012	2.91
376.459	2.95
376.907	2.98
377.354	3.01
377.801	3.05
378.249	3.09
378.696	3.13
379.143	3.17
379.591	3.22
380.038	3.26
380.485	3.32
380.932	3.37
381.379	3.42
381.826	3.49
382.273	3.54
382.72	3.59
383.166	3.65
383.613	3.71
384.06	3.77
384.506	3.85
384.953	3.93
385.4	3.99
385.846	4.07
386.292	4.14
386.739	4.2
387.185	4.27
387.631	4.35
388.078	4.43
388.524	4.51
388.97	4.59
389.416	4.66
389.862	4.74
390.308	4.82
390.754	4.89
391.2	4.97
391.645	5.05
392.091	5.13
392.537	5.21
392.983	5.28
393.428	5.36
393.874	5.43
394.319	5.5
394.765	5.56
395.21	5.61
395.655	5.67
396.101	5.72
396.546	5.76
396.991	5.8
397.436	5.84
397.881	5.89
398.326	5.94
398.771	5.98
399.216	6.02
399.661	6.05
400.106	6.09
400.551	6.11
400.995	6.12
401.44	6.14
401.885	6.15
402.329	6.16
402.774	6.16
403.218	6.17
403.663	6.19
404.107	6.19
404.551	6.18
404.995	6.18
405.44	6.16
405.884	6.14
406.328	6.14
406.772	6.11
407.216	6.11
407.66	6.08
408.104	6.05
408.547	6.01
408.991	5.98
409.435	5.95
409.879	5.93
410.322	5.92
410.766	5.92
411.209	5.92
411.653	5.93
412.096	5.92
412.54	5.91
412.983	5.91
413.426	5.92
413.869	5.92
414.312	5.93
414.756	5.93
415.199	5.92
415.642	5.9
416.085	5.88
416.527	5.85
416.97	5.81
417.413	5.79
417.856	5.77
418.298	5.74
418.741	5.73
419.184	5.7
419.626	5.68
420.069	5.67
420.511	5.66
420.953	5.65
421.396	5.64
421.838	5.63
422.28	5.63
422.722	5.63
423.164	5.61
423.606	5.59
424.048	5.56
424.49	5.54
424.932	5.52
425.374	5.46
425.816	5.4
426.258	5.37
426.699	5.35
427.141	5.31
427.582	5.29
428.024	5.28
428.465	5.26
428.907	5.23
429.348	5.2
429.789	5.17
430.231	5.19
430.672	5.21
431.113	5.2
431.554	5.2
431.995	5.19
432.436	5.18
432.877	5.17
433.318	5.18
433.759	5.2
434.2	5.21
434.64	5.23
435.081	5.23
435.522	5.23
435.962	5.25
436.403	5.28
436.843	5.31
437.284	5.32
437.724	5.35
438.164	5.36
438.604	5.39
439.045	5.41
439.485	5.45
439.925	5.48
440.365	5.52
440.805	5.55
441.245	5.61
441.685	5.64
442.125	5.72
442.564	5.76
443.004	5.83
443.444	5.89
443.883	5.97
444.323	6.04
444.762	6.11
445.202	6.18
445.641	6.26
446.081	6.32
446.52	6.4
446.959	6.48
447.398	6.55
447.837	6.61
448.276	6.68
448.716	6.75
449.154	6.83
449.593	6.9
450.032	6.95
450.471	7.01
450.91	7.06
451.349	7.12
451.787	7.16
452.226	7.22
452.664	7.28
453.103	7.31
453.541	7.35
453.98	7.38
454.418	7.41
454.856	7.43
455.295	7.45
455.733	7.44
456.171	7.45
456.609	7.47
457.047	7.46
457.485	7.46
457.923	7.48
458.361	7.48
458.798	7.48
459.236	7.48
459.674	7.49
460.111	7.49
460.549	7.51
460.987	7.52
461.424	7.53
461.862	7.54
462.299	7.55
462.736	7.55
463.173	7.54
463.611	7.54
464.048	7.56
464.485	7.57
464.922	7.57
465.359	7.58
465.796	7.59
466.233	7.6
466.67	7.61
467.106	7.62
467.543	7.61
467.98	7.61
468.416	7.62
468.853	7.61
469.29	7.6
469.726	7.6
470.162	7.59
470.599	7.58
471.035	7.58
471.471	7.57
471.907	7.57
472.344	7.6
472.78	7.61
473.216	7.61
473.652	7.62
474.088	7.62
474.523	7.65
474.959	7.67
475.395	7.67
475.831	7.69
476.266	7.7
476.702	7.71
477.138	7.72
477.573	7.72
478.008	7.75
478.444	7.76
478.879	7.77
479.314	7.78
479.75	7.79
480.185	7.79
480.62	7.8
481.055	7.81
481.49	7.82
481.925	7.84
482.36	7.87
482.795	7.89
483.229	7.92
483.664	7.95
484.099	7.99
484.534	8.03
484.968	8.09
485.403	8.16
485.837	8.22
486.271	8.29
486.706	8.36
487.14	8.44
487.574	8.51
488.009	8.6
488.443	8.69
488.877	8.79
489.311	8.9
489.745	9
490.179	9.11
490.613	9.22
491.046	9.34
491.48	9.47
491.914	9.6
492.348	9.75
492.781	9.9
493.215	10.05
493.648	10.21
494.082	10.37
494.515	10.53
494.948	10.7
495.382	10.88
495.815	11.08
496.248	11.27
496.681	11.46
497.114	11.67
497.547	11.88
497.98	12.09
498.413	12.3
498.846	12.54
499.279	12.77
499.711	13.01
500.144	13.26
500.577	13.52
501.009	13.76
501.442	14.04
501.874	14.32
502.306	14.6
502.739	14.91
503.171	15.22
503.603	15.51
504.036	15.83
504.468	16.14
504.9	16.44
505.332	16.75
505.764	17.09
506.196	17.41
506.627	17.76
507.059	18.09
507.491	18.42
507.923	18.77
508.354	19.14
508.786	19.5
509.217	19.87
509.649	20.26
510.08	20.63
510.512	21
510.943	21.36
511.374	21.73
511.805	22.11
512.237	22.47
512.668	22.83
513.099	23.17
513.53	23.52
513.961	23.87
514.391	24.22
514.822	24.58
515.253	24.92
515.684	25.26
516.114	25.6
516.545	25.92
516.975	26.24
517.406	26.57
517.836	26.89
518.267	27.21
518.697	27.51
519.127	27.79
519.558	28.08
519.988	28.38
520.418	28.65
520.848	28.92
521.278	29.19
521.708	29.53
522.138	29.77
522.567	30.01
522.997	30.24
523.427	30.48
523.857	30.71
524.286	30.91
524.716	31.1
525.145	31.31
525.575	31.49
526.004	31.69
526.433	31.78
526.863	31.96
527.292	32.13
527.721	32.28
528.15	32.39
528.579	32.53
529.008	32.67
529.437	32.79
529.866	32.91
530.295	33.01
530.724	33.11
531.152	33.23
531.581	33.33
532.01	33.42
532.438	33.52
532.867	33.62
533.295	33.72
533.723	33.8
534.152	33.87
534.58	33.94
535.008	33.99
535.436	34.05
535.865	34.1
536.293	34.14
536.721	34.2
537.149	34.24
537.576	34.28
538.004	34.33
538.432	34.36
538.86	34.39
539.287	34.42
539.715	34.48
540.143	34.5
540.57	34.53
540.998	34.55
541.425	34.56
541.852	34.58
542.28	34.6
542.707	34.61
543.134	34.65
543.561	34.68
543.988	34.69
544.415	34.69
544.842	34.73
545.269	34.75
545.696	34.76
546.123	34.78
546.549	34.79
546.976	34.81
547.403	34.82
547.829	34.82
548.256	34.82
548.682	34.82
549.108	34.83
549.535	34.84
549.961	34.83
550.387	34.84
550.813	34.84
551.24	34.82
551.666	34.81
552.092	34.81
552.518	34.8
552.943	34.77
553.369	34.76
553.795	34.74
554.221	34.71
554.646	34.7
555.072	34.68
555.498	34.65
555.923	34.63
556.349	34.59
556.774	34.52
557.199	34.47
557.625	34.42
558.05	34.37
558.475	34.31
558.9	34.25
559.325	34.2
559.75	34.12
560.175	34.06
560.6	33.97
561.025	33.91
561.449	33.84
561.874	33.76
562.299	33.68
562.723	33.59
563.148	33.49
563.572	33.37
563.997	33.26
564.421	33.16
564.846	33.06
565.27	32.95
565.694	32.86
566.118	32.74
566.542	32.63
566.966	32.52
567.39	32.42
567.814	32.31
568.238	32.2
568.662	32.11
569.086	31.97
569.509	31.87
569.933	31.77
570.357	31.64
570.78	31.53
571.204	31.41
571.627	31.3
572.05	31.17
572.474	31.07
572.897	30.98
573.32	30.85
573.743	30.75
574.166	30.63
574.589	30.52
575.012	30.41
575.435	30.29
575.858	30.21
576.281	30.1
576.704	30.01
577.126	29.89
577.549	29.78
577.972	29.68
578.394	29.56
578.817	29.47
579.239	29.36
579.661	29.26
580.084	29.18
580.506	29.08
580.928	28.99
581.35	28.91
581.772	28.81
582.194	28.74
582.616	28.67
583.038	28.61
583.46	28.52
583.882	28.47
584.303	28.39
584.725	28.31
585.147	28.25
585.568	28.19
585.99	28.13
586.411	28.06
586.833	27.99
587.254	27.92
587.675	27.86
588.096	27.8
588.518	27.75
588.939	27.71
589.36	27.64
589.781	27.58
590.202	27.54
590.623	27.48
591.043	27.42
591.464	27.38
591.885	27.33
592.305	27.31
592.726	27.28
593.147	27.22
593.567	27.18
593.987	27.14
594.408	27.1
594.828	27.07
595.248	27.04
595.669	27.02
596.089	26.97
596.509	26.94
596.929	26.9
597.349	26.85
597.769	26.81
598.189	26.76
598.608	26.73
599.028	26.7
599.448	26.64
599.867	26.59
600.287	26.55
600.706	26.52
601.126	26.46
601.545	26.42
601.965	26.39
602.384	26.34
602.803	26.29
603.222	26.23
603.641	26.16
604.061	26.11
604.48	26.04
604.898	25.96
605.317	25.89
605.736	25.83
606.155	25.74
606.574	25.63
606.992	25.55
607.411	25.47
607.829	25.35
608.248	25.25
608.666	25.17
609.085	25.09
609.503	25.01
609.921	24.92
610.339	24.83
610.758	24.75
611.176	24.68
611.594	24.6
612.012	24.51
612.43	24.46
612.847	24.38
613.265	24.29
613.683	24.18
614.101	24.09
614.518	23.98
614.936	23.89
615.353	23.79
615.771	23.71
616.188	23.62
616.606	23.53
617.023	23.46
617.44	23.39
617.857	23.32
618.274	23.25
618.691	23.18
619.108	23.13
619.525	23.07
619.942	23.02
620.359	22.96
620.776	22.91
621.192	22.88
621.609	22.84
622.026	22.78
622.442	22.75
622.859	22.72
623.275	22.7
623.691	22.67
624.108	22.64
624.524	22.61
624.94	22.6
625.356	22.57
625.772	22.54
626.188	22.53
626.604	22.52
627.02	22.5
627.436	22.47
627.852	22.46
628.268	22.45
628.683	22.43
629.099	22.42
629.514	22.41
629.93	22.39
630.345	22.35
630.761	22.3
631.176	22.25
631.591	22.19
632.007	22.14
632.422	22.08
632.837	21.99
633.252	21.89
633.667	21.8
634.082	21.68
634.497	21.59
634.911	21.48
635.326	21.36
635.741	21.24
636.155	21.11
636.57	20.96
636.984	20.8
637.399	20.64
637.813	20.5
638.228	20.31
638.642	20.15
639.056	19.95
639.47	19.77
639.884	19.59
640.298	19.39
640.712	19.2
641.126	19.01
641.54	18.81
641.954	18.61
642.368	18.4
642.781	18.21
643.195	18.02
643.609	17.82
644.022	17.63
644.436	17.44
644.849	17.26
645.262	17.08
645.676	16.91
646.089	16.75
646.502	16.6
646.915	16.47
647.328	16.34
647.741	16.21
648.154	16.1
648.567	16
648.98	15.9
649.393	15.8
649.805	15.72
650.218	15.62
650.631	15.54
651.043	15.45
651.456	15.36
651.868	15.26
652.28	15.19
652.693	15.11
653.105	15.03
653.517	14.92
653.929	14.82
654.341	14.71
654.753	14.58
655.165	14.44
655.577	14.32
655.989	14.17
656.401	14.03
656.813	13.87
657.224	13.68
657.636	13.48
658.047	13.32
658.459	13.12
658.87	12.91
659.282	12.72
659.693	12.53
660.104	12.32
660.515	12.11
660.926	11.9
661.338	11.68
661.749	11.48
662.159	11.27
662.57	11.06
662.981	10.86
663.392	10.66
663.803	10.47
664.213	10.28
664.624	10.1
665.035	9.91
665.445	9.74
665.855	9.58
666.266	9.42
666.676	9.29
667.086	9.15
667.497	9.02
667.907	8.89
668.317	8.78
668.727	8.68
669.137	8.59
669.547	8.51
669.956	8.43
670.366	8.36
670.776	8.3
671.186	8.24
671.595	8.19
672.005	8.14
672.414	8.12
672.824	8.09
673.233	8.06
673.642	8.05
674.052	8.04
674.461	8.04
674.87	8.05
675.279	8.06
675.688	8.09
676.097	8.12
676.506	8.16
676.915	8.21
677.323	8.26
677.732	8.34
678.141	8.42
678.549	8.52
678.958	8.65
679.366	8.78
679.775	8.93
680.183	9.11
680.592	9.32
681	9.54
681.408	9.8
681.816	10.09
682.224	10.4
682.632	10.74
683.04	11.11
683.448	11.51
683.856	11.93
684.264	12.39
684.671	12.87
685.079	13.38
685.487	13.94
685.894	14.51
686.302	15.12
686.709	15.73
687.116	16.37
687.524	17.03
687.931	17.7
688.338	18.41
688.745	19.11
689.152	19.8
689.559	20.52
689.966	21.24
690.373	21.94
690.78	22.65
691.187	23.36
691.593	24.05
692	24.74
692.407	25.39
692.813	26.05
693.22	26.68
693.626	27.32
694.032	27.95
694.439	28.54
694.845	29.13
695.251	29.69
695.657	30.22
696.063	30.76
696.469	31.28
696.875	31.79
697.281	32.27
697.687	32.74
698.093	33.19
698.498	33.6
698.904	34.03
699.31	34.42
699.715	34.82
700.12	35.2
700.526	35.56
700.931	35.92
701.337	36.26
701.742	36.57
702.147	36.89
702.552	37.19
702.957	37.5
703.362	37.77
703.767	38.05
704.172	38.31
704.577	38.57
704.981	38.82
705.386	39.04
705.791	39.28
706.195	39.52
706.6	39.75
707.004	39.97
707.408	40.19
707.813	40.42
708.217	40.61
708.621	40.8
709.025	41
709.43	41.17
709.834	41.35
710.237	41.52
710.641	41.69
711.045	41.87
711.449	42.04
711.853	42.21
712.256	42.35
712.66	42.48
713.064	42.62
713.467	42.76
713.87	42.92
714.274	43.05
714.677	43.2
715.08	43.31
715.484	43.43
715.887	43.57
716.29	43.64
716.693	43.78
717.096	43.9
717.499	44.03
717.901	44.15
718.304	44.27
718.707	44.37
719.109	44.47
719.512	44.59
719.915	44.69
720.317	44.75
720.719	44.83
721.122	44.88
721.524	44.97
721.926	45.04
722.328	45.12
722.731	45.19
723.133	45.26
723.535	45.31
723.937	45.37
724.338	45.44
724.74	45.51
725.142	45.72
725.544	45.8
725.945	45.88
726.347	45.9
726.748	45.95
727.15	45.96
727.551	46.02
727.952	46.07
728.354	46.13
728.755	46.15
729.156	46.16
729.557	46.06
729.958	46.06
730.359	46.06
730.76	46.11
731.161	46.13
731.562	46.22
731.962	46.21
732.363	46.26
732.763	46.26
733.164	46.3
733.564	46.35
733.965	46.38
734.365	46.44
734.766	46.45
735.166	46.49
735.566	46.53
735.966	46.53
736.366	46.58
736.766	46.57
737.166	46.62
737.566	46.63
737.966	46.66
738.365	46.68
738.765	46.72
739.165	46.75
739.564	46.75
739.964	46.75
740.363	46.76
740.763	46.77
741.162	46.8
741.561	46.78
741.96	46.81
742.36	46.82
742.759	46.82
743.158	46.8
743.557	46.8
743.955	46.8
744.354	46.81
744.753	46.85
745.152	46.87
745.55	46.88
745.949	46.92
746.348	46.93
746.746	46.94
747.144	46.95
747.543	46.94
747.941	46.95
748.339	46.95
748.737	46.95
749.136	46.91
749.534	46.86
749.932	46.85
750.33	46.81
750.727	46.8
751.125	46.78
751.523	46.77
751.921	46.79
752.318	46.79
752.716	46.8
753.113	46.81
753.511	46.84
753.908	46.89
754.305	46.91
754.703	46.92
755.1	46.93
755.497	46.94
755.894	46.93
756.291	46.94
756.688	46.92
757.085	46.91
757.482	46.9
757.878	46.91
758.275	46.89
758.672	46.88
759.068	46.9
759.465	46.89
759.861	46.91
760.258	46.91
760.654	46.92
761.05	46.95
761.447	46.96
761.843	46.96
762.239	46.95
762.635	46.94
763.031	46.95
763.427	46.91
763.822	46.92
764.218	46.93
764.614	46.93
765.01	46.91
765.405	46.9
765.801	46.86
766.196	46.86
766.592	46.85
766.987	46.84
767.382	46.82
767.778	46.83
768.173	46.83
768.568	46.8
768.963	46.81
769.358	46.83
769.753	46.81
770.148	46.83
770.542	46.82
770.937	46.82
771.332	46.81
771.726	46.82
772.121	46.81
772.515	46.81
772.91	46.82
773.304	46.82
773.699	46.81
774.093	46.8
774.487	46.8
774.881	46.85
775.275	46.84
775.669	46.83
776.063	46.84
776.457	46.84
776.851	46.82
777.245	46.8
777.638	46.79
778.032	46.79
778.425	46.82
778.819	46.82
779.212	46.8
779.606	46.82
779.999	46.85
780.392	46.86
780.786	46.87
781.179	46.89
781.572	46.93
781.965	46.94
782.358	46.95
782.751	46.95
783.143	46.94
783.536	46.92
783.929	46.91
784.322	46.89
784.714	46.89
785.107	46.9
785.499	46.91
785.891	46.91
786.284	46.93
786.676	46.93
787.068	46.93
787.46	46.93
787.852	46.93
788.245	46.93
788.636	46.94
789.028	46.94
789.42	46.92
789.812	46.92
790.204	46.93
790.595	46.93
790.987	46.93
791.378	46.97
791.77	46.99
792.161	47
792.553	46.99
792.944	46.98
793.335	47.01
793.726	47.02
794.117	47.03
794.508	47
794.899	46.99
795.29	47
795.681	46.96
796.072	46.95
796.463	46.98
796.853	46.99
797.244	46.99
797.634	46.97
798.025	46.98
798.415	46.99
798.806	46.99
799.196	47
799.586	47
799.976	47.03
800.366	47.03
800.756	47.02
801.146	47.05
801.536	47.06
801.926	47.06
802.316	47.07
802.706	47.04
803.095	47.04
803.485	47.04
803.874	47.04
804.264	47.04
804.653	47.06
805.043	47.08
805.432	47.06
805.821	47.07
806.21	47.07
806.599	47.08
806.988	47.07
807.377	47.06
807.766	47.09
808.155	47.08
808.544	47.1
808.933	47.08
809.321	47.07
809.71	47.07
810.098	47.06
810.487	47.03
810.875	46.99
811.264	47
811.652	47.01
812.04	46.98
812.428	47.01
812.816	46.99
813.204	47.01
813.592	46.99
813.98	46.99
814.368	47
814.756	47.02
815.144	47.03
815.531	47.04
815.919	47.04
816.306	47.04
816.694	47.03
817.081	47.04
817.469	47.05
817.856	47.04
818.243	47.04
818.63	47.01
819.017	47
819.404	47.01
819.791	47.01
820.178	47.02
820.565	47
820.952	46.99
821.339	46.99
821.725	47
822.112	47.02
822.498	47.05
822.885	47.1
823.271	47.11
823.657	47.09
824.044	47.1
824.43	47.11
824.816	47.12
825.202	47.13
825.588	47.11
825.974	47.1
826.36	47.1
826.746	47.09
827.132	47.07
827.517	47.1
827.903	47.13
828.289	47.15
828.674	47.14
829.06	47.15
829.445	47.16
829.83	47.18
830.216	47.16
830.601	47.16
830.986	47.15
831.371	47.14
831.756	47.12
832.141	47.12
832.526	47.12
832.911	47.11
833.295	47.12
833.68	47.12
834.065	47.1
834.449	47.1
834.834	47.11
835.218	47.12
835.603	47.12
835.987	47.11
836.371	47.09
836.755	47.08
837.139	47.08
837.524	47.08
837.908	47.1
838.291	47.14
838.675	47.15
839.059	47.15
839.443	47.14
839.827	47.13
840.21	47.12
840.594	47.16
840.977	47.18
841.361	47.2
841.744	47.17
842.127	47.14
842.511	47.12
842.894	47.1
843.277	47.12
843.66	47.1
844.043	47.13
844.426	47.13
844.809	47.12
845.191	47.12
845.574	47.14
845.957	47.14
846.339	47.17
846.722	47.19
847.104	47.22
847.487	47.21
847.869	47.23
848.252	47.23
848.634	47.22
849.016	47.22
849.398	47.21
849.78	47.2
850.162	47.2
850.544	47.19
850.926	47.19
851.307	47.19
851.689	47.19
852.071	47.19
852.452	47.22
852.834	47.24
853.215	47.25
853.597	47.25
853.978	47.23
854.359	47.24
854.741	47.24
855.122	47.21
855.503	47.18
855.884	47.17
856.265	47.18
856.646	47.15
857.026	47.15
857.407	47.15
857.788	47.14
858.169	47.2
858.549	47.21
858.93	47.21
859.31	47.22
859.69	47.23
860.071	47.23
860.451	47.22
860.831	47.24
861.211	47.22
861.591	47.21
861.971	47.21
862.351	47.2
862.731	47.21
863.111	47.21
863.491	47.21
863.87	47.23
864.25	47.24
864.629	47.25
865.009	47.24
865.388	47.24
865.768	47.25
866.147	47.25
866.526	47.25
866.905	47.26
867.284	47.26
867.663	47.28
868.042	47.28
868.421	47.28
868.8	47.27
869.179	47.3
869.558	47.3
869.936	47.28
870.315	47.28
870.693	47.28
871.072	47.28
871.45	47.28
871.828	47.27
872.207	47.29
872.585	47.28
872.963	47.28
873.341	47.27
873.719	47.3
874.097	47.3
874.475	47.3
874.853	47.28
875.23	47.29
875.608	47.29
875.986	47.31
876.363	47.3
876.741	47.31
877.118	47.32
877.495	47.32
877.873	47.31
878.25	47.33
878.627	47.35
879.004	47.39
879.381	47.4
879.758	47.39
880.135	47.37
880.512	47.35
880.889	47.34
881.265	47.33
881.642	47.33
882.019	47.35
882.395	47.33
882.772	47.31
883.148	47.27
883.524	47.26
883.901	47.26
884.277	47.25
884.653	47.24
885.029	47.23
885.405	47.24
885.781	47.25
886.157	47.23
886.532	47.23
886.908	47.22
887.284	47.2
887.659	47.18
888.035	47.17
888.411	47.17
888.786	47.18
889.161	47.19
889.537	47.17
889.912	47.17
890.287	47.17
890.662	47.16
891.037	47.17
891.412	47.17
891.787	47.15
892.162	47.16
892.536	47.16
892.911	47.15
893.286	47.14
893.66	47.15
894.035	47.14
894.409	47.12
894.784	47.14
895.158	47.14
895.532	47.15
895.906	47.16
896.281	47.17
896.655	47.18
897.029	47.22
897.402	47.23
897.776	47.24
898.15	47.25
898.524	47.28
898.898	47.25
899.271	47.27
899.645	47.3
900.018	47.33
900.392	47.33
900.765	47.35
901.138	47.33
901.511	47.32
901.884	47.32
902.258	47.32
902.631	47.31
903.003	47.35
903.376	47.34
903.749	47.32
904.122	47.34
904.495	47.36
904.867	47.34
905.24	47.35
905.612	47.37
905.985	47.35
906.357	47.37
906.729	47.38
907.102	47.37
907.474	47.38
907.846	47.37
908.218	47.36
908.59	47.35
908.962	47.34
909.334	47.34
909.705	47.32
910.077	47.31
910.449	47.31
910.82	47.3
911.192	47.28
911.563	47.29
911.935	47.26
912.306	47.25
912.677	47.23
913.048	47.27
913.419	47.26
913.79	47.25
914.161	47.25
914.532	47.25
914.903	47.24
915.274	47.27
915.645	47.27
916.015	47.31
916.386	47.32
916.756	47.31
917.127	47.29
917.497	47.27
917.868	47.31
918.238	47.33
918.608	47.33
918.978	47.34
919.348	47.34
919.718	47.31
920.088	47.28
920.458	47.28
920.828	47.28
921.198	47.25
921.567	47.25
921.937	47.23
922.306	47.22
922.676	47.22
923.045	47.2
923.415	47.17
923.784	47.2
924.153	47.23
924.522	47.24
924.891	47.25
925.26	47.27
925.629	47.3
925.998	47.27
926.367	47.26
926.736	47.24
927.104	47.25
927.473	47.25
927.842	47.19
928.21	47.19
928.578	47.18
928.947	47.17
929.315	47.17
929.683	47.14
930.051	47.13
930.42	47.13
930.788	47.11
931.156	47.13
931.523	47.13
931.891	47.16
932.259	47.16
932.627	47.17
932.994	47.16
933.362	47.16
933.729	47.16
934.097	47.2
934.464	47.18
934.831	47.17
935.199	47.17
935.566	47.18
935.933	47.14
936.3	47.13
936.667	47.1
937.034	47.13
937.401	47.1
937.767	47.13
938.134	47.14
938.501	47.18
938.867	47.22
939.234	47.18
939.6	47.18
939.967	47.23
940.333	47.23
940.699	47.26
941.065	47.17
941.431	47.18
941.798	47.16
942.163	47.12
942.529	47.08
942.895	47.08
943.261	47.1
943.627	47.05
943.992	47.03
944.358	46.98
944.723	46.95
945.089	46.99
945.454	46.98
945.82	46.99
946.185	47.02
946.55	46.99
946.915	46.93
947.28	46.87
947.645	46.88
948.01	46.9
948.375	46.87
948.74	46.83
949.104	46.85
949.469	46.84
949.834	46.75
950.198	46.66
950.562	46.69
950.927	46.65
951.291	46.6
951.655	46.52
952.02	46.45
952.384	46.45
952.748	46.48
953.112	46.48
953.476	46.48
953.839	46.41
954.203	46.4
954.567	46.38
954.931	46.37
955.294	46.43
955.658	46.48
956.021	46.51
956.385	46.47
956.748	46.44
957.111	46.39
957.474	46.35
957.837	46.35
958.2	46.37
958.563	46.35
958.926	46.42
959.289	46.41
959.652	46.4
960.015	46.4
960.377	46.43
960.74	46.46
961.102	46.5
961.465	46.56
961.827	46.7
962.189	46.72
962.552	46.74
962.914	46.63
963.276	46.63
963.638	46.63
964	46.63
964.362	46.67
964.724	46.63
965.085	46.57
965.447	46.53
965.809	46.47
966.17	46.41
966.532	46.38
966.893	46.47
967.255	46.46
967.616	46.45
967.977	46.42
968.338	46.38
968.699	46.36
969.061	46.38
969.421	46.38
969.782	46.4
970.143	46.43
970.504	46.45
970.865	46.42
971.225	46.38
971.586	46.38
971.946	46.38
972.307	46.36
972.667	46.31
973.027	46.33
973.388	46.31
973.748	46.29
974.108	46.32
974.468	46.28
974.828	46.32
975.188	46.33
975.548	46.32
975.907	46.32
976.267	46.3
976.627	46.37
976.986	46.3
977.346	46.27
977.705	46.27
978.064	46.29
978.424	46.27
978.783	46.22
979.142	46.26
979.501	46.31
979.86	46.37
980.219	46.37
980.578	46.37
980.937	46.41
981.296	46.44
981.654	46.44
982.013	46.37
982.371	46.4
982.73	46.44
983.088	46.34
983.447	46.25
983.805	46.23
984.163	46.26
984.521	46.21
984.879	46.18
985.237	46.22
985.595	46.24
985.953	46.25
986.311	46.25
986.669	46.2
987.026	46.25
987.384	46.33
987.741	46.29
988.099	46.31
988.456	46.33
988.814	46.32
989.171	46.29
989.528	46.25
989.885	46.19
990.242	46.13
990.599	46.23
990.956	46.18
991.313	46.16
991.67	46.12
992.027	46.27
992.383	46.33
992.74	46.39
993.096	46.42
993.453	46.38
993.809	46.46
994.165	46.54
994.522	46.5
994.878	46.57
995.234	46.54
995.59	46.58
995.946	46.3
996.302	46.23
996.658	46.23
997.013	46.17
997.369	46.22
997.725	46.21
998.08	46.17
998.436	46.2
998.791	46.22
999.147	46.23
999.502	46.25
999.857	46.31
1000.212	46.29
1000.567	46.32
1000.922	46.29
1001.277	46.23
1001.632	46.13
1001.987	46.15
1002.342	46.06
1002.696	45.92
1003.051	46.03
1003.406	46.07
1003.76	46.08
1004.114	46.12
1004.469	46.19
1004.823	46.45
1005.177	46.39
1005.531	46.47
1005.885	46.47
1006.239	46.49
1006.593	46.75
1006.947	46.7
1007.301	46.53
1007.655	46.48
1008.008	46.52
1008.362	46.49
1008.715	46.29
1009.069	46.43
1009.422	46.44
1009.776	46.43
1010.129	46.48
1010.482	46.39
1010.835	46.38
1011.188	46.6
1011.541	46.63
1011.894	46.58
1012.247	46.65
1012.6	46.68
1012.952	46.71
1013.305	46.76
1013.657	46.7
1014.01	46.7
1014.362	46.68
1014.715	46.83
1015.067	46.78
1015.419	46.89
1015.771	46.82
1016.123	46.73
1016.475	46.69
1016.827	46.66
1017.179	46.6
1017.531	46.73
1017.883	46.62
1018.234	46.78
1018.586	46.7
1018.938	46.84
1019.289	46.77
1019.64	46.82
1019.992	46.74
1020.343	46.76
1020.694	46.81
1021.045	46.81
1021.396	46.75
1021.747	46.94
1022.098	46.94
1022.449	46.94
1022.8	46.91
1023.151	46.79
1023.501	46.96
1023.852	47.07
1024.202	47.05
1024.553	46.73
1024.903	46.89
1025.253	47.09
1025.604	47.04
1025.954	46.6
1026.304	46.65
1026.654	46.53
1027.004	46.62
1027.354	46.69
1027.703	46.58
1028.053	46.43
1028.403	46.75
1028.753	46.41
1029.102	46.38
1029.452	46.53
1029.801	47.05
1030.15	46.92
1030.499	46.82
897.758	1256.93
901.051	1269.29
904.343	1261.27
907.636	1285.87
910.928	1248.34
914.22	1251.82
917.511	1233.42
920.803	1179.45
924.094	1173.78
927.384	1144.55
930.675	1099.62
933.965	1092.87
937.255	1027.53
940.544	989.5
943.834	943.03
947.123	936.78
950.411	879.68
953.7	862.91
956.988	818.12
960.276	784.72
963.563	773.4
966.851	748.1
970.138	741.61
973.424	718.51
976.711	722.32
979.997	684
983.283	681.48
986.568	667.37
989.853	646.46
993.138	634.6
996.423	609.88
999.708	590.83
1002.992	584.61
1006.275	558.74
1009.559	554.22
1012.842	532.51
1016.125	519.63
1019.408	510.39
1022.69	502.81
1025.972	492.64
1029.254	480.83
1032.536	473.11
1035.817	464.72
1039.098	459.02
1042.379	450.66
1045.659	444.44
1048.939	435.08
1052.219	425.92
1055.498	419.19
1058.778	409.79
1062.057	401.33
1065.335	397.2
1068.614	392.75
1071.892	388.45
1075.17	375.77
1078.447	367.27
1081.724	364.75
1085.001	362.23
1088.278	354.31
1091.554	347.42
1094.83	348.18
1098.106	345.6
1101.382	342.08
1104.657	339.91
1107.932	334.75
1111.206	336.22
1114.481	328.75
1117.755	325.84
1121.029	322.69
1124.302	323.52
1127.575	316.18
1130.848	312.27
1134.121	309.12
1137.393	307.58
1140.665	300.89
1143.937	298.25
1147.208	296.79
1150.48	295.94
1153.75	292.55
1157.021	288.31
1160.291	287.87
1163.561	285.87
1166.831	285.94
1170.101	283.52
1173.37	282.85
1176.639	283.46
1179.907	281.17
1183.176	277.79
1186.444	278.14
1189.711	277.27
1192.979	276.76
1196.246	275.43
1199.513	276.23
1202.78	273.87
1206.046	273.81
1209.312	272.13
1212.578	272.04
1215.843	274.98
1219.108	273.36
1222.373	278.49
1225.638	280.38
1228.902	284.27
1232.166	284.69
1235.43	286.63
1238.693	290.74
1241.956	292.43
1245.219	296.28
1248.482	296.36
1251.744	295.4
1255.006	296.9
1258.268	288.77
1261.529	286.75
1264.79	285.61
1268.051	283.09
1271.312	279.64
1274.572	276.19
1277.832	272.98
1281.092	269.3
1284.351	267.52
1287.61	267.53
1290.869	263.51
1294.128	262.85
1297.386	262.13
1300.644	257.89
1303.902	259.85
1307.159	258.77
1310.416	259.07
1313.673	259.46
1316.93	261.13
1320.186	260.64
1323.442	261.45
1326.697	265.85
1329.953	266.45
1333.208	267.87
1336.463	271.95
1339.717	271.38
1342.972	274.99
1346.226	277.17
1349.479	277.66
1352.733	279.67
1355.986	281.54
1359.238	281.39
1362.491	283.09
1365.743	286.25
1368.995	285.72
1372.247	284.23
1375.498	284.7
1378.749	287.34
1382	284.64
1385.251	285.13
1388.501	283.28
1391.751	284.44
1395	282.85
1398.25	281.01
1401.499	279.31
1404.748	279.22
1407.996	278.25
1411.244	276.81
1414.492	274.84
1417.74	271.93
1420.987	268.18
1424.234	267.89
1427.481	264.36
1430.728	264.45
1433.974	261.6
1437.22	259.29
1440.465	258.88
1443.711	256.4
1446.956	254.27
1450.201	251.16
1453.445	248.92
1456.689	248.55
1459.933	244.46
1463.177	242.6
1466.42	238.54
1469.663	236.01
1472.906	234.73
1476.148	228.66
1479.391	226.01
1482.633	224.45
1485.874	221.43
1489.115	220.25
1492.356	217.66
1495.597	217.32
1498.838	214.44
1502.078	213.78
1505.318	212.45
1508.557	212.17
1511.797	211.87
1515.036	210.87
1518.274	210.01
1521.513	208.07
1524.751	207.87
1527.989	206.96
1531.227	205.92
1534.464	206.15
1537.701	204.63
1540.938	204.23
1544.174	202.25
1547.41	202.02
1550.646	200.81
1553.882	200.93
1557.117	198.59
1560.352	197.48
1563.587	196.92
1566.821	195.36
1570.055	193.83
1573.289	192.12
1576.523	192
1579.756	190.03
1582.989	189.18
1586.222	189.16
1589.454	187.68
1592.686	189
1595.918	188.2
1599.15	187.49
1602.381	188.37
1605.612	187.95
1608.843	188.72
1612.073	188
1615.303	189.14
1618.533	189.16
1621.762	188.27
1624.992	188.82
1628.221	188.23
1631.449	188.04
1634.678	187.65
1637.906	188.27
1641.134	188.23
1644.361	187.93
1647.588	188.92
1650.815	188.09
1654.042	187.19
1657.269	188.61
1660.495	188.63
1663.72	188.59
1666.946	189.07
1670.171	189.59
1673.396	189.15
1676.621	189.11
1679.845	189.81
1683.069	189.47
1686.293	190.95
1689.517	192.35
1692.74	192.01
1695.963	192.34
1699.185	194.03
1702.408	194
1705.63	194.83
1708.852	195.22
1712.073	195.87
1715.294	196.09
1718.515	197.39
1721.736	196.71
1724.956	196.9
1728.176	197.1
1731.396	198.9
1734.616	197.98
1737.835	199.15
1741.054	197.57
1744.272	198.2
1747.491	199.85
1750.709	200.07
1753.927	199.69
1757.144	199.91
1760.361	200.66
1763.578	201.27
1766.795	200.64
1770.011	202.1
1773.227	201.76
1776.443	204.66
1779.658	205.28
1782.874	204.69
1786.089	205.53
1789.303	206.36
1792.518	208.17
1795.732	208.49
1798.945	210.22
1802.159	210.56
1805.372	211.25
1808.585	215
1811.797	215.32
1815.01	215.66
1818.222	217.51
1821.434	219.36
1824.645	220.13
1827.856	223.59
1831.067	224.93
1834.278	224.3
1837.488	226.1
1840.698	227.58
1843.908	225.34
1847.117	226.7
1850.326	228.16
1853.535	227.44
1856.744	230.61
1859.952	230.32
1863.16	228.61
1866.368	227.66
1869.575	230.68
1872.782	226.14
1875.989	225.29
1879.196	224.56
1882.402	222.87
1885.608	223.45
1888.814	223.7
1892.019	221.97
1895.224	220.77
1898.429	220.05
1901.634	220.53
1904.838	219.92
1908.042	222.43
1911.246	223.03
1914.449	224.2
1917.652	224.93
1920.855	224.07
1924.058	223.97
1927.26	222.93
1930.462	224.07
1933.664	226.27
1936.865	224.44
1940.066	224.01
1943.267	223.22
1946.467	222.4
1949.668	223.77
1952.868	225.83
1956.067	226.12
1959.267	226.74
1962.466	227.62
1965.665	227.04
1968.863	227.55
1972.061	231.23
1975.259	233.48
1978.457	235.56
1981.654	237.57
1984.852	237.85
1988.048	237.09
1991.245	239.28
1994.441	242.31
1997.637	243.97
2000.833	248.68
2004.028	251.66
2007.223	253.12
2010.418	255.39
2013.613	259.91
2016.807	262.9
2020.001	265.39
2023.194	269.78
2026.388	275.74
2029.581	281.97
2032.774	284.15
2035.966	290.19
2039.158	291.13
2042.35	297.21
2045.542	298.61
2048.733	303.13
2051.924	307.59
2055.115	312.96
2058.306	313.47
2061.496	316.27
2064.686	315.76
2067.875	322.09
2071.065	322.17
2074.254	320.07
2077.442	324.23
2080.631	326.1
2083.819	328.99
2087.007	329.27
2090.195	333
2093.382	335.68
2096.569	333.75
2099.756	339.58
2102.942	340.08
2106.128	342.9
2109.314	352.35
2112.5	349.83
2115.685	357.27
2118.87	357.73
2122.055	364.55
2125.239	367.31
2128.424	372.49
2131.608	375.25
2134.791	379.85
2137.974	381.39
2141.157	382.86
2144.34	383.02
2147.523	388.17
2150.705	386.06
2153.887	390.21
2157.068	391.12
2160.25	387.14
2163.431	388.13
2166.611	392.9
2169.792	399.52
2172.972	404.14
2176.152	406.04
2179.331	410.65
2182.511	418.33
2185.69	421.81
2188.868	430.08
2192.047	430.96
2195.225	443.93
2198.403	455.18
2201.58	463.03
2204.758	470.62
2207.935	479.26
2211.111	489.53
2214.288	495.56
2217.464	495.18
2220.64	506.73
2223.815	512.7
2226.991	532.87
2230.166	533.17
2233.34	541.99
2236.515	551.88
2239.689	553.16
2242.863	556.18
2246.036	571.95
2249.209	568.81
2252.382	579.47
2255.555	594.42
2258.727	596.34
2261.9	600.31
2265.071	606.69
2268.243	617.23
2271.414	622.37
2274.585	635.24
2277.756	643.41
2280.926	647.62
2284.096	661
2287.266	675.25
2290.436	678.99
2293.605	694.39
2296.774	715.79
2299.942	736.88
2303.111	741.16
2306.279	757.85
2309.447	768.43
2312.614	788.33
2315.781	809.67
2318.948	846.42
2322.115	835.4
2325.281	879.51
2328.447	861.76
2331.613	896.54
2334.779	885.96
2337.944	924.81
2341.109	934.48
2344.274	961.87
2347.438	993.4
2350.602	989.73
2353.766	1021.22
2356.929	1034.63
2360.092	1029.9
2363.255	1103.6
2366.418	1100.55
2369.58	1125.36
2372.742	1191.01
2375.904	1221.68
2379.066	1212.6
2382.227	1192.66
2385.388	1298.2
2388.548	1298.42
2391.709	1315.43
2394.869	1462.84
2398.029	1401.93
2401.188	1439.91
2404.347	1428.03
2407.506	1406.58
2410.665	1447.58
2413.823	1530.41
2416.981	1618.26
2420.139	1568.51
2423.296	1548.25
2426.453	1615.45
2429.61	1555.76
2432.767	1624.48
2435.923	1606.27
2439.079	1764.32
2442.235	1783.76
2445.391	1765.79
2448.546	1754.93
2451.701	1703.71
2454.855	1697.9
2458.009	1805.88
2461.163	1882.34
2464.317	1947.91
2467.471	2000.39
2470.624	2003.9
2473.777	1949.68
2476.929	1902.73
2480.082	1846.01
2483.234	1827.17
2486.385	1924.43
2489.537	1931.07
2492.688	2000.8
2495.839	1941.59
2498.989	1898.77
2502.14	1912.43
2505.29	1924.96
2508.439	1955.19
2511.589	1949.84
2514.738	2130.9
2517.887	2083.62
2521.035	2193.18
2524.183	2219.74
2527.331	2237.52
2530.479	2229.39
2533.627	2248.54
