Data from N_2_DEC_CT_2N_Splice17_13-31-56-584.txt Node
Date: Sat Mar 07 13:31:56 EST 2020
User: sa697716
Spectrometer: NQ5500242
Trigger mode: 0
Integration Time (sec): 1.450000E-1
Scans to average: 20
Nonlinearity correction enabled: false
Boxcar width: 5
Storing dark spectrum: false
XAxis mode: Wavelengths
Number of Pixels in Spectrum: 512
>>>>>Begin Spectral Data<<<<<
187.83	144.24
188.298	156.79
188.766	139.35
189.233	119.27
189.701	123.95
190.169	135.66
190.636	137.47
191.104	172.23
191.571	92.02
192.039	149.24
192.506	113.18
192.974	122.05
193.441	184.23
193.908	85.19
194.375	78.58
194.842	55.06
195.31	68.59
195.777	139.24
196.244	61.74
196.711	64.34
197.177	69.24
197.644	68.69
198.111	67.92
198.578	67.47
199.045	68.15
199.511	67.89
199.978	68.29
200.445	68.57
200.911	68.64
201.378	68.82
201.844	68.79
202.31	68.02
202.777	67.98
203.243	67.79
203.709	67.61
204.176	67.16
204.642	66.98
205.108	66.34
205.574	65.93
206.04	65.23
206.506	64.91
206.972	64.82
207.438	64.48
207.903	63.9
208.369	62.96
208.835	62.51
209.301	61.52
209.766	60.14
210.232	59.16
210.697	58.18
211.163	57.31
211.628	56.58
212.094	55.61
212.559	55.08
213.024	54.26
213.49	53.74
213.955	52.88
214.42	52.23
214.885	51.48
215.35	50.35
215.815	49
216.28	47.09
216.745	44.95
217.21	43.01
217.675	41.36
218.14	39.92
218.604	38.68
219.069	37.74
219.534	36.95
219.998	36.27
220.463	35.74
220.927	35.13
221.392	34.7
221.856	34.38
222.32	34.06
222.785	33.76
223.249	33.51
223.713	33.25
224.177	32.99
224.642	32.67
225.106	32.4
225.57	32.1
226.034	31.9
226.497	31.69
226.961	31.45
227.425	31.23
227.889	30.98
228.353	30.7
228.816	30.47
229.28	30.2
229.744	29.98
230.207	29.73
230.671	29.51
231.134	29.25
231.597	29.03
232.061	28.8
232.524	28.58
232.987	28.37
233.45	28.16
233.914	27.93
234.377	27.72
234.84	27.5
235.303	27.31
235.766	27.12
236.229	26.93
236.691	26.74
237.154	26.55
237.617	26.37
238.08	26.19
238.542	26
239.005	25.84
239.468	25.65
239.93	25.49
240.393	25.32
240.855	25.12
241.317	24.96
241.78	24.77
242.242	24.58
242.704	24.43
243.166	24.27
243.629	24.11
244.091	23.93
244.553	23.77
245.015	23.62
245.477	23.48
245.939	23.33
246.4	23.18
246.862	23.04
247.324	22.91
247.786	22.75
248.247	22.6
248.709	22.46
249.17	22.33
249.632	22.22
250.093	22.1
250.555	21.98
251.016	21.88
251.477	21.77
251.939	21.67
252.4	21.57
252.861	21.47
253.322	21.38
253.783	21.3
254.244	21.22
254.705	21.12
255.166	21.01
255.627	20.92
256.088	20.83
256.549	20.76
257.009	20.66
257.47	20.56
257.931	20.47
258.391	20.38
258.852	20.28
259.312	20.19
259.773	20.12
260.233	20.07
260.694	20
261.154	19.92
261.614	19.86
262.074	19.8
262.534	19.74
262.994	19.71
263.455	19.68
263.915	19.66
264.374	19.63
264.834	19.61
265.294	19.57
265.754	19.56
266.214	19.55
266.673	19.54
267.133	19.54
267.593	19.53
268.052	19.53
268.512	19.52
268.971	19.51
269.431	19.51
269.89	19.5
270.349	19.51
270.809	19.5
271.268	19.49
271.727	19.47
272.186	19.45
272.645	19.46
273.104	19.44
273.563	19.43
274.022	19.41
274.481	19.4
274.94	19.38
275.399	19.35
275.857	19.32
276.316	19.29
276.775	19.28
277.233	19.25
277.692	19.21
278.15	19.18
278.609	19.16
279.067	19.12
279.525	19.09
279.984	19.06
280.442	19.02
280.9	19
281.358	18.97
281.816	18.93
282.274	18.9
282.732	18.85
283.19	18.81
283.648	18.77
284.106	18.72
284.564	18.67
285.021	18.64
285.479	18.6
285.937	18.54
286.394	18.51
286.852	18.47
287.309	18.42
287.767	18.4
288.224	18.36
288.682	18.33
289.139	18.3
289.596	18.26
290.053	18.21
290.511	18.17
290.968	18.15
291.425	18.11
291.882	18.08
292.339	18.04
292.796	18.01
293.252	17.97
293.709	17.94
294.166	17.91
294.623	17.88
295.079	17.86
295.536	17.83
295.992	17.8
296.449	17.76
296.905	17.73
297.362	17.69
297.818	17.66
298.274	17.64
298.731	17.61
299.187	17.56
299.643	17.52
300.099	17.48
300.555	17.45
301.011	17.41
301.467	17.38
301.923	17.34
302.379	17.29
302.835	17.25
303.291	17.21
303.746	17.17
304.202	17.12
304.658	17.09
305.113	17.07
305.569	17.02
306.024	16.98
306.479	16.95
306.935	16.92
307.39	16.9
307.845	16.86
308.301	16.84
308.756	16.82
309.211	16.79
309.666	16.76
310.121	16.73
310.576	16.69
311.031	16.67
311.486	16.63
311.94	16.6
312.395	16.56
312.85	16.54
313.305	16.51
313.759	16.49
314.214	16.46
314.668	16.43
315.123	16.4
315.577	16.37
316.032	16.35
316.486	16.31
316.94	16.26
317.394	16.2
317.849	16.15
318.303	16.1
318.757	16.05
319.211	16.02
319.665	15.98
320.119	15.95
320.572	15.92
321.026	15.89
321.48	15.86
321.934	15.84
322.387	15.82
322.841	15.8
323.295	15.78
323.748	15.75
324.202	15.72
324.655	15.67
325.108	15.63
325.562	15.6
326.015	15.57
326.468	15.54
326.921	15.5
327.374	15.47
327.827	15.45
328.28	15.42
328.733	15.41
329.186	15.38
329.639	15.37
330.092	15.34
330.545	15.32
330.997	15.3
331.45	15.27
331.903	15.26
332.355	15.24
332.808	15.22
333.26	15.19
333.713	15.17
334.165	15.14
334.617	15.13
335.069	15.11
335.522	15.09
335.974	15.07
336.426	15.06
336.878	15.02
337.33	15
337.782	14.98
338.234	14.96
338.686	14.93
339.137	14.93
339.589	14.89
340.041	14.86
340.493	14.83
340.944	14.78
341.396	14.73
341.847	14.71
342.299	14.67
342.75	14.63
343.201	14.59
343.653	14.55
344.104	14.52
344.555	14.49
345.006	14.45
345.457	14.42
345.908	14.4
346.359	14.38
346.81	14.36
347.261	14.33
347.712	14.3
348.163	14.28
348.613	14.27
349.064	14.25
349.515	14.22
349.965	14.2
350.416	14.18
350.866	14.15
351.317	14.13
351.767	14.12
352.217	14.09
352.668	14.09
353.118	14.08
353.568	14.06
354.018	14.06
354.468	14.06
354.918	14.06
355.368	14.06
355.818	14.08
356.268	14.07
356.718	14.08
357.168	14.06
357.617	14.06
358.067	14.04
358.517	14.04
358.966	14.04
359.416	14.02
359.865	14.01
360.315	14
360.764	13.97
361.213	13.95
361.663	13.93
362.112	13.95
362.561	13.93
363.01	13.92
363.459	13.9
363.908	13.88
364.357	13.88
364.806	13.86
365.255	13.84
365.703	13.85
366.152	13.84
366.601	13.82
367.05	13.81
367.498	13.79
367.947	13.78
368.395	13.76
368.844	13.75
369.292	13.73
369.74	13.72
370.189	13.7
370.637	13.66
371.085	13.64
371.533	13.62
371.981	13.59
372.429	13.57
372.877	13.55
373.325	13.52
373.773	13.49
374.221	13.46
374.669	13.44
375.116	13.42
375.564	13.41
376.012	13.39
376.459	13.38
376.907	13.39
377.354	13.38
377.801	13.37
378.249	13.35
378.696	13.34
379.143	13.33
379.591	13.32
380.038	13.31
380.485	13.31
380.932	13.29
381.379	13.28
381.826	13.25
382.273	13.23
382.72	13.2
383.166	13.2
383.613	13.19
384.06	13.19
384.506	13.16
384.953	13.16
385.4	13.15
385.846	13.15
386.292	13.14
386.739	13.13
387.185	13.13
387.631	13.14
388.078	13.14
388.524	13.13
388.97	13.13
389.416	13.13
389.862	13.15
390.308	13.16
390.754	13.17
391.2	13.19
391.645	13.21
392.091	13.23
392.537	13.25
392.983	13.26
393.428	13.28
393.874	13.28
394.319	13.3
394.765	13.29
395.21	13.31
395.655	13.32
396.101	13.34
396.546	13.34
396.991	13.38
397.436	13.4
397.881	13.45
398.326	13.49
398.771	13.53
399.216	13.56
399.661	13.6
400.106	13.63
400.551	13.66
400.995	13.68
401.44	13.71
401.885	13.73
402.329	13.76
402.774	13.78
403.218	13.83
403.663	13.85
404.107	13.9
404.551	13.93
404.995	13.95
405.44	13.98
405.884	14.02
406.328	14.07
406.772	14.08
407.216	14.13
407.66	14.14
408.104	14.15
408.547	14.18
408.991	14.21
409.435	14.24
409.879	14.27
410.322	14.32
410.766	14.37
411.209	14.42
411.653	14.47
412.096	14.5
412.54	14.55
412.983	14.6
413.426	14.67
413.869	14.72
414.312	14.78
414.756	14.84
415.199	14.87
415.642	14.92
416.085	14.95
416.527	14.98
416.97	15
417.413	15.01
417.856	15.04
418.298	15.05
418.741	15.06
419.184	15.07
419.626	15.08
420.069	15.1
420.511	15.12
420.953	15.13
421.396	15.17
421.838	15.2
422.28	15.24
422.722	15.27
423.164	15.29
423.606	15.31
424.048	15.31
424.49	15.33
424.932	15.36
425.374	15.34
425.816	15.33
426.258	15.31
426.699	15.31
427.141	15.3
427.582	15.3
428.024	15.33
428.465	15.35
428.907	15.37
429.348	15.37
429.789	15.38
430.231	15.42
430.672	15.46
431.113	15.5
431.554	15.52
431.995	15.54
432.436	15.56
432.877	15.57
433.318	15.59
433.759	15.63
434.2	15.65
434.64	15.66
435.081	15.67
435.522	15.68
435.962	15.69
436.403	15.7
436.843	15.73
437.284	15.74
437.724	15.76
438.164	15.75
438.604	15.74
439.045	15.76
439.485	15.79
439.925	15.82
440.365	15.85
440.805	15.87
441.245	15.92
441.685	15.96
442.125	15.99
442.564	16.03
443.004	16.06
443.444	16.09
443.883	16.13
444.323	16.16
444.762	16.19
445.202	16.23
445.641	16.27
446.081	16.29
446.52	16.31
446.959	16.36
447.398	16.39
447.837	16.43
448.276	16.47
448.716	16.51
449.154	16.56
449.593	16.6
450.032	16.62
450.471	16.63
450.91	16.64
451.349	16.67
451.787	16.66
452.226	16.66
452.664	16.67
453.103	16.67
453.541	16.65
453.98	16.64
454.418	16.62
454.856	16.6
455.295	16.6
455.733	16.57
456.171	16.56
456.609	16.56
457.047	16.53
457.485	16.52
457.923	16.52
458.361	16.53
458.798	16.53
459.236	16.53
459.674	16.53
460.111	16.52
460.549	16.54
460.987	16.54
461.424	16.55
461.862	16.56
462.299	16.56
462.736	16.55
463.173	16.53
463.611	16.53
464.048	16.5
464.485	16.51
464.922	16.51
465.359	16.5
465.796	16.49
466.233	16.48
466.67	16.47
467.106	16.46
467.543	16.44
467.98	16.43
468.416	16.41
468.853	16.42
469.29	16.41
469.726	16.4
470.162	16.38
470.599	16.38
471.035	16.37
471.471	16.36
471.907	16.36
472.344	16.35
472.78	16.35
473.216	16.32
473.652	16.3
474.088	16.29
474.523	16.29
474.959	16.28
475.395	16.27
475.831	16.25
476.266	16.26
476.702	16.25
477.138	16.26
477.573	16.25
478.008	16.26
478.444	16.26
478.879	16.25
479.314	16.23
479.75	16.23
480.185	16.21
480.62	16.21
481.055	16.19
481.49	16.18
481.925	16.17
482.36	16.17
482.795	16.16
483.229	16.17
483.664	16.17
484.099	16.15
484.534	16.16
484.968	16.18
485.403	16.18
485.837	16.2
486.271	16.23
486.706	16.24
487.14	16.26
487.574	16.3
488.009	16.33
488.443	16.37
488.877	16.43
489.311	16.47
489.745	16.53
490.179	16.59
490.613	16.65
491.046	16.72
491.48	16.8
491.914	16.88
492.348	16.94
492.781	17.02
493.215	17.11
493.648	17.19
494.082	17.29
494.515	17.36
494.948	17.46
495.382	17.56
495.815	17.65
496.248	17.77
496.681	17.87
497.114	17.99
497.547	18.1
497.98	18.23
498.413	18.35
498.846	18.48
499.279	18.62
499.711	18.76
500.144	18.9
500.577	19.05
501.009	19.19
501.442	19.34
501.874	19.5
502.306	19.66
502.739	19.84
503.171	20.03
503.603	20.19
504.036	20.38
504.468	20.57
504.9	20.75
505.332	20.96
505.764	21.16
506.196	21.38
506.627	21.62
507.059	21.84
507.491	22.06
507.923	22.28
508.354	22.55
508.786	22.8
509.217	23.06
509.649	23.34
510.08	23.6
510.512	23.86
510.943	24.12
511.374	24.39
511.805	24.66
512.237	24.93
512.668	25.21
513.099	25.48
513.53	25.74
513.961	26.02
514.391	26.31
514.822	26.59
515.253	26.88
515.684	27.15
516.114	27.43
516.545	27.73
516.975	28.02
517.406	28.28
517.836	28.55
518.267	28.82
518.697	29.08
519.127	29.33
519.558	29.56
519.988	29.82
520.418	30.06
520.848	30.29
521.278	30.51
521.708	30.9
522.138	31.13
522.567	31.34
522.997	31.56
523.427	31.77
523.857	31.97
524.286	32.17
524.716	32.35
525.145	32.54
525.575	32.74
526.004	32.92
526.433	32.92
526.863	33.07
527.292	33.23
527.721	33.38
528.15	33.52
528.579	33.68
529.008	33.82
529.437	33.96
529.866	34.07
530.295	34.18
530.724	34.28
531.152	34.4
531.581	34.53
532.01	34.63
532.438	34.75
532.867	34.84
533.295	34.91
533.723	35.01
534.152	35.09
534.58	35.17
535.008	35.24
535.436	35.34
535.865	35.4
536.293	35.46
536.721	35.53
537.149	35.59
537.576	35.65
538.004	35.73
538.432	35.79
538.86	35.83
539.287	35.88
539.715	35.96
540.143	35.99
540.57	36.03
540.998	36.07
541.425	36.1
541.852	36.14
542.28	36.18
542.707	36.19
543.134	36.23
543.561	36.29
543.988	36.34
544.415	36.34
544.842	36.38
545.269	36.42
545.696	36.47
546.123	36.49
546.549	36.52
546.976	36.54
547.403	36.58
547.829	36.59
548.256	36.59
548.682	36.61
549.108	36.66
549.535	36.69
549.961	36.71
550.387	36.72
550.813	36.74
551.24	36.74
551.666	36.77
552.092	36.78
552.518	36.8
552.943	36.79
553.369	36.78
553.795	36.76
554.221	36.76
554.646	36.73
555.072	36.7
555.498	36.68
555.923	36.67
556.349	36.6
556.774	36.56
557.199	36.53
557.625	36.51
558.05	36.47
558.475	36.42
558.9	36.36
559.325	36.32
559.75	36.28
560.175	36.21
560.6	36.11
561.025	36.06
561.449	35.97
561.874	35.88
562.299	35.8
562.723	35.71
563.148	35.6
563.572	35.49
563.997	35.39
564.421	35.27
564.846	35.16
565.27	35.08
565.694	34.99
566.118	34.89
566.542	34.78
566.966	34.65
567.39	34.54
567.814	34.43
568.238	34.32
568.662	34.21
569.086	34.1
569.509	33.98
569.933	33.85
570.357	33.71
570.78	33.61
571.204	33.5
571.627	33.39
572.05	33.28
572.474	33.2
572.897	33.09
573.32	32.96
573.743	32.86
574.166	32.77
574.589	32.67
575.012	32.58
575.435	32.47
575.858	32.37
576.281	32.27
576.704	32.18
577.126	32.07
577.549	31.98
577.972	31.9
578.394	31.82
578.817	31.74
579.239	31.64
579.661	31.58
580.084	31.51
580.506	31.43
580.928	31.37
581.35	31.29
581.772	31.22
582.194	31.15
582.616	31.08
583.038	31
583.46	30.93
583.882	30.88
584.303	30.81
584.725	30.75
585.147	30.69
585.568	30.61
585.99	30.55
586.411	30.51
586.833	30.43
587.254	30.38
587.675	30.32
588.096	30.24
588.518	30.19
588.939	30.12
589.36	30.07
589.781	30.02
590.202	29.98
590.623	29.93
591.043	29.88
591.464	29.85
591.885	29.8
592.305	29.78
592.726	29.77
593.147	29.71
593.567	29.68
593.987	29.63
594.408	29.58
594.828	29.53
595.248	29.49
595.669	29.44
596.089	29.39
596.509	29.35
596.929	29.3
597.349	29.24
597.769	29.21
598.189	29.15
598.608	29.12
599.028	29.1
599.448	29.05
599.867	29
600.287	28.96
600.706	28.93
601.126	28.89
601.545	28.84
601.965	28.81
602.384	28.76
602.803	28.7
603.222	28.65
603.641	28.58
604.061	28.54
604.48	28.47
604.898	28.41
605.317	28.36
605.736	28.3
606.155	28.26
606.574	28.19
606.992	28.14
607.411	28.09
607.829	28
608.248	27.93
608.666	27.86
609.085	27.8
609.503	27.74
609.921	27.67
610.339	27.6
610.758	27.53
611.176	27.46
611.594	27.38
612.012	27.32
612.43	27.27
612.847	27.22
613.265	27.15
613.683	27.09
614.101	27.02
614.518	26.93
614.936	26.86
615.353	26.78
615.771	26.73
616.188	26.66
616.606	26.59
617.023	26.53
617.44	26.47
617.857	26.42
618.274	26.37
618.691	26.32
619.108	26.27
619.525	26.23
619.942	26.2
620.359	26.14
620.776	26.12
621.192	26.09
621.609	26.07
622.026	26.04
622.442	26.01
622.859	25.99
623.275	25.96
623.691	25.95
624.108	25.93
624.524	25.91
624.94	25.91
625.356	25.89
625.772	25.88
626.188	25.87
626.604	25.86
627.02	25.85
627.436	25.84
627.852	25.83
628.268	25.83
628.683	25.82
629.099	25.82
629.514	25.79
629.93	25.77
630.345	25.74
630.761	25.67
631.176	25.64
631.591	25.59
632.007	25.53
632.422	25.45
632.837	25.38
633.252	25.29
633.667	25.19
634.082	25.07
634.497	24.97
634.911	24.87
635.326	24.77
635.741	24.63
636.155	24.49
636.57	24.34
636.984	24.19
637.399	24.02
637.813	23.86
638.228	23.68
638.642	23.5
639.056	23.3
639.47	23.12
639.884	22.91
640.298	22.69
640.712	22.5
641.126	22.31
641.54	22.11
641.954	21.91
642.368	21.72
642.781	21.53
643.195	21.35
643.609	21.16
644.022	20.98
644.436	20.82
644.849	20.67
645.262	20.51
645.676	20.36
646.089	20.24
646.502	20.12
646.915	20.01
647.328	19.92
647.741	19.83
648.154	19.76
648.567	19.68
648.98	19.6
649.393	19.53
649.805	19.48
650.218	19.43
650.631	19.37
651.043	19.32
651.456	19.27
651.868	19.21
652.28	19.15
652.693	19.11
653.105	19.05
653.517	19
653.929	18.95
654.341	18.88
654.753	18.82
655.165	18.75
655.577	18.69
655.989	18.6
656.401	18.52
656.813	18.45
657.224	18.35
657.636	18.25
658.047	18.14
658.459	18.02
658.87	17.91
659.282	17.79
659.693	17.67
660.104	17.54
660.515	17.43
660.926	17.29
661.338	17.15
661.749	17
662.159	16.89
662.57	16.77
662.981	16.66
663.392	16.54
663.803	16.43
664.213	16.32
664.624	16.21
665.035	16.11
665.445	16.04
665.855	15.94
666.266	15.88
666.676	15.8
667.086	15.7
667.497	15.62
667.907	15.57
668.317	15.5
668.727	15.44
669.137	15.39
669.547	15.35
669.956	15.29
670.366	15.26
670.776	15.22
671.186	15.19
671.595	15.16
672.005	15.14
672.414	15.11
672.824	15.09
673.233	15.08
673.642	15.08
674.052	15.06
674.461	15.05
674.87	15.07
675.279	15.09
675.688	15.11
676.097	15.14
676.506	15.18
676.915	15.22
677.323	15.28
677.732	15.33
678.141	15.39
678.549	15.47
678.958	15.57
679.366	15.67
679.775	15.78
680.183	15.93
680.592	16.09
681	16.27
681.408	16.47
681.816	16.69
682.224	16.95
682.632	17.23
683.04	17.53
683.448	17.86
683.856	18.2
684.264	18.57
684.671	18.97
685.079	19.39
685.487	19.84
685.894	20.34
686.302	20.85
686.709	21.38
687.116	21.93
687.524	22.52
687.931	23.12
688.338	23.75
688.745	24.38
689.152	25.01
689.559	25.69
689.966	26.35
690.373	27.01
690.78	27.69
691.187	28.36
691.593	29.04
692	29.71
692.407	30.35
692.813	31
693.22	31.64
693.626	32.29
694.032	32.91
694.439	33.51
694.845	34.12
695.251	34.7
695.657	35.27
696.063	35.82
696.469	36.35
696.875	36.89
697.281	37.4
697.687	37.9
698.093	38.38
698.498	38.84
698.904	39.29
699.31	39.72
699.715	40.13
700.12	40.55
700.526	40.97
700.931	41.34
701.337	41.72
701.742	42.08
702.147	42.43
702.552	42.79
702.957	43.11
703.362	43.45
703.767	43.75
704.172	44.08
704.577	44.37
704.981	44.65
705.386	44.95
705.791	45.21
706.195	45.48
706.6	45.76
707.004	46.01
707.408	46.24
707.813	46.48
708.217	46.71
708.621	46.93
709.025	47.16
709.43	47.37
709.834	47.59
710.237	47.8
710.641	47.99
711.045	48.17
711.449	48.36
711.853	48.61
712.256	48.78
712.66	48.95
713.064	49.12
713.467	49.28
713.87	49.44
714.274	49.58
714.677	49.74
715.08	49.89
715.484	50.06
715.887	50.22
716.29	50.31
716.693	50.46
717.096	50.6
717.499	50.75
717.901	50.89
718.304	51.01
718.707	51.14
719.109	51.29
719.512	51.39
719.915	51.49
720.317	51.58
720.719	51.66
721.122	51.75
721.524	51.85
721.926	51.95
722.328	52.04
722.731	52.11
723.133	52.2
723.535	52.27
723.937	52.36
724.338	52.44
724.74	52.53
725.142	52.71
725.544	52.79
725.945	52.9
726.347	52.92
726.748	52.97
727.15	53.02
727.551	53.08
727.952	53.12
728.354	53.18
728.755	53.2
729.156	53.23
729.557	53.19
729.958	53.2
730.359	53.22
730.76	53.29
731.161	53.34
731.562	53.4
731.962	53.44
732.363	53.48
732.763	53.51
733.164	53.57
733.564	53.6
733.965	53.62
734.365	53.65
734.766	53.67
735.166	53.67
735.566	53.71
735.966	53.72
736.366	53.72
736.766	53.74
737.166	53.78
737.566	53.8
737.966	53.82
738.365	53.85
738.765	53.89
739.165	53.9
739.564	53.96
739.964	53.97
740.363	53.99
740.763	54.02
741.162	54.04
741.561	54.04
741.96	54.02
742.36	54.02
742.759	54.03
743.158	54.04
743.557	54.06
743.955	54.04
744.354	54.04
744.753	54.07
745.152	54.11
745.55	54.14
745.949	54.13
746.348	54.2
746.746	54.22
747.144	54.26
747.543	54.27
747.941	54.28
748.339	54.28
748.737	54.3
749.136	54.29
749.534	54.24
749.932	54.23
750.33	54.25
750.727	54.24
751.125	54.25
751.523	54.24
751.921	54.23
752.318	54.23
752.716	54.23
753.113	54.25
753.511	54.25
753.908	54.3
754.305	54.31
754.703	54.29
755.1	54.28
755.497	54.28
755.894	54.28
756.291	54.31
756.688	54.32
757.085	54.36
757.482	54.34
757.878	54.33
758.275	54.31
758.672	54.31
759.068	54.34
759.465	54.34
759.861	54.34
760.258	54.34
760.654	54.32
761.05	54.31
761.447	54.3
761.843	54.29
762.239	54.28
762.635	54.27
763.031	54.26
763.427	54.21
763.822	54.22
764.218	54.24
764.614	54.26
765.01	54.27
765.405	54.23
765.801	54.2
766.196	54.19
766.592	54.19
766.987	54.19
767.382	54.19
767.778	54.22
768.173	54.21
768.568	54.17
768.963	54.16
769.358	54.15
769.753	54.17
770.148	54.17
770.542	54.19
770.937	54.19
771.332	54.18
771.726	54.21
772.121	54.22
772.515	54.23
772.91	54.24
773.304	54.24
773.699	54.23
774.093	54.22
774.487	54.22
774.881	54.23
775.275	54.2
775.669	54.2
776.063	54.17
776.457	54.16
776.851	54.17
777.245	54.15
777.638	54.16
778.032	54.18
778.425	54.23
778.819	54.23
779.212	54.22
779.606	54.27
779.999	54.29
780.392	54.32
780.786	54.32
781.179	54.34
781.572	54.38
781.965	54.37
782.358	54.36
782.751	54.36
783.143	54.37
783.536	54.38
783.929	54.38
784.322	54.39
784.714	54.4
785.107	54.43
785.499	54.42
785.891	54.42
786.284	54.44
786.676	54.44
787.068	54.44
787.46	54.46
787.852	54.46
788.245	54.47
788.636	54.44
789.028	54.43
789.42	54.41
789.812	54.41
790.204	54.43
790.595	54.43
790.987	54.45
791.378	54.45
791.77	54.45
792.161	54.45
792.553	54.47
792.944	54.48
793.335	54.5
793.726	54.53
794.117	54.52
794.508	54.48
794.899	54.49
795.29	54.48
795.681	54.47
796.072	54.47
796.463	54.51
796.853	54.51
797.244	54.52
797.634	54.52
798.025	54.55
798.415	54.56
798.806	54.56
799.196	54.57
799.586	54.59
799.976	54.6
800.366	54.62
800.756	54.63
801.146	54.63
801.536	54.65
801.926	54.68
802.316	54.66
802.706	54.66
803.095	54.71
803.485	54.71
803.874	54.71
804.264	54.75
804.653	54.73
805.043	54.73
805.432	54.74
805.821	54.74
806.21	54.73
806.599	54.74
806.988	54.76
807.377	54.74
807.766	54.75
808.155	54.73
808.544	54.73
808.933	54.73
809.321	54.72
809.71	54.73
810.098	54.75
810.487	54.74
810.875	54.73
811.264	54.74
811.652	54.75
812.04	54.74
812.428	54.78
812.816	54.78
813.204	54.8
813.592	54.8
813.98	54.81
814.368	54.81
814.756	54.81
815.144	54.83
815.531	54.85
815.919	54.86
816.306	54.86
816.694	54.84
817.081	54.86
817.469	54.87
817.856	54.87
818.243	54.84
818.63	54.82
819.017	54.84
819.404	54.83
819.791	54.83
820.178	54.83
820.565	54.84
820.952	54.84
821.339	54.8
821.725	54.82
822.112	54.81
822.498	54.82
822.885	54.86
823.271	54.83
823.657	54.81
824.044	54.81
824.43	54.82
824.816	54.83
825.202	54.84
825.588	54.87
825.974	54.84
826.36	54.85
826.746	54.84
827.132	54.81
827.517	54.85
827.903	54.86
828.289	54.87
828.674	54.87
829.06	54.86
829.445	54.84
829.83	54.81
830.216	54.78
830.601	54.79
830.986	54.8
831.371	54.79
831.756	54.77
832.141	54.78
832.526	54.76
832.911	54.75
833.295	54.74
833.68	54.77
834.065	54.79
834.449	54.8
834.834	54.77
835.218	54.76
835.603	54.75
835.987	54.74
836.371	54.73
836.755	54.7
837.139	54.65
837.524	54.66
837.908	54.66
838.291	54.65
838.675	54.66
839.059	54.66
839.443	54.67
839.827	54.67
840.21	54.67
840.594	54.67
840.977	54.7
841.361	54.72
841.744	54.68
842.127	54.64
842.511	54.64
842.894	54.61
843.277	54.62
843.66	54.61
844.043	54.61
844.426	54.62
844.809	54.62
845.191	54.63
845.574	54.64
845.957	54.67
846.339	54.69
846.722	54.69
847.104	54.7
847.487	54.7
847.869	54.7
848.252	54.7
848.634	54.71
849.016	54.72
849.398	54.72
849.78	54.72
850.162	54.73
850.544	54.73
850.926	54.74
851.307	54.73
851.689	54.73
852.071	54.72
852.452	54.72
852.834	54.71
853.215	54.7
853.597	54.7
853.978	54.7
854.359	54.69
854.741	54.7
855.122	54.69
855.503	54.72
855.884	54.73
856.265	54.73
856.646	54.73
857.026	54.75
857.407	54.76
857.788	54.74
858.169	54.77
858.549	54.79
858.93	54.78
859.31	54.8
859.69	54.81
860.071	54.81
860.451	54.82
860.831	54.84
861.211	54.83
861.591	54.84
861.971	54.84
862.351	54.82
862.731	54.81
863.111	54.83
863.491	54.83
863.87	54.81
864.25	54.8
864.629	54.82
865.009	54.82
865.388	54.82
865.768	54.84
866.147	54.84
866.526	54.84
866.905	54.85
867.284	54.87
867.663	54.86
868.042	54.87
868.421	54.9
868.8	54.92
869.179	54.93
869.558	54.94
869.936	54.93
870.315	54.93
870.693	54.95
871.072	54.97
871.45	54.97
871.828	55
872.207	55.02
872.585	55
872.963	54.99
873.341	54.96
873.719	54.95
874.097	54.95
874.475	54.99
874.853	55
875.23	55.01
875.608	55.01
875.986	55.02
876.363	55.02
876.741	55.03
877.118	55.05
877.495	55.08
877.873	55.1
878.25	55.12
878.627	55.08
879.004	55.08
879.381	55.08
879.758	55.05
880.135	55.03
880.512	55.02
880.889	55.01
881.265	55
881.642	55
882.019	54.99
882.395	54.96
882.772	54.95
883.148	54.92
883.524	54.89
883.901	54.89
884.277	54.87
884.653	54.85
885.029	54.83
885.405	54.82
885.781	54.8
886.157	54.79
886.532	54.78
886.908	54.78
887.284	54.78
887.659	54.75
888.035	54.74
888.411	54.74
888.786	54.74
889.161	54.76
889.537	54.76
889.912	54.74
890.287	54.75
890.662	54.76
891.037	54.76
891.412	54.76
891.787	54.77
892.162	54.77
892.536	54.76
892.911	54.75
893.286	54.75
893.66	54.73
894.035	54.73
894.409	54.71
894.784	54.71
895.158	54.69
895.532	54.67
895.906	54.67
896.281	54.66
896.655	54.65
897.029	54.64
897.402	54.64
897.776	54.66
898.15	54.68
898.524	54.68
898.898	54.66
899.271	54.68
899.645	54.73
900.018	54.74
900.392	54.79
900.765	54.84
901.138	54.85
901.511	54.86
901.884	54.89
902.258	54.89
902.631	54.91
903.003	54.95
903.376	54.93
903.749	54.92
904.122	54.95
904.495	54.94
904.867	54.92
905.24	54.93
905.612	54.94
905.985	54.89
906.357	54.88
906.729	54.91
907.102	54.89
907.474	54.91
907.846	54.92
908.218	54.88
908.59	54.92
908.962	54.93
909.334	54.96
909.705	54.95
910.077	54.98
910.449	54.99
910.82	54.98
911.192	54.97
911.563	54.97
911.935	54.95
912.306	54.96
912.677	54.93
913.048	54.95
913.419	54.95
913.79	54.97
914.161	55
914.532	55.01
914.903	55.01
915.274	55.05
915.645	55.07
916.015	55.1
916.386	55.13
916.756	55.12
917.127	55.13
917.497	55.13
917.868	55.12
918.238	55.11
918.608	55.13
918.978	55.15
919.348	55.16
919.718	55.14
920.088	55.12
920.458	55.13
920.828	55.11
921.198	55.07
921.567	55.05
921.937	55.07
922.306	55.06
922.676	55.05
923.045	54.99
923.415	54.96
923.784	54.99
924.153	55.02
924.522	55.02
924.891	55.04
925.26	55.08
925.629	55.1
925.998	55.09
926.367	55.11
926.736	55.1
927.104	55.14
927.473	55.14
927.842	55.1
928.21	55.08
928.578	55.05
928.947	55.04
929.315	54.98
929.683	54.93
930.051	54.88
930.42	54.86
930.788	54.85
931.156	54.81
931.523	54.77
931.891	54.79
932.259	54.83
932.627	54.85
932.994	54.88
933.362	54.85
933.729	54.88
934.097	54.87
934.464	54.87
934.831	54.87
935.199	54.92
935.566	54.95
935.933	54.88
936.3	54.81
936.667	54.8
937.034	54.81
937.401	54.89
937.767	54.92
938.134	54.95
938.501	54.99
938.867	55.04
939.234	55.03
939.6	55.05
939.967	55.14
940.333	55.16
940.699	55.19
941.065	55.14
941.431	55.17
941.798	55.17
942.163	55.16
942.529	55.1
942.895	55.09
943.261	55.08
943.627	55.05
943.992	55.08
944.358	55.11
944.723	55.03
945.089	55.01
945.454	54.97
945.82	54.93
946.185	54.94
946.55	54.93
946.915	54.93
947.28	54.9
947.645	54.91
948.01	54.88
948.375	54.84
948.74	54.81
949.104	54.79
949.469	54.77
949.834	54.79
950.198	54.81
950.562	54.81
950.927	54.76
951.291	54.71
951.655	54.64
952.02	54.57
952.384	54.5
952.748	54.53
953.112	54.54
953.476	54.49
953.839	54.38
954.203	54.37
954.567	54.32
954.931	54.26
955.294	54.24
955.658	54.33
956.021	54.33
956.385	54.33
956.748	54.26
957.111	54.22
957.474	54.21
957.837	54.18
958.2	54.1
958.563	54.05
958.926	54.1
959.289	54.08
959.652	53.95
960.015	53.95
960.377	53.99
960.74	54.02
961.102	54.03
961.465	54.07
961.827	54.15
962.189	54.15
962.552	54.12
962.914	54.06
963.276	54.1
963.638	54.17
964	54.18
964.362	54.18
964.724	54.13
965.085	54.13
965.447	54.1
965.809	54.13
966.17	54.11
966.532	54.16
966.893	54.23
967.255	54.26
967.616	54.22
967.977	54.19
968.338	54.12
968.699	54.18
969.061	54.13
969.421	54.17
969.782	54.18
970.143	54.19
970.504	54.24
970.865	54.26
971.225	54.16
971.586	54.14
971.946	54.16
972.307	54.18
972.667	54.12
973.027	54.17
973.388	54.13
973.748	54.14
974.108	54.19
974.468	54.13
974.828	54.13
975.188	54.19
975.548	54.2
975.907	54.24
976.267	54.23
976.627	54.28
976.986	54.28
977.346	54.23
977.705	54.17
978.064	54.19
978.424	54.19
978.783	54.08
979.142	54.05
979.501	54
979.86	53.98
980.219	54
980.578	54.03
980.937	54.09
981.296	54.09
981.654	54.16
982.013	54.14
982.371	54.17
982.73	54.25
983.088	54.28
983.447	54.36
983.805	54.35
984.163	54.39
984.521	54.36
984.879	54.23
985.237	54.26
985.595	54.2
985.953	54.18
986.311	54.11
986.669	54.06
987.026	54.03
987.384	54.05
987.741	53.99
988.099	54.02
988.456	54.01
988.814	54.01
989.171	54
989.528	54.02
989.885	54.04
990.242	54.08
990.599	54.19
990.956	54.2
991.313	54.18
991.67	54.23
992.027	54.3
992.383	54.39
992.74	54.52
993.096	54.52
993.453	54.51
993.809	54.54
994.165	54.59
994.522	54.67
994.878	54.66
995.234	54.69
995.59	54.64
995.946	54.58
996.302	54.54
996.658	54.51
997.013	54.54
997.369	54.63
997.725	54.6
998.08	54.66
998.436	54.55
998.791	54.7
999.147	54.75
999.502	54.9
999.857	54.83
1000.212	54.85
1000.567	54.84
1000.922	54.91
1001.277	54.95
1001.632	54.96
1001.987	54.95
1002.342	54.91
1002.696	54.78
1003.051	54.82
1003.406	54.97
1003.76	55.06
1004.114	55.08
1004.469	55.12
1004.823	55.28
1005.177	55.22
1005.531	55.3
1005.885	55.25
1006.239	55.31
1006.593	55.53
1006.947	55.42
1007.301	55.28
1007.655	55.37
1008.008	55.43
1008.362	55.46
1008.715	55.26
1009.069	55.28
1009.422	55.2
1009.776	55.23
1010.129	55.18
1010.482	55.09
1010.835	55.19
1011.188	55.22
1011.541	55.18
1011.894	55.24
1012.247	55.38
1012.6	55.48
1012.952	55.46
1013.305	55.63
1013.657	55.77
1014.01	55.95
1014.362	55.95
1014.715	56.13
1015.067	56.27
1015.419	56.41
1015.771	56.26
1016.123	56.27
1016.475	56.35
1016.827	56.4
1017.179	56.41
1017.531	56.47
1017.883	56.56
1018.234	56.71
1018.586	56.74
1018.938	56.79
1019.289	56.71
1019.64	56.71
1019.992	56.67
1020.343	56.71
1020.694	56.91
1021.045	57.08
1021.396	57.09
1021.747	57.38
1022.098	57.55
1022.449	57.44
1022.8	57.45
1023.151	57.46
1023.501	57.87
1023.852	57.99
1024.202	57.97
1024.553	58.03
1024.903	58.21
1025.253	58.53
1025.604	58.18
1025.954	57.79
1026.304	57.93
1026.654	57.99
1027.004	58.2
1027.354	58.11
1027.703	58.04
1028.053	58
1028.403	57.99
1028.753	57.5
1029.102	57.26
1029.452	57.39
1029.801	57.79
1030.15	57.71
1030.499	57.54
897.758	1454.53
901.051	1466.71
904.343	1458.74
907.636	1486.1
910.928	1444.76
914.22	1443
917.511	1421.22
920.803	1361.61
924.094	1355.09
927.384	1327.31
930.675	1273.32
933.965	1267.13
937.255	1187.38
940.544	1141.69
943.834	1087.27
947.123	1079.49
950.411	1016.66
953.7	997.09
956.988	940.34
960.276	903.69
963.563	890.26
966.851	857.02
970.138	848.23
973.424	824.05
976.711	830.34
979.997	787.51
983.283	782.68
986.568	766.53
989.853	744.09
993.138	732.64
996.423	705.45
999.708	682.98
1002.992	675.32
1006.275	646.87
1009.559	641.05
1012.842	616.91
1016.125	600.19
1019.408	589.33
1022.69	582.04
1025.972	569.19
1029.254	555.01
1032.536	545.37
1035.817	536.49
1039.098	528.86
1042.379	517.55
1045.659	511.81
1048.939	498.96
1052.219	490.17
1055.498	481.75
1058.778	470.43
1062.057	460.14
1065.335	454.83
1068.614	450.44
1071.892	444.32
1075.17	430.52
1078.447	422.14
1081.724	418.96
1085.001	416.17
1088.278	408.19
1091.554	400.47
1094.83	401.08
1098.106	397.88
1101.382	394.82
1104.657	391.19
1107.932	385.11
1111.206	387.26
1114.481	377.65
1117.755	374.82
1121.029	370.81
1124.302	369.71
1127.575	363.57
1130.848	358.44
1134.121	354.68
1137.393	352.97
1140.665	345.34
1143.937	343.71
1147.208	341.34
1150.48	340.99
1153.75	336.29
1157.021	332.36
1160.291	332.17
1163.561	328.48
1166.831	329.34
1170.101	327.02
1173.37	325.69
1176.639	326.38
1179.907	323.52
1183.176	320.18
1186.444	319.45
1189.711	318.6
1192.979	317.46
1196.246	315.73
1199.513	316.63
1202.78	314.32
1206.046	314.61
1209.312	312.09
1212.578	312.27
1215.843	314.62
1219.108	312.39
1222.373	319.16
1225.638	321.54
1228.902	326.45
1232.166	326.34
1235.43	329.52
1238.693	333.02
1241.956	334.57
1245.219	339.93
1248.482	340.13
1251.744	339.65
1255.006	341.91
1258.268	333.44
1261.529	330.35
1264.79	327.13
1268.051	325.8
1271.312	321.92
1274.572	317.63
1277.832	314.63
1281.092	309.65
1284.351	307.22
1287.61	307.35
1290.869	301.86
1294.128	300.12
1297.386	299.99
1300.644	297.56
1303.902	298.65
1307.159	296.7
1310.416	297.8
1313.673	297.52
1316.93	300.29
1320.186	300.45
1323.442	301.05
1326.697	307.01
1329.953	308.27
1333.208	308.73
1336.463	312.37
1339.717	312.28
1342.972	316.89
1346.226	319
1349.479	319.35
1352.733	320.62
1355.986	322.54
1359.238	322.25
1362.491	324.11
1365.743	326.51
1368.995	327.94
1372.247	326.77
1375.498	326.95
1378.749	329.28
1382	324.69
1385.251	326.81
1388.501	324.71
1391.751	326.12
1395	324.64
1398.25	321.83
1401.499	320.18
1404.748	319.55
1407.996	316.43
1411.244	315.3
1414.492	312.82
1417.74	311.58
1420.987	306.33
1424.234	306.76
1427.481	301.8
1430.728	301.97
1433.974	298.46
1437.22	297.06
1440.465	295.67
1443.711	293.86
1446.956	292.19
1450.201	288.8
1453.445	286.15
1456.689	285.49
1459.933	280.03
1463.177	278.33
1466.42	274.14
1469.663	270.83
1472.906	268.18
1476.148	261.86
1479.391	258.44
1482.633	255.94
1485.874	251.95
1489.115	250.12
1492.356	247.31
1495.597	247.18
1498.838	243.16
1502.078	241.64
1505.318	240.88
1508.557	240.85
1511.797	240.67
1515.036	239.55
1518.274	238.44
1521.513	236.7
1524.751	235.98
1527.989	235.29
1531.227	233.99
1534.464	234.97
1537.701	232.77
1540.938	232.14
1544.174	229.51
1547.41	229.38
1550.646	227.88
1553.882	228.38
1557.117	225.15
1560.352	224.32
1563.587	223.66
1566.821	221.98
1570.055	219.39
1573.289	218.31
1576.523	217.99
1579.756	215.77
1582.989	214.66
1586.222	215.08
1589.454	212.79
1592.686	215.17
1595.918	213.56
1599.15	212.55
1602.381	213.26
1605.612	213.36
1608.843	214.23
1612.073	213.72
1615.303	215.33
1618.533	215.05
1621.762	214.67
1624.992	215.46
1628.221	214.71
1631.449	215
1634.678	214.26
1637.906	215.32
1641.134	215.4
1644.361	214.56
1647.588	215.66
1650.815	214.7
1654.042	213.73
1657.269	215.13
1660.495	215.14
1663.72	214.39
1666.946	215.62
1670.171	216.48
1673.396	215.5
1676.621	215.86
1679.845	216.22
1683.069	216.14
1686.293	218.04
1689.517	219.38
1692.74	218.63
1695.963	219.53
1699.185	221.7
1702.408	221.17
1705.63	222.31
1708.852	222.98
1712.073	223.47
1715.294	223.97
1718.515	225.65
1721.736	224.72
1724.956	225.22
1728.176	225.29
1731.396	227.36
1734.616	226.38
1737.835	227.41
1741.054	226.07
1744.272	226.78
1747.491	228.82
1750.709	229.05
1753.927	228.37
1757.144	227.94
1760.361	229.27
1763.578	230.01
1766.795	229.07
1770.011	231.15
1773.227	231.24
1776.443	233.4
1779.658	234.54
1782.874	233.9
1786.089	235.19
1789.303	235.87
1792.518	238.38
1795.732	238.26
1798.945	240.17
1802.159	240.21
1805.372	240.65
1808.585	244.89
1811.797	245.71
1815.01	246.03
1818.222	247.67
1821.434	249.49
1824.645	250.49
1827.856	254.61
1831.067	256.44
1834.278	256.28
1837.488	258.18
1840.698	259.96
1843.908	257.09
1847.117	259.11
1850.326	260.5
1853.535	259.82
1856.744	263.78
1859.952	263.28
1863.16	261.85
1866.368	260.36
1869.575	263.28
1872.782	259.07
1875.989	258.37
1879.196	257.37
1882.402	255.37
1885.608	256.65
1888.814	257.03
1892.019	255.82
1895.224	255.29
1898.429	253.3
1901.634	254.18
1904.838	254.12
1908.042	257.08
1911.246	257.82
1914.449	259.62
1917.652	259.45
1920.855	258.85
1924.058	258.45
1927.26	256.84
1930.462	257.58
1933.664	261.2
1936.865	259.39
1940.066	258.61
1943.267	257.29
1946.467	257.04
1949.668	258.81
1952.868	262.08
1956.067	261.9
1959.267	262.39
1962.466	263.46
1965.665	261.86
1968.863	262.16
1972.061	266.17
1975.259	269.07
1978.457	271.29
1981.654	273.77
1984.852	273.88
1988.048	273.04
1991.245	275.42
1994.441	278.97
1997.637	281.02
2000.833	287.12
2004.028	290.71
2007.223	291.1
2010.418	293.53
2013.613	298.84
2016.807	300.94
2020.001	304.04
2023.194	308.67
2026.388	315.82
2029.581	322.67
2032.774	325.06
2035.966	331.42
2039.158	331.79
2042.35	339
2045.542	340.83
2048.733	346.5
2051.924	351.18
2055.115	356.95
2058.306	357.65
2061.496	361.49
2064.686	361.07
2067.875	367.97
2071.065	370.25
2074.254	368.44
2077.442	372.56
2080.631	374.69
2083.819	377.48
2087.007	379
2090.195	382.77
2093.382	386.47
2096.569	383.5
2099.756	389.33
2102.942	389.71
2106.128	393.62
2109.314	401.42
2112.5	400.47
2115.685	408.75
2118.87	409.85
2122.055	416.92
2125.239	420.16
2128.424	424.14
2131.608	427.98
2134.791	434.32
2137.974	436.3
2141.157	436.76
2144.34	439.24
2147.523	445.62
2150.705	442.34
2153.887	446.12
2157.068	446.83
2160.25	443.44
2163.431	446.05
2166.611	450.15
2169.792	458.48
2172.972	463.63
2176.152	466.48
2179.331	472.23
2182.511	479.93
2185.69	485.59
2188.868	495.33
2192.047	496.47
2195.225	510.4
2198.403	522.92
2201.58	533.07
2204.758	542.65
2207.935	553.81
2211.111	563.6
2214.288	570.17
2217.464	571.43
2220.64	580.8
2223.815	588.06
2226.991	611.97
2230.166	613.2
2233.34	623.58
2236.515	633.19
2239.689	633.29
2242.863	636.33
2246.036	654.02
2249.209	648.3
2252.382	660.35
2255.555	679.96
2258.727	682.41
2261.9	685.61
2265.071	692.09
2268.243	702.9
2271.414	712.63
2274.585	728.45
2277.756	736.86
2280.926	741.41
2284.096	761.43
2287.266	776.67
2290.436	781.65
2293.605	800.89
2296.774	825.2
2299.942	851.41
2303.111	855.74
2306.279	873.44
2309.447	886.73
2312.614	909.43
2315.781	934.47
2318.948	977.54
2322.115	962.73
2325.281	1013.23
2328.447	991.33
2331.613	1033.07
2334.779	1020.64
2337.944	1065.71
2341.109	1076.12
2344.274	1104.48
2347.438	1145
2350.602	1143.3
2353.766	1178.34
2356.929	1197.46
2360.092	1188.27
2363.255	1274.27
2366.418	1268.52
2369.58	1291
2372.742	1376.99
2375.904	1411.91
2379.066	1401.02
2382.227	1367.81
2385.388	1488.59
2388.548	1487.15
2391.709	1504.6
2394.869	1680.68
2398.029	1611.68
2401.188	1658.76
2404.347	1654.87
2407.506	1617.62
2410.665	1662.89
2413.823	1766.35
2416.981	1874.77
2420.139	1809.65
2423.296	1789.95
2426.453	1867.99
2429.61	1793.58
2432.767	1876.21
2435.923	1857.22
2439.079	2024.69
2442.235	2054.12
2445.391	2035.85
2448.546	2019.63
2451.701	1961.87
2454.855	1960.07
2458.009	2087.11
2461.163	2168.92
2464.317	2248.82
2467.471	2304.95
2470.624	2308.28
2473.777	2246.52
2476.929	2196.26
2480.082	2127.46
2483.234	2104.61
2486.385	2211.37
2489.537	2224.2
2492.688	2298.87
2495.839	2236.57
2498.989	2188.03
2502.14	2197.49
2505.29	2222.01
2508.439	2256.6
2511.589	2245.6
2514.738	2457.29
2517.887	2397.83
2521.035	2536.36
2524.183	2559.84
2527.331	2574.67
2530.479	2568.15
2533.627	2589.1
