Data from N_2_DIV_WI_4N_Splice17_13-19-28-628.txt Node
Date: Sat Mar 07 13:19:28 EST 2020
User: sa697716
Spectrometer: NQ5500242
Trigger mode: 0
Integration Time (sec): 1.450000E-1
Scans to average: 20
Nonlinearity correction enabled: false
Boxcar width: 5
Storing dark spectrum: false
XAxis mode: Wavelengths
Number of Pixels in Spectrum: 512
>>>>>Begin Spectral Data<<<<<
187.83	98.51
188.298	116.03
188.766	107.87
189.233	89.68
189.701	76.27
190.169	110.83
190.636	126.44
191.104	171.69
191.571	41.61
192.039	21.58
192.506	86.13
192.974	94.74
193.441	132.7
193.908	72.36
194.375	53.62
194.842	-6.67
195.31	126.89
195.777	310.13
196.244	59.53
196.711	45.7
197.177	46.78
197.644	46.29
198.111	44.98
198.578	44.8
199.045	45.25
199.511	45
199.978	44.78
200.445	44.5
200.911	44.54
201.378	44.82
201.844	44.74
202.31	44.44
202.777	44.18
203.243	44.09
203.709	43.98
204.176	43.66
204.642	43.55
205.108	43.51
205.574	43.24
206.04	42.69
206.506	42.17
206.972	41.97
207.438	41.6
207.903	41.07
208.369	40.59
208.835	39.97
209.301	39.04
209.766	37.79
210.232	36.83
210.697	35.93
211.163	35.3
211.628	34.54
212.094	33.75
212.559	33.06
213.024	32.51
213.49	31.85
213.955	31.17
214.42	30.58
214.885	30.03
215.35	29.21
215.815	27.98
216.28	26.38
216.745	24.66
217.21	23.08
217.675	21.48
218.14	20.14
218.604	18.96
219.069	17.99
219.534	17.19
219.998	16.52
220.463	15.96
220.927	15.41
221.392	15.03
221.856	14.7
222.32	14.37
222.785	14.15
223.249	13.88
223.713	13.65
224.177	13.41
224.642	13.19
225.106	12.95
225.57	12.73
226.034	12.6
226.497	12.43
226.961	12.27
227.425	12.11
227.889	11.94
228.353	11.79
228.816	11.63
229.28	11.51
229.744	11.37
230.207	11.25
230.671	11.1
231.134	10.94
231.597	10.82
232.061	10.7
232.524	10.57
232.987	10.43
233.45	10.32
233.914	10.21
234.377	10.09
234.84	9.98
235.303	9.88
235.766	9.8
236.229	9.71
236.691	9.59
237.154	9.5
237.617	9.41
238.08	9.33
238.542	9.23
239.005	9.15
239.468	9.07
239.93	8.99
240.393	8.92
240.855	8.82
241.317	8.73
241.78	8.67
242.242	8.58
242.704	8.52
243.166	8.45
243.629	8.4
244.091	8.32
244.553	8.24
245.015	8.17
245.477	8.09
245.939	8.03
246.4	7.97
246.862	7.9
247.324	7.84
247.786	7.77
248.247	7.69
248.709	7.62
249.17	7.55
249.632	7.5
250.093	7.45
250.555	7.39
251.016	7.34
251.477	7.28
251.939	7.23
252.4	7.17
252.861	7.13
253.322	7.1
253.783	7.05
254.244	7.01
254.705	6.97
255.166	6.93
255.627	6.89
256.088	6.86
256.549	6.83
257.009	6.78
257.47	6.73
257.931	6.67
258.391	6.62
258.852	6.57
259.312	6.52
259.773	6.48
260.233	6.43
260.694	6.39
261.154	6.33
261.614	6.29
262.074	6.24
262.534	6.2
262.994	6.17
263.455	6.14
263.915	6.11
264.374	6.08
264.834	6.05
265.294	6.02
265.754	5.99
266.214	5.97
266.673	5.95
267.133	5.93
267.593	5.91
268.052	5.89
268.512	5.87
268.971	5.86
269.431	5.84
269.89	5.81
270.349	5.79
270.809	5.77
271.268	5.76
271.727	5.73
272.186	5.71
272.645	5.69
273.104	5.67
273.563	5.65
274.022	5.63
274.481	5.62
274.94	5.6
275.399	5.58
275.857	5.56
276.316	5.54
276.775	5.52
277.233	5.51
277.692	5.48
278.15	5.46
278.609	5.44
279.067	5.42
279.525	5.4
279.984	5.39
280.442	5.37
280.9	5.35
281.358	5.34
281.816	5.32
282.274	5.31
282.732	5.29
283.19	5.27
283.648	5.25
284.106	5.24
284.564	5.21
285.021	5.19
285.479	5.17
285.937	5.15
286.394	5.13
286.852	5.1
287.309	5.07
287.767	5.05
288.224	5.03
288.682	5
289.139	4.97
289.596	4.96
290.053	4.93
290.511	4.91
290.968	4.89
291.425	4.86
291.882	4.85
292.339	4.83
292.796	4.82
293.252	4.8
293.709	4.79
294.166	4.77
294.623	4.76
295.079	4.75
295.536	4.74
295.992	4.72
296.449	4.71
296.905	4.69
297.362	4.68
297.818	4.66
298.274	4.65
298.731	4.63
299.187	4.62
299.643	4.6
300.099	4.59
300.555	4.57
301.011	4.56
301.467	4.55
301.923	4.54
302.379	4.53
302.835	4.52
303.291	4.51
303.746	4.5
304.202	4.5
304.658	4.49
305.113	4.48
305.569	4.47
306.024	4.46
306.479	4.45
306.935	4.44
307.39	4.43
307.845	4.42
308.301	4.41
308.756	4.41
309.211	4.4
309.666	4.39
310.121	4.38
310.576	4.37
311.031	4.37
311.486	4.36
311.94	4.36
312.395	4.36
312.85	4.35
313.305	4.34
313.759	4.34
314.214	4.33
314.668	4.32
315.123	4.31
315.577	4.31
316.032	4.31
316.486	4.3
316.94	4.29
317.394	4.28
317.849	4.26
318.303	4.24
318.757	4.22
319.211	4.22
319.665	4.2
320.119	4.18
320.572	4.17
321.026	4.15
321.48	4.14
321.934	4.12
322.387	4.1
322.841	4.1
323.295	4.1
323.748	4.1
324.202	4.09
324.655	4.08
325.108	4.09
325.562	4.08
326.015	4.08
326.468	4.07
326.921	4.06
327.374	4.06
327.827	4.05
328.28	4.05
328.733	4.05
329.186	4.05
329.639	4.04
330.092	4.03
330.545	4.03
330.997	4.03
331.45	4.03
331.903	4.04
332.355	4.04
332.808	4.04
333.26	4.04
333.713	4.04
334.165	4.03
334.617	4.04
335.069	4.03
335.522	4.03
335.974	4.04
336.426	4.02
336.878	4.02
337.33	4.01
337.782	4
338.234	4
338.686	3.99
339.137	3.99
339.589	3.98
340.041	3.97
340.493	3.95
340.944	3.94
341.396	3.92
341.847	3.91
342.299	3.89
342.75	3.88
343.201	3.86
343.653	3.85
344.104	3.83
344.555	3.82
345.006	3.8
345.457	3.8
345.908	3.79
346.359	3.79
346.81	3.78
347.261	3.77
347.712	3.76
348.163	3.76
348.613	3.76
349.064	3.76
349.515	3.76
349.965	3.76
350.416	3.74
350.866	3.73
351.317	3.72
351.767	3.72
352.217	3.72
352.668	3.72
353.118	3.71
353.568	3.7
354.018	3.71
354.468	3.71
354.918	3.7
355.368	3.71
355.818	3.71
356.268	3.71
356.718	3.72
357.168	3.71
357.617	3.7
358.067	3.7
358.517	3.7
358.966	3.69
359.416	3.69
359.865	3.69
360.315	3.69
360.764	3.69
361.213	3.68
361.663	3.67
362.112	3.68
362.561	3.68
363.01	3.67
363.459	3.66
363.908	3.65
364.357	3.65
364.806	3.64
365.255	3.63
365.703	3.63
366.152	3.64
366.601	3.64
367.05	3.64
367.498	3.63
367.947	3.63
368.395	3.64
368.844	3.63
369.292	3.63
369.74	3.63
370.189	3.62
370.637	3.61
371.085	3.6
371.533	3.59
371.981	3.58
372.429	3.58
372.877	3.56
373.325	3.55
373.773	3.55
374.221	3.54
374.669	3.53
375.116	3.52
375.564	3.51
376.012	3.51
376.459	3.49
376.907	3.49
377.354	3.49
377.801	3.49
378.249	3.48
378.696	3.47
379.143	3.46
379.591	3.46
380.038	3.46
380.485	3.45
380.932	3.45
381.379	3.46
381.826	3.46
382.273	3.45
382.72	3.44
383.166	3.43
383.613	3.43
384.06	3.42
384.506	3.41
384.953	3.4
385.4	3.4
385.846	3.41
386.292	3.4
386.739	3.39
387.185	3.38
387.631	3.39
388.078	3.38
388.524	3.37
388.97	3.38
389.416	3.38
389.862	3.38
390.308	3.39
390.754	3.38
391.2	3.38
391.645	3.38
392.091	3.39
392.537	3.4
392.983	3.4
393.428	3.41
393.874	3.4
394.319	3.4
394.765	3.4
395.21	3.4
395.655	3.4
396.101	3.4
396.546	3.4
396.991	3.41
397.436	3.42
397.881	3.43
398.326	3.44
398.771	3.45
399.216	3.45
399.661	3.46
400.106	3.46
400.551	3.47
400.995	3.47
401.44	3.48
401.885	3.48
402.329	3.48
402.774	3.48
403.218	3.5
403.663	3.51
404.107	3.52
404.551	3.53
404.995	3.53
405.44	3.53
405.884	3.55
406.328	3.56
406.772	3.57
407.216	3.59
407.66	3.59
408.104	3.58
408.547	3.59
408.991	3.6
409.435	3.59
409.879	3.61
410.322	3.63
410.766	3.65
411.209	3.67
411.653	3.68
412.096	3.7
412.54	3.71
412.983	3.72
413.426	3.74
413.869	3.75
414.312	3.78
414.756	3.8
415.199	3.79
415.642	3.8
416.085	3.8
416.527	3.8
416.97	3.79
417.413	3.79
417.856	3.78
418.298	3.77
418.741	3.76
419.184	3.75
419.626	3.75
420.069	3.76
420.511	3.76
420.953	3.77
421.396	3.78
421.838	3.78
422.28	3.79
422.722	3.83
423.164	3.84
423.606	3.85
424.048	3.87
424.49	3.87
424.932	3.87
425.374	3.85
425.816	3.83
426.258	3.81
426.699	3.82
427.141	3.81
427.582	3.8
428.024	3.81
428.465	3.8
428.907	3.81
429.348	3.8
429.789	3.8
430.231	3.82
430.672	3.84
431.113	3.88
431.554	3.89
431.995	3.91
432.436	3.91
432.877	3.92
433.318	3.94
433.759	3.96
434.2	3.98
434.64	4
435.081	4
435.522	4.01
435.962	4.02
436.403	4.04
436.843	4.03
437.284	4.03
437.724	4.03
438.164	4.02
438.604	4.02
439.045	4.02
439.485	4.02
439.925	4.03
440.365	4.04
440.805	4.02
441.245	4.02
441.685	4.06
442.125	4.07
442.564	4.08
443.004	4.08
443.444	4.09
443.883	4.11
444.323	4.1
444.762	4.11
445.202	4.1
445.641	4.11
446.081	4.11
446.52	4.1
446.959	4.12
447.398	4.12
447.837	4.13
448.276	4.11
448.716	4.11
449.154	4.12
449.593	4.12
450.032	4.13
450.471	4.12
450.91	4.11
451.349	4.11
451.787	4.09
452.226	4.08
452.664	4.08
453.103	4.08
453.541	4.06
453.98	4.05
454.418	4.03
454.856	4.02
455.295	4
455.733	3.97
456.171	3.96
456.609	3.95
457.047	3.94
457.485	3.93
457.923	3.94
458.361	3.93
458.798	3.93
459.236	3.92
459.674	3.92
460.111	3.93
460.549	3.95
460.987	3.95
461.424	3.96
461.862	3.97
462.299	3.97
462.736	3.97
463.173	3.97
463.611	3.99
464.048	4
464.485	4.01
464.922	4.01
465.359	4.01
465.796	4.01
466.233	4.01
466.67	4.01
467.106	4.03
467.543	4.03
467.98	4.02
468.416	4
468.853	3.99
469.29	3.97
469.726	3.95
470.162	3.95
470.599	3.95
471.035	3.92
471.471	3.92
471.907	3.9
472.344	3.89
472.78	3.9
473.216	3.88
473.652	3.88
474.088	3.88
474.523	3.88
474.959	3.88
475.395	3.86
475.831	3.85
476.266	3.84
476.702	3.82
477.138	3.81
477.573	3.8
478.008	3.8
478.444	3.79
478.879	3.79
479.314	3.77
479.75	3.76
480.185	3.75
480.62	3.74
481.055	3.73
481.49	3.73
481.925	3.72
482.36	3.72
482.795	3.71
483.229	3.7
483.664	3.7
484.099	3.69
484.534	3.68
484.968	3.69
485.403	3.68
485.837	3.7
486.271	3.71
486.706	3.7
487.14	3.71
487.574	3.71
488.009	3.71
488.443	3.72
488.877	3.74
489.311	3.75
489.745	3.76
490.179	3.79
490.613	3.8
491.046	3.81
491.48	3.84
491.914	3.86
492.348	3.88
492.781	3.92
493.215	3.94
493.648	3.97
494.082	4
494.515	4.03
494.948	4.06
495.382	4.09
495.815	4.13
496.248	4.17
496.681	4.21
497.114	4.26
497.547	4.3
497.98	4.36
498.413	4.41
498.846	4.47
499.279	4.52
499.711	4.59
500.144	4.67
500.577	4.73
501.009	4.81
501.442	4.88
501.874	4.97
502.306	5.06
502.739	5.16
503.171	5.26
503.603	5.36
504.036	5.48
504.468	5.59
504.9	5.71
505.332	5.83
505.764	5.96
506.196	6.1
506.627	6.24
507.059	6.38
507.491	6.53
507.923	6.69
508.354	6.86
508.786	7.03
509.217	7.21
509.649	7.4
510.08	7.59
510.512	7.79
510.943	7.99
511.374	8.19
511.805	8.41
512.237	8.63
512.668	8.87
513.099	9.09
513.53	9.32
513.961	9.57
514.391	9.81
514.822	10.06
515.253	10.3
515.684	10.56
516.114	10.82
516.545	11.08
516.975	11.34
517.406	11.59
517.836	11.86
518.267	12.13
518.697	12.39
519.127	12.65
519.558	12.91
519.988	13.17
520.418	13.43
520.848	13.67
521.278	13.93
521.708	14.26
522.138	14.5
522.567	14.74
522.997	14.97
523.427	15.21
523.857	15.44
524.286	15.65
524.716	15.87
525.145	16.08
525.575	16.3
526.004	16.51
526.433	16.62
526.863	16.81
527.292	17
527.721	17.18
528.15	17.34
528.579	17.5
529.008	17.67
529.437	17.81
529.866	17.96
530.295	18.09
530.724	18.22
531.152	18.35
531.581	18.46
532.01	18.57
532.438	18.68
532.867	18.78
533.295	18.88
533.723	18.96
534.152	19.05
534.58	19.12
535.008	19.18
535.436	19.25
535.865	19.29
536.293	19.35
536.721	19.4
537.149	19.46
537.576	19.5
538.004	19.55
538.432	19.59
538.86	19.62
539.287	19.67
539.715	19.72
540.143	19.76
540.57	19.79
540.998	19.82
541.425	19.84
541.852	19.87
542.28	19.91
542.707	19.95
543.134	19.97
543.561	20.01
543.988	20.03
544.415	20.04
544.842	20.06
545.269	20.09
545.696	20.12
546.123	20.16
546.549	20.18
546.976	20.19
547.403	20.21
547.829	20.23
548.256	20.24
548.682	20.26
549.108	20.29
549.535	20.31
549.961	20.31
550.387	20.32
550.813	20.3
551.24	20.29
551.666	20.29
552.092	20.27
552.518	20.27
552.943	20.25
553.369	20.23
553.795	20.2
554.221	20.16
554.646	20.11
555.072	20.06
555.498	20.03
555.923	19.98
556.349	19.91
556.774	19.85
557.199	19.79
557.625	19.72
558.05	19.63
558.475	19.56
558.9	19.48
559.325	19.42
559.75	19.33
560.175	19.22
560.6	19.12
561.025	19.02
561.449	18.91
561.874	18.78
562.299	18.65
562.723	18.52
563.148	18.38
563.572	18.24
563.997	18.1
564.421	17.97
564.846	17.84
565.27	17.69
565.694	17.56
566.118	17.39
566.542	17.25
566.966	17.1
567.39	16.96
567.814	16.82
568.238	16.67
568.662	16.53
569.086	16.37
569.509	16.23
569.933	16.1
570.357	15.94
570.78	15.8
571.204	15.65
571.627	15.52
572.05	15.39
572.474	15.27
572.897	15.14
573.32	15
573.743	14.88
574.166	14.75
574.589	14.62
575.012	14.52
575.435	14.42
575.858	14.33
576.281	14.22
576.704	14.11
577.126	14
577.549	13.9
577.972	13.8
578.394	13.71
578.817	13.62
579.239	13.53
579.661	13.45
580.084	13.36
580.506	13.27
580.928	13.19
581.35	13.12
581.772	13.04
582.194	12.96
582.616	12.9
583.038	12.83
583.46	12.75
583.882	12.7
584.303	12.62
584.725	12.55
585.147	12.48
585.568	12.42
585.99	12.37
586.411	12.32
586.833	12.26
587.254	12.19
587.675	12.14
588.096	12.09
588.518	12.02
588.939	11.99
589.36	11.94
589.781	11.9
590.202	11.85
590.623	11.8
591.043	11.75
591.464	11.73
591.885	11.7
592.305	11.65
592.726	11.62
593.147	11.59
593.567	11.55
593.987	11.52
594.408	11.48
594.828	11.44
595.248	11.42
595.669	11.39
596.089	11.35
596.509	11.32
596.929	11.3
597.349	11.26
597.769	11.24
598.189	11.2
598.608	11.17
599.028	11.15
599.448	11.12
599.867	11.08
600.287	11.05
600.706	11.02
601.126	10.98
601.545	10.93
601.965	10.89
602.384	10.85
602.803	10.79
603.222	10.75
603.641	10.69
604.061	10.63
604.48	10.58
604.898	10.52
605.317	10.46
605.736	10.41
606.155	10.36
606.574	10.29
606.992	10.22
607.411	10.16
607.829	10.06
608.248	9.99
608.666	9.93
609.085	9.86
609.503	9.79
609.921	9.72
610.339	9.64
610.758	9.57
611.176	9.51
611.594	9.45
612.012	9.38
612.43	9.34
612.847	9.28
613.265	9.21
613.683	9.15
614.101	9.1
614.518	9.03
614.936	8.97
615.353	8.9
615.771	8.85
616.188	8.78
616.606	8.72
617.023	8.67
617.44	8.62
617.857	8.57
618.274	8.51
618.691	8.46
619.108	8.42
619.525	8.37
619.942	8.35
620.359	8.31
620.776	8.29
621.192	8.26
621.609	8.24
622.026	8.21
622.442	8.2
622.859	8.18
623.275	8.15
623.691	8.14
624.108	8.13
624.524	8.12
624.94	8.1
625.356	8.09
625.772	8.06
626.188	8.05
626.604	8.04
627.02	8.02
627.436	8.02
627.852	8.02
628.268	8.01
628.683	8
629.099	7.98
629.514	7.96
629.93	7.94
630.345	7.93
630.761	7.9
631.176	7.88
631.591	7.86
632.007	7.82
632.422	7.78
632.837	7.74
633.252	7.69
633.667	7.65
634.082	7.6
634.497	7.54
634.911	7.48
635.326	7.42
635.741	7.36
636.155	7.28
636.57	7.22
636.984	7.15
637.399	7.07
637.813	6.99
638.228	6.91
638.642	6.82
639.056	6.73
639.47	6.66
639.884	6.58
640.298	6.5
640.712	6.41
641.126	6.32
641.54	6.23
641.954	6.14
642.368	6.07
642.781	5.99
643.195	5.91
643.609	5.84
644.022	5.75
644.436	5.67
644.849	5.6
645.262	5.53
645.676	5.47
646.089	5.41
646.502	5.36
646.915	5.31
647.328	5.26
647.741	5.21
648.154	5.17
648.567	5.14
648.98	5.11
649.393	5.08
649.805	5.05
650.218	5.02
650.631	5
651.043	4.97
651.456	4.95
651.868	4.93
652.28	4.9
652.693	4.88
653.105	4.85
653.517	4.81
653.929	4.78
654.341	4.74
654.753	4.7
655.165	4.67
655.577	4.63
655.989	4.59
656.401	4.53
656.813	4.49
657.224	4.45
657.636	4.39
658.047	4.33
658.459	4.28
658.87	4.23
659.282	4.18
659.693	4.13
660.104	4.07
660.515	4.02
660.926	3.97
661.338	3.91
661.749	3.86
662.159	3.83
662.57	3.8
662.981	3.77
663.392	3.74
663.803	3.71
664.213	3.68
664.624	3.65
665.035	3.62
665.445	3.61
665.855	3.59
666.266	3.58
666.676	3.56
667.086	3.54
667.497	3.52
667.907	3.51
668.317	3.51
668.727	3.5
669.137	3.5
669.547	3.5
669.956	3.5
670.366	3.51
670.776	3.5
671.186	3.51
671.595	3.52
672.005	3.51
672.414	3.52
672.824	3.52
673.233	3.54
673.642	3.54
674.052	3.56
674.461	3.57
674.87	3.59
675.279	3.61
675.688	3.64
676.097	3.66
676.506	3.69
676.915	3.72
677.323	3.75
677.732	3.77
678.141	3.8
678.549	3.83
678.958	3.87
679.366	3.91
679.775	3.94
680.183	3.98
680.592	4.02
681	4.07
681.408	4.12
681.816	4.17
682.224	4.24
682.632	4.32
683.04	4.39
683.448	4.47
683.856	4.55
684.264	4.65
684.671	4.76
685.079	4.88
685.487	5.03
685.894	5.19
686.302	5.37
686.709	5.56
687.116	5.79
687.524	6.03
687.931	6.3
688.338	6.59
688.745	6.89
689.152	7.22
689.559	7.58
689.966	7.95
690.373	8.35
690.78	8.77
691.187	9.21
691.593	9.66
692	10.13
692.407	10.6
692.813	11.1
693.22	11.61
693.626	12.15
694.032	12.69
694.439	13.22
694.845	13.77
695.251	14.32
695.657	14.86
696.063	15.43
696.469	16
696.875	16.56
697.281	17.14
697.687	17.7
698.093	18.23
698.498	18.79
698.904	19.34
699.31	19.89
699.715	20.44
700.12	21
700.526	21.53
700.931	22.07
701.337	22.6
701.742	23.1
702.147	23.62
702.552	24.14
702.957	24.63
703.362	25.12
703.767	25.59
704.172	26.06
704.577	26.53
704.981	26.98
705.386	27.43
705.791	27.87
706.195	28.33
706.6	28.78
707.004	29.2
707.408	29.63
707.813	30.07
708.217	30.49
708.621	30.92
709.025	31.3
709.43	31.69
709.834	32.09
710.237	32.47
710.641	32.84
711.045	33.2
711.449	33.59
711.853	33.98
712.256	34.32
712.66	34.67
713.064	34.99
713.467	35.34
713.87	35.7
714.274	36.03
714.677	36.35
715.08	36.67
715.484	36.99
715.887	37.32
716.29	37.59
716.693	37.91
717.096	38.22
717.499	38.51
717.901	38.8
718.304	39.09
718.707	39.36
719.109	39.64
719.512	39.89
719.915	40.15
720.317	40.37
720.719	40.62
721.122	40.85
721.524	41.08
721.926	41.32
722.328	41.55
722.731	41.74
723.133	41.97
723.535	42.17
723.937	42.39
724.338	42.56
724.74	42.77
725.142	43.05
725.544	43.22
725.945	43.42
726.347	43.56
726.748	43.71
727.15	43.84
727.551	43.98
727.952	44.11
728.354	44.25
728.755	44.41
729.156	44.55
729.557	44.59
729.958	44.72
730.359	44.83
730.76	44.96
731.161	45.08
731.562	45.24
731.962	45.32
732.363	45.43
732.763	45.54
733.164	45.62
733.564	45.7
733.965	45.79
734.365	45.88
734.766	45.94
735.166	46.06
735.566	46.11
735.966	46.19
736.366	46.26
736.766	46.33
737.166	46.4
737.566	46.46
737.966	46.53
738.365	46.59
738.765	46.63
739.165	46.69
739.564	46.71
739.964	46.78
740.363	46.81
740.763	46.85
741.162	46.89
741.561	46.9
741.96	46.93
742.36	46.94
742.759	46.96
743.158	46.98
743.557	46.98
743.955	47.04
744.354	47.06
744.753	47.09
745.152	47.15
745.55	47.19
745.949	47.23
746.348	47.29
746.746	47.33
747.144	47.39
747.543	47.45
747.941	47.48
748.339	47.47
748.737	47.48
749.136	47.49
749.534	47.48
749.932	47.49
750.33	47.51
750.727	47.51
751.125	47.53
751.523	47.51
751.921	47.51
752.318	47.54
752.716	47.56
753.113	47.6
753.511	47.62
753.908	47.65
754.305	47.67
754.703	47.65
755.1	47.64
755.497	47.64
755.894	47.66
756.291	47.66
756.688	47.66
757.085	47.66
757.482	47.64
757.878	47.62
758.275	47.63
758.672	47.62
759.068	47.64
759.465	47.66
759.861	47.68
760.258	47.69
760.654	47.69
761.05	47.72
761.447	47.74
761.843	47.74
762.239	47.75
762.635	47.74
763.031	47.74
763.427	47.76
763.822	47.77
764.218	47.77
764.614	47.77
765.01	47.78
765.405	47.75
765.801	47.71
766.196	47.71
766.592	47.7
766.987	47.69
767.382	47.68
767.778	47.67
768.173	47.65
768.568	47.64
768.963	47.62
769.358	47.61
769.753	47.62
770.148	47.63
770.542	47.64
770.937	47.65
771.332	47.66
771.726	47.67
772.121	47.66
772.515	47.67
772.91	47.67
773.304	47.67
773.699	47.68
774.093	47.65
774.487	47.66
774.881	47.67
775.275	47.66
775.669	47.65
776.063	47.65
776.457	47.63
776.851	47.6
777.245	47.59
777.638	47.58
778.032	47.58
778.425	47.64
778.819	47.64
779.212	47.61
779.606	47.62
779.999	47.6
780.392	47.64
780.786	47.66
781.179	47.69
781.572	47.73
781.965	47.75
782.358	47.75
782.751	47.73
783.143	47.74
783.536	47.77
783.929	47.77
784.322	47.81
784.714	47.79
785.107	47.81
785.499	47.78
785.891	47.76
786.284	47.78
786.676	47.77
787.068	47.76
787.46	47.74
787.852	47.74
788.245	47.74
788.636	47.71
789.028	47.7
789.42	47.69
789.812	47.72
790.204	47.72
790.595	47.71
790.987	47.7
791.378	47.73
791.77	47.74
792.161	47.73
792.553	47.75
792.944	47.77
793.335	47.78
793.726	47.78
794.117	47.77
794.508	47.75
794.899	47.76
795.29	47.77
795.681	47.76
796.072	47.75
796.463	47.78
796.853	47.78
797.244	47.76
797.634	47.77
798.025	47.78
798.415	47.78
798.806	47.79
799.196	47.78
799.586	47.8
799.976	47.82
800.366	47.83
800.756	47.83
801.146	47.84
801.536	47.85
801.926	47.83
802.316	47.84
802.706	47.85
803.095	47.86
803.485	47.86
803.874	47.82
804.264	47.83
804.653	47.83
805.043	47.82
805.432	47.79
805.821	47.78
806.21	47.79
806.599	47.79
806.988	47.77
807.377	47.76
807.766	47.78
808.155	47.78
808.544	47.8
808.933	47.78
809.321	47.8
809.71	47.82
810.098	47.81
810.487	47.79
810.875	47.77
811.264	47.77
811.652	47.78
812.04	47.76
812.428	47.79
812.816	47.74
813.204	47.72
813.592	47.69
813.98	47.69
814.368	47.69
814.756	47.7
815.144	47.69
815.531	47.7
815.919	47.67
816.306	47.69
816.694	47.68
817.081	47.7
817.469	47.72
817.856	47.7
818.243	47.68
818.63	47.67
819.017	47.68
819.404	47.67
819.791	47.65
820.178	47.66
820.565	47.64
820.952	47.64
821.339	47.63
821.725	47.64
822.112	47.68
822.498	47.7
822.885	47.7
823.271	47.7
823.657	47.69
824.044	47.7
824.43	47.72
824.816	47.73
825.202	47.72
825.588	47.7
825.974	47.7
826.36	47.68
826.746	47.68
827.132	47.67
827.517	47.68
827.903	47.7
828.289	47.73
828.674	47.72
829.06	47.71
829.445	47.7
829.83	47.71
830.216	47.69
830.601	47.69
830.986	47.67
831.371	47.67
831.756	47.67
832.141	47.65
832.526	47.64
832.911	47.62
833.295	47.63
833.68	47.64
834.065	47.65
834.449	47.64
834.834	47.65
835.218	47.65
835.603	47.66
835.987	47.63
836.371	47.65
836.755	47.6
837.139	47.6
837.524	47.59
837.908	47.61
838.291	47.6
838.675	47.62
839.059	47.6
839.443	47.58
839.827	47.56
840.21	47.55
840.594	47.55
840.977	47.54
841.361	47.57
841.744	47.53
842.127	47.51
842.511	47.51
842.894	47.49
843.277	47.47
843.66	47.47
844.043	47.49
844.426	47.51
844.809	47.52
845.191	47.55
845.574	47.55
845.957	47.58
846.339	47.58
846.722	47.57
847.104	47.59
847.487	47.61
847.869	47.6
848.252	47.59
848.634	47.6
849.016	47.58
849.398	47.57
849.78	47.56
850.162	47.56
850.544	47.56
850.926	47.57
851.307	47.56
851.689	47.55
852.071	47.58
852.452	47.58
852.834	47.6
853.215	47.61
853.597	47.61
853.978	47.61
854.359	47.6
854.741	47.59
855.122	47.58
855.503	47.56
855.884	47.54
856.265	47.53
856.646	47.52
857.026	47.51
857.407	47.48
857.788	47.46
858.169	47.47
858.549	47.49
858.93	47.5
859.31	47.51
859.69	47.54
860.071	47.55
860.451	47.55
860.831	47.56
861.211	47.54
861.591	47.53
861.971	47.53
862.351	47.52
862.731	47.51
863.111	47.48
863.491	47.49
863.87	47.47
864.25	47.46
864.629	47.46
865.009	47.47
865.388	47.48
865.768	47.5
866.147	47.5
866.526	47.48
866.905	47.48
867.284	47.5
867.663	47.48
868.042	47.5
868.421	47.5
868.8	47.48
869.179	47.47
869.558	47.47
869.936	47.47
870.315	47.46
870.693	47.47
871.072	47.47
871.45	47.45
871.828	47.47
872.207	47.47
872.585	47.46
872.963	47.47
873.341	47.45
873.719	47.45
874.097	47.43
874.475	47.45
874.853	47.44
875.23	47.47
875.608	47.48
875.986	47.5
876.363	47.49
876.741	47.49
877.118	47.51
877.495	47.54
877.873	47.54
878.25	47.58
878.627	47.57
879.004	47.59
879.381	47.57
879.758	47.54
880.135	47.5
880.512	47.49
880.889	47.5
881.265	47.47
881.642	47.46
882.019	47.47
882.395	47.41
882.772	47.42
883.148	47.39
883.524	47.38
883.901	47.38
884.277	47.37
884.653	47.36
885.029	47.34
885.405	47.34
885.781	47.33
886.157	47.31
886.532	47.32
886.908	47.29
887.284	47.31
887.659	47.3
888.035	47.3
888.411	47.29
888.786	47.29
889.161	47.31
889.537	47.29
889.912	47.29
890.287	47.27
890.662	47.27
891.037	47.29
891.412	47.26
891.787	47.24
892.162	47.25
892.536	47.26
892.911	47.23
893.286	47.23
893.66	47.22
894.035	47.23
894.409	47.23
894.784	47.23
895.158	47.19
895.532	47.22
895.906	47.22
896.281	47.22
896.655	47.22
897.029	47.27
897.402	47.26
897.776	47.28
898.15	47.29
898.524	47.31
898.898	47.29
899.271	47.31
899.645	47.32
900.018	47.34
900.392	47.35
900.765	47.36
901.138	47.34
901.511	47.35
901.884	47.35
902.258	47.34
902.631	47.34
903.003	47.38
903.376	47.38
903.749	47.35
904.122	47.34
904.495	47.35
904.867	47.34
905.24	47.37
905.612	47.38
905.985	47.36
906.357	47.34
906.729	47.34
907.102	47.34
907.474	47.35
907.846	47.37
908.218	47.36
908.59	47.36
908.962	47.35
909.334	47.33
909.705	47.3
910.077	47.3
910.449	47.31
910.82	47.33
911.192	47.33
911.563	47.31
911.935	47.3
912.306	47.33
912.677	47.35
913.048	47.37
913.419	47.35
913.79	47.35
914.161	47.36
914.532	47.38
914.903	47.38
915.274	47.38
915.645	47.39
916.015	47.38
916.386	47.35
916.756	47.29
917.127	47.29
917.497	47.33
917.868	47.34
918.238	47.34
918.608	47.36
918.978	47.32
919.348	47.33
919.718	47.32
920.088	47.35
920.458	47.37
920.828	47.37
921.198	47.34
921.567	47.31
921.937	47.28
922.306	47.28
922.676	47.25
923.045	47.24
923.415	47.19
923.784	47.18
924.153	47.18
924.522	47.17
924.891	47.19
925.26	47.21
925.629	47.2
925.998	47.22
926.367	47.2
926.736	47.22
927.104	47.26
927.473	47.27
927.842	47.28
928.21	47.28
928.578	47.27
928.947	47.27
929.315	47.27
929.683	47.28
930.051	47.26
930.42	47.27
930.788	47.25
931.156	47.2
931.523	47.19
931.891	47.19
932.259	47.15
932.627	47.12
932.994	47.09
933.362	47.05
933.729	47.05
934.097	47.07
934.464	47.07
934.831	47.07
935.199	47.11
935.566	47.12
935.933	47.1
936.3	47.13
936.667	47.15
937.034	47.17
937.401	47.23
937.767	47.25
938.134	47.23
938.501	47.26
938.867	47.26
939.234	47.24
939.6	47.25
939.967	47.29
940.333	47.22
940.699	47.29
941.065	47.26
941.431	47.22
941.798	47.17
942.163	47.13
942.529	47.07
942.895	47.03
943.261	47.05
943.627	47
943.992	46.94
944.358	46.99
944.723	46.96
945.089	46.95
945.454	46.95
945.82	46.95
946.185	46.96
946.55	46.93
946.915	46.93
947.28	46.86
947.645	46.86
948.01	46.89
948.375	46.86
948.74	46.8
949.104	46.81
949.469	46.79
949.834	46.77
950.198	46.77
950.562	46.73
950.927	46.7
951.291	46.61
951.655	46.56
952.02	46.52
952.384	46.45
952.748	46.48
953.112	46.49
953.476	46.43
953.839	46.39
954.203	46.35
954.567	46.35
954.931	46.3
955.294	46.31
955.658	46.35
956.021	46.3
956.385	46.27
956.748	46.23
957.111	46.18
957.474	46.2
957.837	46.13
958.2	46.13
958.563	46.11
958.926	46.11
959.289	46.17
959.652	46.15
960.015	46.16
960.377	46.18
960.74	46.15
961.102	46.14
961.465	46.16
961.827	46.21
962.189	46.21
962.552	46.19
962.914	46.21
963.276	46.2
963.638	46.22
964	46.21
964.362	46.23
964.724	46.24
965.085	46.21
965.447	46.2
965.809	46.21
966.17	46.18
966.532	46.17
966.893	46.17
967.255	46.15
967.616	46.11
967.977	46.15
968.338	46.14
968.699	46.14
969.061	46.18
969.421	46.21
969.782	46.2
970.143	46.21
970.504	46.26
970.865	46.29
971.225	46.27
971.586	46.25
971.946	46.22
972.307	46.18
972.667	46.15
973.027	46.17
973.388	46.18
973.748	46.24
974.108	46.29
974.468	46.27
974.828	46.29
975.188	46.3
975.548	46.3
975.907	46.3
976.267	46.34
976.627	46.38
976.986	46.3
977.346	46.19
977.705	46.19
978.064	46.18
978.424	46.16
978.783	46.14
979.142	46.17
979.501	46.2
979.86	46.2
980.219	46.18
980.578	46.19
980.937	46.25
981.296	46.26
981.654	46.2
982.013	46.22
982.371	46.22
982.73	46.22
983.088	46.23
983.447	46.21
983.805	46.29
984.163	46.28
984.521	46.22
984.879	46.15
985.237	46.17
985.595	46.23
985.953	46.22
986.311	46.22
986.669	46.18
987.026	46.17
987.384	46.18
987.741	46.13
988.099	46.16
988.456	46.21
988.814	46.28
989.171	46.3
989.528	46.26
989.885	46.27
990.242	46.31
990.599	46.37
990.956	46.37
991.313	46.34
991.67	46.33
992.027	46.38
992.383	46.41
992.74	46.5
993.096	46.52
993.453	46.5
993.809	46.49
994.165	46.52
994.522	46.58
994.878	46.62
995.234	46.62
995.59	46.68
995.946	46.74
996.302	46.73
996.658	46.63
997.013	46.62
997.369	46.68
997.725	46.68
998.08	46.76
998.436	46.71
998.791	46.73
999.147	46.78
999.502	46.72
999.857	46.61
1000.212	46.57
1000.567	46.6
1000.922	46.58
1001.277	46.61
1001.632	46.63
1001.987	46.53
1002.342	46.5
1002.696	46.48
1003.051	46.51
1003.406	46.62
1003.76	46.59
1004.114	46.58
1004.469	46.61
1004.823	46.9
1005.177	46.87
1005.531	46.8
1005.885	46.89
1006.239	46.94
1006.593	47.05
1006.947	47.12
1007.301	46.98
1007.655	47.09
1008.008	47.21
1008.362	47.28
1008.715	47.07
1009.069	47.17
1009.422	47.29
1009.776	47.09
1010.129	47.13
1010.482	46.96
1010.835	46.95
1011.188	47.06
1011.541	47.07
1011.894	47.13
1012.247	47.05
1012.6	47.01
1012.952	47.03
1013.305	47.06
1013.657	47.11
1014.01	47.17
1014.362	47.15
1014.715	47.25
1015.067	47.29
1015.419	47.37
1015.771	47.39
1016.123	47.41
1016.475	47.5
1016.827	47.5
1017.179	47.58
1017.531	47.77
1017.883	47.64
1018.234	47.88
1018.586	47.84
1018.938	47.9
1019.289	47.77
1019.64	47.57
1019.992	47.74
1020.343	47.71
1020.694	47.62
1021.045	47.58
1021.396	47.48
1021.747	47.63
1022.098	47.57
1022.449	47.62
1022.8	47.77
1023.151	47.94
1023.501	48.28
1023.852	48.21
1024.202	48.13
1024.553	48.12
1024.903	48.3
1025.253	48.58
1025.604	48.58
1025.954	48.42
1026.304	48.31
1026.654	48.08
1027.004	48.09
1027.354	47.88
1027.703	47.83
1028.053	47.8
1028.403	47.97
1028.753	47.66
1029.102	47.62
1029.452	47.7
1029.801	48.06
1030.15	48.07
1030.499	48.09
897.758	1349.69
901.051	1356.1
904.343	1350.61
907.636	1374.27
910.928	1333.22
914.22	1336.32
917.511	1315.51
920.803	1257.87
924.094	1250.51
927.384	1222.05
930.675	1176.66
933.965	1168.66
937.255	1099.75
940.544	1056.99
943.834	1005.64
947.123	999.68
950.411	939.67
953.7	922.3
956.988	871.69
960.276	835.97
963.563	823.26
966.851	792.36
970.138	785
973.424	760.7
976.711	763.33
979.997	728.45
983.283	723.9
986.568	708.26
989.853	687.18
993.138	675.73
996.423	649.96
999.708	629.84
1002.992	623.9
1006.275	596.68
1009.559	590.73
1012.842	569.07
1016.125	552.46
1019.408	541.64
1022.69	534.37
1025.972	523.76
1029.254	510.13
1032.536	502.3
1035.817	491.88
1039.098	484.45
1042.379	474.24
1045.659	469.55
1048.939	457.51
1052.219	447.71
1055.498	442.22
1058.778	431.43
1062.057	420.88
1065.335	416.43
1068.614	411.56
1071.892	407.44
1075.17	394.93
1078.447	386.85
1081.724	383.71
1085.001	381.96
1088.278	374.87
1091.554	366.41
1094.83	366.98
1098.106	364.94
1101.382	361.44
1104.657	359.22
1107.932	353.06
1111.206	354.7
1114.481	345.34
1117.755	342.12
1121.029	339.56
1124.302	338.56
1127.575	332.35
1130.848	328.12
1134.121	323.87
1137.393	321.92
1140.665	314.91
1143.937	313.13
1147.208	311.4
1150.48	311.05
1153.75	307.02
1157.021	301.96
1160.291	302.21
1163.561	298.93
1166.831	299.25
1170.101	297.03
1173.37	296.06
1176.639	296.53
1179.907	294.3
1183.176	290.66
1186.444	291.33
1189.711	290.35
1192.979	290.37
1196.246	287.35
1199.513	288.5
1202.78	285.41
1206.046	286.22
1209.312	283.34
1212.578	283.79
1215.843	286.35
1219.108	283.7
1222.373	289.11
1225.638	291.7
1228.902	294.89
1232.166	296.31
1235.43	298.49
1238.693	303.35
1241.956	303.85
1245.219	309.9
1248.482	309.24
1251.744	308.15
1255.006	310.11
1258.268	302.17
1261.529	298.63
1264.79	297.26
1268.051	295.1
1271.312	291.47
1274.572	287.14
1277.832	285.13
1281.092	280.2
1284.351	278.16
1287.61	277.88
1290.869	274.56
1294.128	272.62
1297.386	273.07
1300.644	268.85
1303.902	269.49
1307.159	269.06
1310.416	269.76
1313.673	268.7
1316.93	271.2
1320.186	271.5
1323.442	272.55
1326.697	276.61
1329.953	277.87
1333.208	278.81
1336.463	282.68
1339.717	283.43
1342.972	285.89
1346.226	288.29
1349.479	289.29
1352.733	291.14
1355.986	291.94
1359.238	291.8
1362.491	293.34
1365.743	296.1
1368.995	296.2
1372.247	295.49
1375.498	295.55
1378.749	298.54
1382	294.85
1385.251	295.59
1388.501	293.65
1391.751	295.29
1395	294
1398.25	291.57
1401.499	290.11
1404.748	289.72
1407.996	287.88
1411.244	286.75
1414.492	284.39
1417.74	282.91
1420.987	278.6
1424.234	278.46
1427.481	274.77
1430.728	274.38
1433.974	271.36
1437.22	269.41
1440.465	268.55
1443.711	266.38
1446.956	264.16
1450.201	261.22
1453.445	258.3
1456.689	257.73
1459.933	252.64
1463.177	250.35
1466.42	246.16
1469.663	243.75
1472.906	241.7
1476.148	234.91
1479.391	232.26
1482.633	230.52
1485.874	226.42
1489.115	225.06
1492.356	222.13
1495.597	222.15
1498.838	218.8
1502.078	217.81
1505.318	216.61
1508.557	216.41
1511.797	216.88
1515.036	215.08
1518.274	214.11
1521.513	212.77
1524.751	212.16
1527.989	211.95
1531.227	210.74
1534.464	211.6
1537.701	209.31
1540.938	208.81
1544.174	206.63
1547.41	205.57
1550.646	204.55
1553.882	204.75
1557.117	201.99
1560.352	200.46
1563.587	199.49
1566.821	198.01
1570.055	196.4
1573.289	195.02
1576.523	194.55
1579.756	192.72
1582.989	192.03
1586.222	191.77
1589.454	190.15
1592.686	191.89
1595.918	191.07
1599.15	190.65
1602.381	191.03
1605.612	190.18
1608.843	191.51
1612.073	191.33
1615.303	192.72
1618.533	192.35
1621.762	192.67
1624.992	192.52
1628.221	192.37
1631.449	192.3
1634.678	191.41
1637.906	192.31
1641.134	192.43
1644.361	191.74
1647.588	192.69
1650.815	191.35
1654.042	190.96
1657.269	191.78
1660.495	192.19
1663.72	191.2
1666.946	192.29
1670.171	193.22
1673.396	192.39
1676.621	192.68
1679.845	193.23
1683.069	192.3
1686.293	193.99
1689.517	195.43
1692.74	194.86
1695.963	195.53
1699.185	197.56
1702.408	197.39
1705.63	197.9
1708.852	198.33
1712.073	198.65
1715.294	198.87
1718.515	200.28
1721.736	199.59
1724.956	200.07
1728.176	200.34
1731.396	202.49
1734.616	201.56
1737.835	202.43
1741.054	201.42
1744.272	202.24
1747.491	204.22
1750.709	204.28
1753.927	204.63
1757.144	204.17
1760.361	204.68
1763.578	205.4
1766.795	204.38
1770.011	206.1
1773.227	205.74
1776.443	208.35
1779.658	209.63
1782.874	209.02
1786.089	210.17
1789.303	210.86
1792.518	213.72
1795.732	213.69
1798.945	215.44
1802.159	215.65
1805.372	216.03
1808.585	220.22
1811.797	220.87
1815.01	221.22
1818.222	223.09
1821.434	224.72
1824.645	225.35
1827.856	228.79
1831.067	231.11
1834.278	229.96
1837.488	232.13
1840.698	233.72
1843.908	231.43
1847.117	232.98
1850.326	234.44
1853.535	234.04
1856.744	237.71
1859.952	237.91
1863.16	236.44
1866.368	234.49
1869.575	238.16
1872.782	233.79
1875.989	233.4
1879.196	233.04
1882.402	231.19
1885.608	231.56
1888.814	231.78
1892.019	231.66
1895.224	230.97
1898.429	229.79
1901.634	231.61
1904.838	231.36
1908.042	234.46
1911.246	235.34
1914.449	236.72
1917.652	237.23
1920.855	237.6
1924.058	236.66
1927.26	234.98
1930.462	236.01
1933.664	239.07
1936.865	237.06
1940.066	236.54
1943.267	235.41
1946.467	235.32
1949.668	236.72
1952.868	239.32
1956.067	239.25
1959.267	239.73
1962.466	240.5
1965.665	239.64
1968.863	239.74
1972.061	243.98
1975.259	246.28
1978.457	248.55
1981.654	250.18
1984.852	250.37
1988.048	249.75
1991.245	252.35
1994.441	255.4
1997.637	257.34
2000.833	262.72
2004.028	266.67
2007.223	266.24
2010.418	269.23
2013.613	273.43
2016.807	276.42
2020.001	278.59
2023.194	282.99
2026.388	288.51
2029.581	295.37
2032.774	297.91
2035.966	302.62
2039.158	302.38
2042.35	310.02
2045.542	310.61
2048.733	315.81
2051.924	320.72
2055.115	326.59
2058.306	326.79
2061.496	329.84
2064.686	329.91
2067.875	335.66
2071.065	337.16
2074.254	335.68
2077.442	338.89
2080.631	341.36
2083.819	344.84
2087.007	344.36
2090.195	348.52
2093.382	351.72
2096.569	349.48
2099.756	354.85
2102.942	355.6
2106.128	358.7
2109.314	367.73
2112.5	366.41
2115.685	374.47
2118.87	374.12
2122.055	382.48
2125.239	384.92
2128.424	389.67
2131.608	393.09
2134.791	399.5
2137.974	401.36
2141.157	401.79
2144.34	402.02
2147.523	407.5
2150.705	405.22
2153.887	409.35
2157.068	410.3
2160.25	405.44
2163.431	408.71
2166.611	412.91
2169.792	419.66
2172.972	424.3
2176.152	427.07
2179.331	433.54
2182.511	441.13
2185.69	445.73
2188.868	456.26
2192.047	456.27
2195.225	471.23
2198.403	481.94
2201.58	492.74
2204.758	501.48
2207.935	511.24
2211.111	521.6
2214.288	526.19
2217.464	528.52
2220.64	536.25
2223.815	541.95
2226.991	564.04
2230.166	565.12
2233.34	575.05
2236.515	581.84
2239.689	581.91
2242.863	586.19
2246.036	602.52
2249.209	598.86
2252.382	609.96
2255.555	628.31
2258.727	630.76
2261.9	634.77
2265.071	641.62
2268.243	651.07
2271.414	659.39
2274.585	675.64
2277.756	682.21
2280.926	688.73
2284.096	703.15
2287.266	718.78
2290.436	724.52
2293.605	740.38
2296.774	762.9
2299.942	785.01
2303.111	790.45
2306.279	807.77
2309.447	818.65
2312.614	839.26
2315.781	860.92
2318.948	904.19
2322.115	889.14
2325.281	937.76
2328.447	917.87
2331.613	954.4
2334.779	944.96
2337.944	983.13
2341.109	993.86
2344.274	1020.94
2347.438	1055.47
2350.602	1056.19
2353.766	1089.45
2356.929	1105.21
2360.092	1097.57
2363.255	1180.56
2366.418	1178.22
2369.58	1201.3
2372.742	1279.46
2375.904	1312.25
2379.066	1304.29
2382.227	1284.94
2385.388	1388.87
2388.548	1387.3
2391.709	1405.22
2394.869	1570.49
2398.029	1497.49
2401.188	1537.61
2404.347	1530.55
2407.506	1503.32
2410.665	1541.92
2413.823	1637.12
2416.981	1728.43
2420.139	1676.09
2423.296	1660.03
2426.453	1728.33
2429.61	1662.13
2432.767	1739
2435.923	1724.95
2439.079	1886.74
2442.235	1908.05
2445.391	1896.47
2448.546	1878.73
2451.701	1826.63
2454.855	1823.57
2458.009	1928.28
2461.163	2013.62
2464.317	2082.55
2467.471	2141.54
2470.624	2143
2473.777	2080.3
2476.929	2036.33
2480.082	1974.37
2483.234	1954.13
2486.385	2054.24
2489.537	2065.08
2492.688	2148.83
2495.839	2081.47
2498.989	2034.24
2502.14	2046.33
2505.29	2069.11
2508.439	2102.22
2511.589	2092.17
2514.738	2282.42
2517.887	2232.6
2521.035	2361.24
2524.183	2382.94
2527.331	2397.64
2530.479	2396.16
2533.627	2417.45
