Data from N_2_DIV_OH_2N_Splice17_13-23-55-749.txt Node
Date: Sat Mar 07 13:23:55 EST 2020
User: sa697716
Spectrometer: NQ5500242
Trigger mode: 0
Integration Time (sec): 1.450000E-1
Scans to average: 20
Nonlinearity correction enabled: false
Boxcar width: 5
Storing dark spectrum: false
XAxis mode: Wavelengths
Number of Pixels in Spectrum: 512
>>>>>Begin Spectral Data<<<<<
187.83	127.97
188.298	159.24
188.766	137.43
189.233	110.89
189.701	104.37
190.169	124.09
190.636	121.57
191.104	115.71
191.571	-26.29
192.039	-108.02
192.506	-179.01
192.974	100.94
193.441	271.15
193.908	115.49
194.375	100.04
194.842	25.4
195.31	53.26
195.777	-43.31
196.244	25.5
196.711	37.19
197.177	41.01
197.644	40.76
198.111	41
198.578	41.53
199.045	42.29
199.511	41.99
199.978	42.21
200.445	42.38
200.911	42.88
201.378	43.16
201.844	43.31
202.31	42.98
202.777	43.27
203.243	43.49
203.709	42.92
204.176	42.55
204.642	42.23
205.108	42.28
205.574	41.82
206.04	41
206.506	40.41
206.972	40.08
207.438	39.86
207.903	39.08
208.369	38.14
208.835	37.57
209.301	36.38
209.766	35.41
210.232	34.31
210.697	33.37
211.163	32.49
211.628	31.62
212.094	30.66
212.559	29.89
213.024	29.2
213.49	28.43
213.955	27.72
214.42	27.13
214.885	26.57
215.35	25.47
215.815	24.28
216.28	22.6
216.745	20.72
217.21	18.79
217.675	17.06
218.14	15.55
218.604	14.3
219.069	13.19
219.534	12.32
219.998	11.52
220.463	10.94
220.927	10.34
221.392	9.92
221.856	9.62
222.32	9.38
222.785	9.13
223.249	8.88
223.713	8.64
224.177	8.47
224.642	8.3
225.106	8.1
225.57	7.93
226.034	7.8
226.497	7.69
226.961	7.53
227.425	7.39
227.889	7.25
228.353	7.14
228.816	7.03
229.28	6.92
229.744	6.8
230.207	6.7
230.671	6.6
231.134	6.5
231.597	6.41
232.061	6.33
232.524	6.25
232.987	6.16
233.45	6.11
233.914	6.04
234.377	5.95
234.84	5.89
235.303	5.84
235.766	5.79
236.229	5.73
236.691	5.67
237.154	5.62
237.617	5.56
238.08	5.52
238.542	5.46
239.005	5.42
239.468	5.37
239.93	5.33
240.393	5.28
240.855	5.22
241.317	5.16
241.78	5.11
242.242	5.06
242.704	5.02
243.166	4.97
243.629	4.93
244.091	4.87
244.553	4.83
245.015	4.78
245.477	4.74
245.939	4.7
246.4	4.66
246.862	4.62
247.324	4.58
247.786	4.53
248.247	4.49
248.709	4.44
249.17	4.4
249.632	4.37
250.093	4.33
250.555	4.3
251.016	4.27
251.477	4.22
251.939	4.19
252.4	4.17
252.861	4.14
253.322	4.11
253.783	4.08
254.244	4.06
254.705	4.03
255.166	4
255.627	3.97
256.088	3.95
256.549	3.93
257.009	3.89
257.47	3.86
257.931	3.83
258.391	3.79
258.852	3.76
259.312	3.73
259.773	3.7
260.233	3.67
260.694	3.64
261.154	3.6
261.614	3.58
262.074	3.55
262.534	3.52
262.994	3.49
263.455	3.47
263.915	3.45
264.374	3.43
264.834	3.41
265.294	3.39
265.754	3.37
266.214	3.36
266.673	3.34
267.133	3.32
267.593	3.31
268.052	3.29
268.512	3.28
268.971	3.27
269.431	3.26
269.89	3.24
270.349	3.23
270.809	3.22
271.268	3.21
271.727	3.2
272.186	3.19
272.645	3.18
273.104	3.17
273.563	3.16
274.022	3.15
274.481	3.14
274.94	3.13
275.399	3.11
275.857	3.1
276.316	3.09
276.775	3.08
277.233	3.07
277.692	3.07
278.15	3.06
278.609	3.05
279.067	3.04
279.525	3.03
279.984	3.03
280.442	3.03
280.9	3.03
281.358	3.03
281.816	3.03
282.274	3.02
282.732	3.01
283.19	3
283.648	3
284.106	2.99
284.564	2.99
285.021	2.99
285.479	2.98
285.937	2.98
286.394	2.97
286.852	2.96
287.309	2.95
287.767	2.93
288.224	2.92
288.682	2.91
289.139	2.89
289.596	2.88
290.053	2.86
290.511	2.84
290.968	2.83
291.425	2.81
291.882	2.8
292.339	2.79
292.796	2.78
293.252	2.77
293.709	2.77
294.166	2.76
294.623	2.75
295.079	2.75
295.536	2.74
295.992	2.74
296.449	2.73
296.905	2.73
297.362	2.72
297.818	2.71
298.274	2.71
298.731	2.7
299.187	2.69
299.643	2.69
300.099	2.68
300.555	2.67
301.011	2.66
301.467	2.66
301.923	2.65
302.379	2.65
302.835	2.65
303.291	2.65
303.746	2.65
304.202	2.65
304.658	2.65
305.113	2.65
305.569	2.65
306.024	2.65
306.479	2.64
306.935	2.64
307.39	2.64
307.845	2.64
308.301	2.64
308.756	2.63
309.211	2.63
309.666	2.63
310.121	2.64
310.576	2.64
311.031	2.63
311.486	2.64
311.94	2.65
312.395	2.65
312.85	2.65
313.305	2.65
313.759	2.66
314.214	2.65
314.668	2.65
315.123	2.64
315.577	2.64
316.032	2.65
316.486	2.63
316.94	2.63
317.394	2.62
317.849	2.61
318.303	2.6
318.757	2.59
319.211	2.59
319.665	2.58
320.119	2.57
320.572	2.56
321.026	2.55
321.48	2.54
321.934	2.52
322.387	2.52
322.841	2.52
323.295	2.52
323.748	2.51
324.202	2.51
324.655	2.51
325.108	2.52
325.562	2.52
326.015	2.53
326.468	2.54
326.921	2.54
327.374	2.53
327.827	2.54
328.28	2.53
328.733	2.54
329.186	2.54
329.639	2.54
330.092	2.54
330.545	2.52
330.997	2.52
331.45	2.52
331.903	2.53
332.355	2.54
332.808	2.54
333.26	2.54
333.713	2.54
334.165	2.55
334.617	2.55
335.069	2.54
335.522	2.56
335.974	2.57
336.426	2.56
336.878	2.55
337.33	2.55
337.782	2.54
338.234	2.55
338.686	2.55
339.137	2.55
339.589	2.55
340.041	2.55
340.493	2.54
340.944	2.53
341.396	2.52
341.847	2.51
342.299	2.5
342.75	2.5
343.201	2.49
343.653	2.48
344.104	2.46
344.555	2.46
345.006	2.45
345.457	2.45
345.908	2.44
346.359	2.45
346.81	2.45
347.261	2.45
347.712	2.44
348.163	2.43
348.613	2.44
349.064	2.44
349.515	2.44
349.965	2.44
350.416	2.44
350.866	2.44
351.317	2.43
351.767	2.44
352.217	2.44
352.668	2.45
353.118	2.45
353.568	2.45
354.018	2.46
354.468	2.46
354.918	2.46
355.368	2.47
355.818	2.48
356.268	2.48
356.718	2.48
357.168	2.47
357.617	2.47
358.067	2.48
358.517	2.48
358.966	2.49
359.416	2.49
359.865	2.49
360.315	2.5
360.764	2.51
361.213	2.52
361.663	2.51
362.112	2.53
362.561	2.54
363.01	2.55
363.459	2.54
363.908	2.53
364.357	2.54
364.806	2.54
365.255	2.54
365.703	2.55
366.152	2.56
366.601	2.57
367.05	2.58
367.498	2.57
367.947	2.58
368.395	2.59
368.844	2.61
369.292	2.62
369.74	2.63
370.189	2.65
370.637	2.66
371.085	2.66
371.533	2.67
371.981	2.68
372.429	2.69
372.877	2.71
373.325	2.72
373.773	2.72
374.221	2.73
374.669	2.75
375.116	2.75
375.564	2.76
376.012	2.78
376.459	2.79
376.907	2.81
377.354	2.82
377.801	2.85
378.249	2.87
378.696	2.9
379.143	2.91
379.591	2.92
380.038	2.95
380.485	2.97
380.932	2.99
381.379	3.01
381.826	3.03
382.273	3.06
382.72	3.06
383.166	3.08
383.613	3.1
384.06	3.12
384.506	3.15
384.953	3.17
385.4	3.19
385.846	3.22
386.292	3.24
386.739	3.25
387.185	3.27
387.631	3.31
388.078	3.34
388.524	3.36
388.97	3.38
389.416	3.42
389.862	3.44
390.308	3.47
390.754	3.49
391.2	3.52
391.645	3.54
392.091	3.58
392.537	3.6
392.983	3.62
393.428	3.65
393.874	3.67
394.319	3.69
394.765	3.7
395.21	3.73
395.655	3.75
396.101	3.78
396.546	3.8
396.991	3.81
397.436	3.84
397.881	3.87
398.326	3.89
398.771	3.92
399.216	3.94
399.661	3.97
400.106	3.98
400.551	3.99
400.995	4
401.44	4.01
401.885	4.02
402.329	4.03
402.774	4.04
403.218	4.06
403.663	4.07
404.107	4.07
404.551	4.08
404.995	4.09
405.44	4.09
405.884	4.11
406.328	4.12
406.772	4.13
407.216	4.13
407.66	4.13
408.104	4.12
408.547	4.13
408.991	4.14
409.435	4.15
409.879	4.15
410.322	4.17
410.766	4.18
411.209	4.2
411.653	4.23
412.096	4.24
412.54	4.26
412.983	4.26
413.426	4.29
413.869	4.31
414.312	4.34
414.756	4.37
415.199	4.37
415.642	4.37
416.085	4.37
416.527	4.36
416.97	4.35
417.413	4.35
417.856	4.35
418.298	4.34
418.741	4.33
419.184	4.33
419.626	4.32
420.069	4.33
420.511	4.33
420.953	4.34
421.396	4.34
421.838	4.35
422.28	4.35
422.722	4.38
423.164	4.38
423.606	4.38
424.048	4.38
424.49	4.38
424.932	4.37
425.374	4.35
425.816	4.33
426.258	4.32
426.699	4.31
427.141	4.31
427.582	4.3
428.024	4.3
428.465	4.3
428.907	4.3
429.348	4.29
429.789	4.29
430.231	4.31
430.672	4.34
431.113	4.37
431.554	4.38
431.995	4.39
432.436	4.41
432.877	4.43
433.318	4.46
433.759	4.47
434.2	4.5
434.64	4.52
435.081	4.52
435.522	4.54
435.962	4.55
436.403	4.58
436.843	4.59
437.284	4.59
437.724	4.58
438.164	4.58
438.604	4.59
439.045	4.59
439.485	4.62
439.925	4.62
440.365	4.62
440.805	4.62
441.245	4.63
441.685	4.66
442.125	4.68
442.564	4.68
443.004	4.69
443.444	4.69
443.883	4.71
444.323	4.71
444.762	4.73
445.202	4.74
445.641	4.76
446.081	4.77
446.52	4.77
446.959	4.79
447.398	4.81
447.837	4.82
448.276	4.84
448.716	4.86
449.154	4.88
449.593	4.89
450.032	4.89
450.471	4.88
450.91	4.87
451.349	4.89
451.787	4.89
452.226	4.88
452.664	4.89
453.103	4.89
453.541	4.87
453.98	4.88
454.418	4.86
454.856	4.87
455.295	4.86
455.733	4.85
456.171	4.83
456.609	4.82
457.047	4.8
457.485	4.78
457.923	4.78
458.361	4.77
458.798	4.76
459.236	4.76
459.674	4.76
460.111	4.76
460.549	4.78
460.987	4.79
461.424	4.8
461.862	4.81
462.299	4.82
462.736	4.82
463.173	4.82
463.611	4.82
464.048	4.83
464.485	4.84
464.922	4.82
465.359	4.82
465.796	4.84
466.233	4.83
466.67	4.84
467.106	4.85
467.543	4.84
467.98	4.84
468.416	4.82
468.853	4.83
469.29	4.82
469.726	4.82
470.162	4.8
470.599	4.79
471.035	4.79
471.471	4.78
471.907	4.77
472.344	4.78
472.78	4.78
473.216	4.79
473.652	4.79
474.088	4.78
474.523	4.78
474.959	4.78
475.395	4.77
475.831	4.76
476.266	4.75
476.702	4.74
477.138	4.74
477.573	4.73
478.008	4.72
478.444	4.7
478.879	4.71
479.314	4.71
479.75	4.71
480.185	4.7
480.62	4.69
481.055	4.68
481.49	4.69
481.925	4.69
482.36	4.69
482.795	4.69
483.229	4.69
483.664	4.69
484.099	4.67
484.534	4.67
484.968	4.68
485.403	4.69
485.837	4.71
486.271	4.72
486.706	4.72
487.14	4.73
487.574	4.75
488.009	4.77
488.443	4.79
488.877	4.81
489.311	4.83
489.745	4.85
490.179	4.88
490.613	4.91
491.046	4.93
491.48	4.97
491.914	5
492.348	5.04
492.781	5.08
493.215	5.12
493.648	5.16
494.082	5.21
494.515	5.25
494.948	5.29
495.382	5.34
495.815	5.39
496.248	5.45
496.681	5.51
497.114	5.56
497.547	5.62
497.98	5.68
498.413	5.75
498.846	5.82
499.279	5.89
499.711	5.97
500.144	6.05
500.577	6.13
501.009	6.21
501.442	6.3
501.874	6.4
502.306	6.49
502.739	6.6
503.171	6.71
503.603	6.82
504.036	6.94
504.468	7.06
504.9	7.17
505.332	7.29
505.764	7.42
506.196	7.56
506.627	7.69
507.059	7.84
507.491	7.98
507.923	8.14
508.354	8.31
508.786	8.49
509.217	8.66
509.649	8.83
510.08	9.02
510.512	9.2
510.943	9.39
511.374	9.58
511.805	9.78
512.237	9.97
512.668	10.16
513.099	10.35
513.53	10.54
513.961	10.75
514.391	10.98
514.822	11.2
515.253	11.4
515.684	11.62
516.114	11.83
516.545	12.05
516.975	12.28
517.406	12.51
517.836	12.73
518.267	12.96
518.697	13.18
519.127	13.37
519.558	13.59
519.988	13.8
520.418	14.02
520.848	14.23
521.278	14.43
521.708	14.79
522.138	14.98
522.567	15.16
522.997	15.34
523.427	15.53
523.857	15.72
524.286	15.87
524.716	16.05
525.145	16.21
525.575	16.37
526.004	16.54
526.433	16.51
526.863	16.66
527.292	16.82
527.721	16.95
528.15	17.07
528.579	17.2
529.008	17.33
529.437	17.43
529.866	17.54
530.295	17.65
530.724	17.74
531.152	17.85
531.581	17.95
532.01	18.04
532.438	18.14
532.867	18.22
533.295	18.31
533.723	18.38
534.152	18.46
534.58	18.52
535.008	18.57
535.436	18.63
535.865	18.68
536.293	18.72
536.721	18.77
537.149	18.8
537.576	18.84
538.004	18.88
538.432	18.92
538.86	18.96
539.287	18.99
539.715	19.05
540.143	19.07
540.57	19.09
540.998	19.13
541.425	19.15
541.852	19.18
542.28	19.2
542.707	19.22
543.134	19.25
543.561	19.27
543.988	19.29
544.415	19.28
544.842	19.29
545.269	19.32
545.696	19.33
546.123	19.35
546.549	19.36
546.976	19.39
547.403	19.4
547.829	19.4
548.256	19.41
548.682	19.42
549.108	19.44
549.535	19.48
549.961	19.47
550.387	19.48
550.813	19.48
551.24	19.48
551.666	19.47
552.092	19.47
552.518	19.47
552.943	19.46
553.369	19.46
553.795	19.44
554.221	19.4
554.646	19.37
555.072	19.35
555.498	19.31
555.923	19.28
556.349	19.23
556.774	19.18
557.199	19.14
557.625	19.08
558.05	19.03
558.475	18.98
558.9	18.94
559.325	18.89
559.75	18.83
560.175	18.78
560.6	18.7
561.025	18.64
561.449	18.56
561.874	18.48
562.299	18.4
562.723	18.31
563.148	18.22
563.572	18.11
563.997	18
564.421	17.9
564.846	17.79
565.27	17.7
565.694	17.6
566.118	17.49
566.542	17.4
566.966	17.29
567.39	17.19
567.814	17.09
568.238	16.99
568.662	16.9
569.086	16.79
569.509	16.7
569.933	16.6
570.357	16.49
570.78	16.39
571.204	16.28
571.627	16.18
572.05	16.07
572.474	15.98
572.897	15.9
573.32	15.8
573.743	15.71
574.166	15.61
574.589	15.52
575.012	15.43
575.435	15.35
575.858	15.29
576.281	15.2
576.704	15.13
577.126	15.05
577.549	14.98
577.972	14.91
578.394	14.83
578.817	14.76
579.239	14.7
579.661	14.64
580.084	14.57
580.506	14.51
580.928	14.45
581.35	14.39
581.772	14.33
582.194	14.27
582.616	14.23
583.038	14.17
583.46	14.12
583.882	14.07
584.303	13.99
584.725	13.94
585.147	13.89
585.568	13.84
585.99	13.78
586.411	13.73
586.833	13.67
587.254	13.62
587.675	13.58
588.096	13.52
588.518	13.46
588.939	13.45
589.36	13.4
589.781	13.35
590.202	13.32
590.623	13.28
591.043	13.25
591.464	13.21
591.885	13.17
592.305	13.14
592.726	13.11
593.147	13.09
593.567	13.06
593.987	13.04
594.408	13.02
594.828	12.98
595.248	12.96
595.669	12.94
596.089	12.91
596.509	12.88
596.929	12.85
597.349	12.83
597.769	12.8
598.189	12.76
598.608	12.75
599.028	12.71
599.448	12.68
599.867	12.65
600.287	12.62
600.706	12.59
601.126	12.56
601.545	12.53
601.965	12.49
602.384	12.46
602.803	12.44
603.222	12.39
603.641	12.35
604.061	12.32
604.48	12.28
604.898	12.23
605.317	12.2
605.736	12.15
606.155	12.11
606.574	12.07
606.992	12.01
607.411	11.95
607.829	11.88
608.248	11.82
608.666	11.77
609.085	11.73
609.503	11.68
609.921	11.63
610.339	11.57
610.758	11.52
611.176	11.45
611.594	11.41
612.012	11.36
612.43	11.33
612.847	11.29
613.265	11.24
613.683	11.18
614.101	11.13
614.518	11.08
614.936	11.03
615.353	10.97
615.771	10.92
616.188	10.87
616.606	10.83
617.023	10.78
617.44	10.74
617.857	10.69
618.274	10.65
618.691	10.61
619.108	10.57
619.525	10.54
619.942	10.52
620.359	10.5
620.776	10.47
621.192	10.45
621.609	10.42
622.026	10.4
622.442	10.38
622.859	10.36
623.275	10.34
623.691	10.32
624.108	10.3
624.524	10.28
624.94	10.27
625.356	10.26
625.772	10.25
626.188	10.24
626.604	10.24
627.02	10.24
627.436	10.22
627.852	10.23
628.268	10.22
628.683	10.22
629.099	10.22
629.514	10.21
629.93	10.19
630.345	10.18
630.761	10.15
631.176	10.12
631.591	10.09
632.007	10.07
632.422	10.02
632.837	9.97
633.252	9.93
633.667	9.87
634.082	9.81
634.497	9.74
634.911	9.67
635.326	9.61
635.741	9.54
636.155	9.46
636.57	9.38
636.984	9.3
637.399	9.21
637.813	9.12
638.228	9.01
638.642	8.92
639.056	8.82
639.47	8.72
639.884	8.61
640.298	8.5
640.712	8.39
641.126	8.29
641.54	8.18
641.954	8.09
642.368	7.99
642.781	7.9
643.195	7.81
643.609	7.72
644.022	7.63
644.436	7.57
644.849	7.49
645.262	7.42
645.676	7.34
646.089	7.29
646.502	7.23
646.915	7.18
647.328	7.14
647.741	7.08
648.154	7.04
648.567	7.01
648.98	6.96
649.393	6.92
649.805	6.9
650.218	6.87
650.631	6.84
651.043	6.8
651.456	6.78
651.868	6.75
652.28	6.72
652.693	6.7
653.105	6.67
653.517	6.64
653.929	6.62
654.341	6.58
654.753	6.55
655.165	6.51
655.577	6.48
655.989	6.43
656.401	6.39
656.813	6.35
657.224	6.29
657.636	6.23
658.047	6.17
658.459	6.11
658.87	6.05
659.282	5.99
659.693	5.92
660.104	5.84
660.515	5.78
660.926	5.72
661.338	5.64
661.749	5.59
662.159	5.53
662.57	5.49
662.981	5.44
663.392	5.37
663.803	5.33
664.213	5.29
664.624	5.25
665.035	5.21
665.445	5.18
665.855	5.15
666.266	5.12
666.676	5.09
667.086	5.05
667.497	5.02
667.907	5
668.317	4.97
668.727	4.96
669.137	4.95
669.547	4.93
669.956	4.92
670.366	4.9
670.776	4.9
671.186	4.9
671.595	4.89
672.005	4.89
672.414	4.91
672.824	4.91
673.233	4.92
673.642	4.92
674.052	4.95
674.461	4.96
674.87	4.98
675.279	5.01
675.688	5.03
676.097	5.07
676.506	5.1
676.915	5.13
677.323	5.16
677.732	5.19
678.141	5.25
678.549	5.28
678.958	5.32
679.366	5.39
679.775	5.44
680.183	5.5
680.592	5.58
681	5.66
681.408	5.74
681.816	5.84
682.224	5.94
682.632	6.04
683.04	6.16
683.448	6.28
683.856	6.41
684.264	6.57
684.671	6.73
685.079	6.9
685.487	7.1
685.894	7.32
686.302	7.54
686.709	7.8
687.116	8.07
687.524	8.35
687.931	8.67
688.338	8.98
688.745	9.31
689.152	9.67
689.559	10.04
689.966	10.42
690.373	10.8
690.78	11.2
691.187	11.6
691.593	12.02
692	12.46
692.407	12.87
692.813	13.32
693.22	13.76
693.626	14.2
694.032	14.63
694.439	15.08
694.845	15.54
695.251	15.99
695.657	16.44
696.063	16.87
696.469	17.29
696.875	17.73
697.281	18.15
697.687	18.6
698.093	19.01
698.498	19.43
698.904	19.83
699.31	20.2
699.715	20.61
700.12	21.02
700.526	21.4
700.931	21.78
701.337	22.15
701.742	22.52
702.147	22.87
702.552	23.22
702.957	23.52
703.362	23.85
703.767	24.17
704.172	24.46
704.577	24.76
704.981	25.07
705.386	25.36
705.791	25.65
706.195	25.93
706.6	26.21
707.004	26.49
707.408	26.79
707.813	27.08
708.217	27.37
708.621	27.65
709.025	27.9
709.43	28.14
709.834	28.41
710.237	28.66
710.641	28.88
711.045	29.1
711.449	29.35
711.853	29.6
712.256	29.82
712.66	30.01
713.064	30.19
713.467	30.39
713.87	30.6
714.274	30.79
714.677	30.99
715.08	31.19
715.484	31.4
715.887	31.6
716.29	31.76
716.693	31.93
717.096	32.13
717.499	32.33
717.901	32.52
718.304	32.7
718.707	32.88
719.109	33.04
719.512	33.21
719.915	33.37
720.317	33.5
720.719	33.63
721.122	33.77
721.524	33.91
721.926	34.04
722.328	34.18
722.731	34.3
723.133	34.41
723.535	34.53
723.937	34.64
724.338	34.74
724.74	34.84
725.142	35.04
725.544	35.15
725.945	35.28
726.347	35.35
726.748	35.44
727.15	35.51
727.551	35.63
727.952	35.71
728.354	35.79
728.755	35.87
729.156	35.93
729.557	35.9
729.958	35.97
730.359	36
730.76	36.07
731.161	36.14
731.562	36.2
731.962	36.23
732.363	36.27
732.763	36.32
733.164	36.38
733.564	36.45
733.965	36.5
734.365	36.55
734.766	36.6
735.166	36.64
735.566	36.68
735.966	36.73
736.366	36.76
736.766	36.79
737.166	36.84
737.566	36.86
737.966	36.89
738.365	36.92
738.765	36.95
739.165	36.96
739.564	37
739.964	37.02
740.363	37.04
740.763	37.07
741.162	37.09
741.561	37.11
741.96	37.12
742.36	37.13
742.759	37.13
743.158	37.12
743.557	37.13
743.955	37.15
744.354	37.16
744.753	37.18
745.152	37.22
745.55	37.23
745.949	37.25
746.348	37.29
746.746	37.29
747.144	37.33
747.543	37.36
747.941	37.4
748.339	37.37
748.737	37.37
749.136	37.37
749.534	37.34
749.932	37.36
750.33	37.36
750.727	37.35
751.125	37.37
751.523	37.37
751.921	37.38
752.318	37.39
752.716	37.4
753.113	37.41
753.511	37.42
753.908	37.45
754.305	37.46
754.703	37.48
755.1	37.49
755.497	37.47
755.894	37.48
756.291	37.48
756.688	37.46
757.085	37.47
757.482	37.47
757.878	37.46
758.275	37.45
758.672	37.45
759.068	37.43
759.465	37.41
759.861	37.45
760.258	37.44
760.654	37.43
761.05	37.44
761.447	37.47
761.843	37.47
762.239	37.45
762.635	37.45
763.031	37.44
763.427	37.42
763.822	37.44
764.218	37.42
764.614	37.42
765.01	37.43
765.405	37.42
765.801	37.37
766.196	37.36
766.592	37.38
766.987	37.38
767.382	37.37
767.778	37.39
768.173	37.4
768.568	37.4
768.963	37.4
769.358	37.4
769.753	37.4
770.148	37.43
770.542	37.43
770.937	37.43
771.332	37.41
771.726	37.4
772.121	37.38
772.515	37.36
772.91	37.34
773.304	37.33
773.699	37.32
774.093	37.3
774.487	37.31
774.881	37.32
775.275	37.28
775.669	37.25
776.063	37.25
776.457	37.26
776.851	37.26
777.245	37.25
777.638	37.22
778.032	37.22
778.425	37.23
778.819	37.21
779.212	37.22
779.606	37.26
779.999	37.28
780.392	37.3
780.786	37.29
781.179	37.3
781.572	37.32
781.965	37.35
782.358	37.32
782.751	37.32
783.143	37.33
783.536	37.31
783.929	37.31
784.322	37.32
784.714	37.34
785.107	37.36
785.499	37.35
785.891	37.36
786.284	37.36
786.676	37.39
787.068	37.39
787.46	37.38
787.852	37.4
788.245	37.38
788.636	37.35
789.028	37.32
789.42	37.28
789.812	37.3
790.204	37.28
790.595	37.28
790.987	37.31
791.378	37.31
791.77	37.3
792.161	37.31
792.553	37.31
792.944	37.35
793.335	37.39
793.726	37.42
794.117	37.39
794.508	37.36
794.899	37.35
795.29	37.32
795.681	37.3
796.072	37.29
796.463	37.31
796.853	37.28
797.244	37.27
797.634	37.25
798.025	37.26
798.415	37.28
798.806	37.29
799.196	37.27
799.586	37.28
799.976	37.28
800.366	37.29
800.756	37.28
801.146	37.32
801.536	37.32
801.926	37.29
802.316	37.27
802.706	37.28
803.095	37.28
803.485	37.29
803.874	37.3
804.264	37.29
804.653	37.27
805.043	37.23
805.432	37.23
805.821	37.22
806.21	37.2
806.599	37.21
806.988	37.19
807.377	37.2
807.766	37.2
808.155	37.17
808.544	37.18
808.933	37.19
809.321	37.21
809.71	37.21
810.098	37.21
810.487	37.22
810.875	37.24
811.264	37.25
811.652	37.24
812.04	37.25
812.428	37.28
812.816	37.27
813.204	37.23
813.592	37.22
813.98	37.21
814.368	37.23
814.756	37.23
815.144	37.19
815.531	37.17
815.919	37.17
816.306	37.15
816.694	37.12
817.081	37.12
817.469	37.16
817.856	37.16
818.243	37.13
818.63	37.11
819.017	37.11
819.404	37.12
819.791	37.12
820.178	37.12
820.565	37.12
820.952	37.13
821.339	37.13
821.725	37.12
822.112	37.12
822.498	37.16
822.885	37.17
823.271	37.17
823.657	37.14
824.044	37.14
824.43	37.16
824.816	37.16
825.202	37.15
825.588	37.14
825.974	37.14
826.36	37.14
826.746	37.13
827.132	37.11
827.517	37.09
827.903	37.13
828.289	37.13
828.674	37.12
829.06	37.1
829.445	37.09
829.83	37.1
830.216	37.08
830.601	37.08
830.986	37.07
831.371	37.06
831.756	37.08
832.141	37.06
832.526	37.05
832.911	37.03
833.295	37.04
833.68	37.05
834.065	37.04
834.449	37.02
834.834	36.99
835.218	36.99
835.603	36.98
835.987	36.96
836.371	36.97
836.755	36.96
837.139	36.96
837.524	36.96
837.908	36.95
838.291	36.96
838.675	36.97
839.059	36.97
839.443	36.96
839.827	36.96
840.21	36.96
840.594	36.97
840.977	36.94
841.361	36.94
841.744	36.89
842.127	36.88
842.511	36.86
842.894	36.85
843.277	36.84
843.66	36.82
844.043	36.83
844.426	36.83
844.809	36.82
845.191	36.85
845.574	36.84
845.957	36.87
846.339	36.88
846.722	36.91
847.104	36.92
847.487	36.91
847.869	36.92
848.252	36.91
848.634	36.91
849.016	36.92
849.398	36.91
849.78	36.92
850.162	36.91
850.544	36.91
850.926	36.88
851.307	36.88
851.689	36.89
852.071	36.9
852.452	36.9
852.834	36.89
853.215	36.86
853.597	36.85
853.978	36.84
854.359	36.83
854.741	36.83
855.122	36.83
855.503	36.81
855.884	36.79
856.265	36.79
856.646	36.79
857.026	36.8
857.407	36.83
857.788	36.82
858.169	36.84
858.549	36.84
858.93	36.84
859.31	36.84
859.69	36.85
860.071	36.85
860.451	36.86
860.831	36.86
861.211	36.84
861.591	36.82
861.971	36.81
862.351	36.79
862.731	36.8
863.111	36.78
863.491	36.79
863.87	36.78
864.25	36.77
864.629	36.75
865.009	36.77
865.388	36.76
865.768	36.78
866.147	36.79
866.526	36.79
866.905	36.79
867.284	36.81
867.663	36.82
868.042	36.82
868.421	36.84
868.8	36.84
869.179	36.83
869.558	36.85
869.936	36.85
870.315	36.84
870.693	36.86
871.072	36.87
871.45	36.87
871.828	36.87
872.207	36.88
872.585	36.87
872.963	36.86
873.341	36.86
873.719	36.84
874.097	36.82
874.475	36.81
874.853	36.79
875.23	36.78
875.608	36.78
875.986	36.78
876.363	36.75
876.741	36.76
877.118	36.77
877.495	36.76
877.873	36.78
878.25	36.8
878.627	36.81
879.004	36.82
879.381	36.83
879.758	36.8
880.135	36.8
880.512	36.8
880.889	36.79
881.265	36.8
881.642	36.79
882.019	36.78
882.395	36.77
882.772	36.75
883.148	36.74
883.524	36.71
883.901	36.72
884.277	36.71
884.653	36.69
885.029	36.69
885.405	36.68
885.781	36.7
886.157	36.67
886.532	36.68
886.908	36.67
887.284	36.67
887.659	36.67
888.035	36.65
888.411	36.64
888.786	36.66
889.161	36.66
889.537	36.66
889.912	36.63
890.287	36.63
890.662	36.62
891.037	36.62
891.412	36.62
891.787	36.59
892.162	36.61
892.536	36.59
892.911	36.58
893.286	36.57
893.66	36.56
894.035	36.58
894.409	36.59
894.784	36.59
895.158	36.57
895.532	36.58
895.906	36.6
896.281	36.58
896.655	36.59
897.029	36.59
897.402	36.57
897.776	36.58
898.15	36.57
898.524	36.58
898.898	36.57
899.271	36.56
899.645	36.55
900.018	36.57
900.392	36.58
900.765	36.6
901.138	36.6
901.511	36.62
901.884	36.65
902.258	36.65
902.631	36.64
903.003	36.68
903.376	36.7
903.749	36.71
904.122	36.72
904.495	36.73
904.867	36.73
905.24	36.76
905.612	36.78
905.985	36.77
906.357	36.76
906.729	36.76
907.102	36.74
907.474	36.75
907.846	36.75
908.218	36.73
908.59	36.74
908.962	36.72
909.334	36.7
909.705	36.69
910.077	36.67
910.449	36.69
910.82	36.68
911.192	36.68
911.563	36.65
911.935	36.64
912.306	36.64
912.677	36.64
913.048	36.66
913.419	36.66
913.79	36.66
914.161	36.68
914.532	36.68
914.903	36.69
915.274	36.68
915.645	36.71
916.015	36.71
916.386	36.71
916.756	36.71
917.127	36.71
917.497	36.71
917.868	36.73
918.238	36.72
918.608	36.75
918.978	36.75
919.348	36.78
919.718	36.77
920.088	36.79
920.458	36.79
920.828	36.79
921.198	36.78
921.567	36.8
921.937	36.78
922.306	36.78
922.676	36.78
923.045	36.78
923.415	36.77
923.784	36.77
924.153	36.8
924.522	36.82
924.891	36.83
925.26	36.83
925.629	36.83
925.998	36.81
926.367	36.81
926.736	36.8
927.104	36.81
927.473	36.8
927.842	36.77
928.21	36.76
928.578	36.73
928.947	36.76
929.315	36.74
929.683	36.73
930.051	36.75
930.42	36.74
930.788	36.72
931.156	36.69
931.523	36.71
931.891	36.75
932.259	36.75
932.627	36.76
932.994	36.75
933.362	36.76
933.729	36.78
934.097	36.79
934.464	36.82
934.831	36.83
935.199	36.86
935.566	36.87
935.933	36.84
936.3	36.82
936.667	36.81
937.034	36.85
937.401	36.85
937.767	36.85
938.134	36.81
938.501	36.77
938.867	36.77
939.234	36.76
939.6	36.76
939.967	36.8
940.333	36.81
940.699	36.8
941.065	36.72
941.431	36.73
941.798	36.73
942.163	36.74
942.529	36.74
942.895	36.71
943.261	36.65
943.627	36.63
943.992	36.62
944.358	36.58
944.723	36.61
945.089	36.58
945.454	36.55
945.82	36.51
946.185	36.5
946.55	36.48
946.915	36.46
947.28	36.49
947.645	36.5
948.01	36.49
948.375	36.51
948.74	36.45
949.104	36.47
949.469	36.45
949.834	36.43
950.198	36.41
950.562	36.39
950.927	36.38
951.291	36.31
951.655	36.22
952.02	36.22
952.384	36.18
952.748	36.16
953.112	36.12
953.476	36.11
953.839	36.09
954.203	36.12
954.567	36.1
954.931	36.05
955.294	36.06
955.658	36.14
956.021	36.14
956.385	36.11
956.748	36.13
957.111	36.12
957.474	36.12
957.837	36.09
958.2	36.03
958.563	36.03
958.926	36.07
959.289	36.11
959.652	36.05
960.015	36.02
960.377	36.06
960.74	36.06
961.102	36.06
961.465	36.05
961.827	36.13
962.189	36.18
962.552	36.19
962.914	36.18
963.276	36.18
963.638	36.18
964	36.16
964.362	36.12
964.724	36.1
965.085	36.11
965.447	36.1
965.809	36.08
966.17	36.04
966.532	36
966.893	36.03
967.255	36
967.616	36.01
967.977	36.02
968.338	36.06
968.699	36.09
969.061	36.08
969.421	36.09
969.782	36.08
970.143	36.1
970.504	36.13
970.865	36.13
971.225	36.09
971.586	36.09
971.946	36.1
972.307	36.12
972.667	36.14
973.027	36.19
973.388	36.22
973.748	36.22
974.108	36.31
974.468	36.28
974.828	36.32
975.188	36.37
975.548	36.39
975.907	36.41
976.267	36.37
976.627	36.39
976.986	36.34
977.346	36.29
977.705	36.33
978.064	36.27
978.424	36.37
978.783	36.32
979.142	36.36
979.501	36.39
979.86	36.43
980.219	36.49
980.578	36.5
980.937	36.61
981.296	36.61
981.654	36.59
982.013	36.58
982.371	36.55
982.73	36.64
983.088	36.59
983.447	36.56
983.805	36.55
984.163	36.47
984.521	36.44
984.879	36.36
985.237	36.38
985.595	36.39
985.953	36.37
986.311	36.35
986.669	36.29
987.026	36.31
987.384	36.3
987.741	36.29
988.099	36.43
988.456	36.44
988.814	36.44
989.171	36.46
989.528	36.44
989.885	36.49
990.242	36.51
990.599	36.53
990.956	36.58
991.313	36.65
991.67	36.68
992.027	36.68
992.383	36.67
992.74	36.76
993.096	36.74
993.453	36.76
993.809	36.8
994.165	36.82
994.522	36.86
994.878	36.83
995.234	36.78
995.59	36.74
995.946	36.72
996.302	36.8
996.658	36.77
997.013	36.77
997.369	36.82
997.725	36.81
998.08	36.85
998.436	36.84
998.791	36.87
999.147	36.83
999.502	36.91
999.857	36.94
1000.212	36.82
1000.567	36.91
1000.922	36.97
1001.277	36.94
1001.632	36.93
1001.987	36.94
1002.342	36.86
1002.696	36.89
1003.051	37.01
1003.406	37.15
1003.76	37.14
1004.114	37.18
1004.469	37.22
1004.823	37.54
1005.177	37.55
1005.531	37.59
1005.885	37.71
1006.239	37.94
1006.593	38.04
1006.947	38.01
1007.301	37.79
1007.655	37.75
1008.008	37.95
1008.362	37.98
1008.715	37.64
1009.069	37.71
1009.422	37.72
1009.776	37.69
1010.129	37.61
1010.482	37.51
1010.835	37.5
1011.188	37.57
1011.541	37.63
1011.894	37.6
1012.247	37.55
1012.6	37.66
1012.952	37.7
1013.305	37.81
1013.657	37.8
1014.01	37.93
1014.362	38.01
1014.715	38.14
1015.067	38.21
1015.419	38.34
1015.771	38.23
1016.123	38.27
1016.475	38.26
1016.827	38.45
1017.179	38.53
1017.531	38.59
1017.883	38.45
1018.234	38.65
1018.586	38.82
1018.938	39.12
1019.289	39.02
1019.64	39.09
1019.992	38.99
1020.343	39.11
1020.694	38.97
1021.045	38.89
1021.396	38.8
1021.747	38.94
1022.098	38.95
1022.449	38.92
1022.8	38.9
1023.151	38.94
1023.501	39.14
1023.852	39.39
1024.202	39.36
1024.553	39.34
1024.903	39.34
1025.253	39.62
1025.604	39.77
1025.954	39.43
1026.304	39.36
1026.654	39.22
1027.004	39.47
1027.354	39.53
1027.703	39.38
1028.053	39.29
1028.403	39.39
1028.753	39.19
1029.102	39.32
1029.452	39.45
1029.801	40
1030.15	40.03
1030.499	40.14
897.758	1387.36
901.051	1399.23
904.343	1392.59
907.636	1416.93
910.928	1375.47
914.22	1376.58
917.511	1358.53
920.803	1303.29
924.094	1297.53
927.384	1264.8
930.675	1215.1
933.965	1208.51
937.255	1133.09
940.544	1089.1
943.834	1035.33
947.123	1029.49
950.411	969.29
953.7	948.6
956.988	893.69
960.276	857.96
963.563	845.94
966.851	814.59
970.138	805.89
973.424	782.42
976.711	787.61
979.997	749.11
983.283	743.04
986.568	726.27
989.853	704.09
993.138	692.86
996.423	664.74
999.708	646.19
1002.992	639.05
1006.275	611.58
1009.559	605.4
1012.842	582.33
1016.125	566.67
1019.408	556.97
1022.69	548.53
1025.972	538.71
1029.254	524.71
1032.536	516.58
1035.817	504.12
1039.098	497.06
1042.379	486.96
1045.659	481.42
1048.939	469.81
1052.219	460.2
1055.498	453.29
1058.778	443
1062.057	431.21
1065.335	426.87
1068.614	422.26
1071.892	418.35
1075.17	404.02
1078.447	396.67
1081.724	394.05
1085.001	390.35
1088.278	382.88
1091.554	375.02
1094.83	375.85
1098.106	373.32
1101.382	370.3
1104.657	367.67
1107.932	361.62
1111.206	364.07
1114.481	354.45
1117.755	350.54
1121.029	348.38
1124.302	347.91
1127.575	340.74
1130.848	336.44
1134.121	333.3
1137.393	330.73
1140.665	323.16
1143.937	321.65
1147.208	319.79
1150.48	318.86
1153.75	314.8
1157.021	309.71
1160.291	309.68
1163.561	306.82
1166.831	307.65
1170.101	304.55
1173.37	304.36
1176.639	305.21
1179.907	301.96
1183.176	298.47
1186.444	298.53
1189.711	298.07
1192.979	297.6
1196.246	295.53
1199.513	296
1202.78	293.16
1206.046	294.01
1209.312	290.91
1212.578	291.19
1215.843	293.58
1219.108	291.68
1222.373	297.4
1225.638	299.54
1228.902	303.57
1232.166	303.39
1235.43	307.06
1238.693	311.09
1241.956	312.11
1245.219	317.27
1248.482	317.39
1251.744	317.48
1255.006	318.04
1258.268	310.67
1261.529	307.92
1264.79	305.57
1268.051	304
1271.312	300.39
1274.572	295.83
1277.832	293.65
1281.092	288.96
1284.351	286.57
1287.61	286.06
1290.869	282.78
1294.128	280.5
1297.386	280.42
1300.644	277.11
1303.902	277.9
1307.159	276.93
1310.416	277.42
1313.673	276.56
1316.93	279.15
1320.186	279.18
1323.442	279.94
1326.697	285.21
1329.953	286.19
1333.208	287.19
1336.463	290.53
1339.717	291.31
1342.972	294.5
1346.226	297.08
1349.479	297.82
1352.733	299.2
1355.986	300.95
1359.238	301.68
1362.491	301.62
1365.743	304.94
1368.995	305.06
1372.247	304.73
1375.498	304.47
1378.749	306.79
1382	303.79
1385.251	305.32
1388.501	303.64
1391.751	304.65
1395	303.12
1398.25	301.42
1401.499	299.66
1404.748	299.34
1407.996	297.25
1411.244	296.04
1414.492	293.83
1417.74	291.6
1420.987	286.46
1424.234	286.15
1427.481	282.38
1430.728	281.71
1433.974	279.51
1437.22	277.2
1440.465	276.02
1443.711	273.93
1446.956	272.34
1450.201	268.94
1453.445	266.34
1456.689	265.96
1459.933	261.27
1463.177	259.17
1466.42	255.05
1469.663	251.58
1472.906	249.98
1476.148	243.44
1479.391	240.74
1482.633	238.32
1485.874	234.99
1489.115	233.22
1492.356	229.9
1495.597	229.93
1498.838	226.47
1502.078	225.21
1505.318	224.26
1508.557	223.93
1511.797	223.87
1515.036	222.07
1518.274	221.28
1521.513	218.75
1524.751	217.98
1527.989	217.81
1531.227	216.07
1534.464	216.29
1537.701	214.81
1540.938	214.33
1544.174	211.62
1547.41	211.32
1550.646	210.33
1553.882	210.11
1557.117	207.95
1560.352	206.89
1563.587	205.73
1566.821	204.54
1570.055	202.38
1573.289	200.85
1576.523	200.29
1579.756	199.13
1582.989	198.07
1586.222	197.77
1589.454	196.51
1592.686	198.22
1595.918	197.1
1599.15	196.51
1602.381	196.87
1605.612	196.87
1608.843	197.49
1612.073	196.83
1615.303	197.98
1618.533	197.69
1621.762	197.21
1624.992	197.93
1628.221	197.09
1631.449	197.36
1634.678	196.94
1637.906	197.45
1641.134	197.42
1644.361	196.88
1647.588	197.83
1650.815	196.47
1654.042	196.11
1657.269	197.29
1660.495	196.79
1663.72	196.25
1666.946	197.13
1670.171	197.9
1673.396	197.59
1676.621	197.83
1679.845	198.4
1683.069	198.28
1686.293	200.32
1689.517	201.23
1692.74	200.83
1695.963	201.65
1699.185	203.67
1702.408	203.36
1705.63	204.05
1708.852	204.43
1712.073	205.45
1715.294	205.7
1718.515	207.09
1721.736	206.12
1724.956	206.88
1728.176	207.09
1731.396	208.85
1734.616	207.77
1737.835	209
1741.054	207.75
1744.272	208.55
1747.491	209.78
1750.709	210.38
1753.927	210.22
1757.144	209.22
1760.361	210.28
1763.578	210.87
1766.795	210.14
1770.011	212.2
1773.227	211.67
1776.443	214.56
1779.658	215.43
1782.874	215.12
1786.089	215.73
1789.303	216.42
1792.518	219.87
1795.732	219.76
1798.945	221.71
1802.159	221.92
1805.372	222.33
1808.585	226.57
1811.797	226.87
1815.01	227.31
1818.222	229.28
1821.434	231.04
1824.645	231.54
1827.856	234.75
1831.067	236.42
1834.278	236.42
1837.488	238.43
1840.698	240.07
1843.908	237.83
1847.117	239.43
1850.326	241.13
1853.535	240.17
1856.744	244.06
1859.952	244.04
1863.16	242.71
1866.368	240.99
1869.575	243.58
1872.782	240.04
1875.989	239.6
1879.196	239.02
1882.402	237.21
1885.608	238.01
1888.814	238.87
1892.019	237.37
1895.224	237.13
1898.429	236.6
1901.634	238.56
1904.838	238.16
1908.042	240.99
1911.246	242.07
1914.449	243.55
1917.652	244.13
1920.855	243.66
1924.058	243.33
1927.26	242.54
1930.462	243.57
1933.664	245.81
1936.865	243.89
1940.066	243.81
1943.267	242.61
1946.467	242.03
1949.668	244.05
1952.868	246.91
1956.067	246.88
1959.267	247.42
1962.466	248.48
1965.665	246.96
1968.863	247.86
1972.061	251.45
1975.259	253.6
1978.457	255.71
1981.654	257.55
1984.852	257.77
1988.048	256.87
1991.245	260.1
1994.441	262.87
1997.637	264.09
2000.833	270.15
2004.028	273
2007.223	273.92
2010.418	276.59
2013.613	281.84
2016.807	285.22
2020.001	286.63
2023.194	290.85
2026.388	296.59
2029.581	303.4
2032.774	306.68
2035.966	312.17
2039.158	313.17
2042.35	319.13
2045.542	321.93
2048.733	326.2
2051.924	330.44
2055.115	336.71
2058.306	337.74
2061.496	340.95
2064.686	340.96
2067.875	347.4
2071.065	348.38
2074.254	346.8
2077.442	351.57
2080.631	352.72
2083.819	355.87
2087.007	356.75
2090.195	360.82
2093.382	363.83
2096.569	361.3
2099.756	366.91
2102.942	367.78
2106.128	370.73
2109.314	379.59
2112.5	377.62
2115.685	386.81
2118.87	386.98
2122.055	394.58
2125.239	397.35
2128.424	402.45
2131.608	406.5
2134.791	411.22
2137.974	413.65
2141.157	414.01
2144.34	414.92
2147.523	420.78
2150.705	416.58
2153.887	420.53
2157.068	421.43
2160.25	417.14
2163.431	418.62
2166.611	422.99
2169.792	431.34
2172.972	435.34
2176.152	439.86
2179.331	445.67
2182.511	453.51
2185.69	458.74
2188.868	468.54
2192.047	468.58
2195.225	483.4
2198.403	496.82
2201.58	505.29
2204.758	514.19
2207.935	524.68
2211.111	534.19
2214.288	540.52
2217.464	542.22
2220.64	551.15
2223.815	557.86
2226.991	581.99
2230.166	582.3
2233.34	590.38
2236.515	601.59
2239.689	600.92
2242.863	604.65
2246.036	623.43
2249.209	617.33
2252.382	629.26
2255.555	647.33
2258.727	650.27
2261.9	652.57
2265.071	659.97
2268.243	672.04
2271.414	678.94
2274.585	696.89
2277.756	702.95
2280.926	705.12
2284.096	722.85
2287.266	738.51
2290.436	744.23
2293.605	760.77
2296.774	786.24
2299.942	808.56
2303.111	813.97
2306.279	832.85
2309.447	843.46
2312.614	866.42
2315.781	891.54
2318.948	934.23
2322.115	919.2
2325.281	968.64
2328.447	949.38
2331.613	986.68
2334.779	977.96
2337.944	1017.88
2341.109	1025.27
2344.274	1053.66
2347.438	1091.06
2350.602	1088.53
2353.766	1122.41
2356.929	1138.19
2360.092	1131.67
2363.255	1215.14
2366.418	1210.36
2369.58	1233.46
2372.742	1312.66
2375.904	1347.96
2379.066	1338.24
2382.227	1308.69
2385.388	1427.12
2388.548	1421.3
2391.709	1442.22
2394.869	1608.97
2398.029	1537.88
2401.188	1581.65
2404.347	1572.49
2407.506	1543.58
2410.665	1587.38
2413.823	1684.31
2416.981	1787.98
2420.139	1728.59
2423.296	1710.76
2426.453	1783.02
2429.61	1717.34
2432.767	1797.62
2435.923	1778.7
2439.079	1949.92
2442.235	1969.96
2445.391	1958.24
2448.546	1944.61
2451.701	1890.28
2454.855	1886.07
2458.009	2001.99
2461.163	2086.9
2464.317	2156.64
2467.471	2212.54
2470.624	2213.23
2473.777	2150
2476.929	2104.79
2480.082	2034.71
2483.234	2012.58
2486.385	2114.16
2489.537	2122.58
2492.688	2208.36
2495.839	2133.96
2498.989	2089.37
2502.14	2101.5
2505.29	2125.67
2508.439	2157.73
2511.589	2147.3
2514.738	2350.68
2517.887	2301.07
2521.035	2429.29
2524.183	2449.84
2527.331	2463.61
2530.479	2466.8
2533.627	2482.41
