Data from N_2_HIR_WI_4N_Splice17_13-33-55-305.txt Node
Date: Sat Mar 07 13:33:55 EST 2020
User: sa697716
Spectrometer: NQ5500242
Trigger mode: 0
Integration Time (sec): 1.450000E-1
Scans to average: 20
Nonlinearity correction enabled: false
Boxcar width: 5
Storing dark spectrum: false
XAxis mode: Wavelengths
Number of Pixels in Spectrum: 512
>>>>>Begin Spectral Data<<<<<
187.83	119.61
188.298	141.67
188.766	125.04
189.233	113.93
189.701	109.83
190.169	136.66
190.636	136.43
191.104	140.38
191.571	40.91
192.039	-33.43
192.506	93.64
192.974	-35.54
193.441	71.32
193.908	65.95
194.375	87.42
194.842	20.32
195.31	48.54
195.777	116.94
196.244	85.69
196.711	84.71
197.177	86.68
197.644	86.48
198.111	86.05
198.578	85.68
199.045	85.67
199.511	85.39
199.978	85.55
200.445	86.04
200.911	86.05
201.378	86.05
201.844	86.01
202.31	85.7
202.777	85.44
203.243	85.54
203.709	85.05
204.176	84.51
204.642	84.3
205.108	84.14
205.574	83.38
206.04	82.59
206.506	81.69
206.972	80.96
207.438	80.24
207.903	79.34
208.369	77.59
208.835	76.18
209.301	74.27
209.766	71.78
210.232	69.5
210.697	67.51
211.163	65.5
211.628	63.99
212.094	62.38
212.559	60.85
213.024	59.23
213.49	58.03
213.955	56.59
214.42	55.21
214.885	53.69
215.35	51.6
215.815	48.76
216.28	45.41
216.745	41.61
217.21	37.73
217.675	33.99
218.14	31.03
218.604	28.33
219.069	26.08
219.534	24.26
219.998	22.74
220.463	21.45
220.927	20.34
221.392	19.44
221.856	18.7
222.32	18.06
222.785	17.55
223.249	17
223.713	16.51
224.177	16.15
224.642	15.77
225.106	15.38
225.57	15.04
226.034	14.74
226.497	14.45
226.961	14.17
227.425	13.93
227.889	13.68
228.353	13.44
228.816	13.21
229.28	12.95
229.744	12.72
230.207	12.51
230.671	12.29
231.134	12.08
231.597	11.9
232.061	11.72
232.524	11.53
232.987	11.36
233.45	11.21
233.914	11.05
234.377	10.9
234.84	10.76
235.303	10.64
235.766	10.53
236.229	10.42
236.691	10.3
237.154	10.18
237.617	10.08
238.08	9.97
238.542	9.85
239.005	9.76
239.468	9.66
239.93	9.56
240.393	9.47
240.855	9.35
241.317	9.23
241.78	9.14
242.242	9.04
242.704	8.94
243.166	8.85
243.629	8.77
244.091	8.68
244.553	8.61
245.015	8.52
245.477	8.44
245.939	8.37
246.4	8.3
246.862	8.22
247.324	8.15
247.786	8.08
248.247	8
248.709	7.91
249.17	7.83
249.632	7.77
250.093	7.7
250.555	7.63
251.016	7.57
251.477	7.51
251.939	7.45
252.4	7.4
252.861	7.34
253.322	7.3
253.783	7.25
254.244	7.22
254.705	7.16
255.166	7.1
255.627	7.06
256.088	7.01
256.549	6.96
257.009	6.91
257.47	6.84
257.931	6.78
258.391	6.71
258.852	6.66
259.312	6.6
259.773	6.55
260.233	6.5
260.694	6.44
261.154	6.4
261.614	6.35
262.074	6.29
262.534	6.26
262.994	6.22
263.455	6.18
263.915	6.14
264.374	6.11
264.834	6.07
265.294	6.03
265.754	6.01
266.214	5.97
266.673	5.95
267.133	5.93
267.593	5.9
268.052	5.88
268.512	5.86
268.971	5.84
269.431	5.81
269.89	5.79
270.349	5.77
270.809	5.75
271.268	5.73
271.727	5.71
272.186	5.69
272.645	5.67
273.104	5.65
273.563	5.63
274.022	5.62
274.481	5.61
274.94	5.59
275.399	5.57
275.857	5.56
276.316	5.54
276.775	5.51
277.233	5.5
277.692	5.49
278.15	5.48
278.609	5.46
279.067	5.45
279.525	5.44
279.984	5.42
280.442	5.41
280.9	5.4
281.358	5.39
281.816	5.38
282.274	5.37
282.732	5.36
283.19	5.35
283.648	5.33
284.106	5.31
284.564	5.29
285.021	5.28
285.479	5.27
285.937	5.26
286.394	5.24
286.852	5.22
287.309	5.21
287.767	5.19
288.224	5.17
288.682	5.14
289.139	5.13
289.596	5.1
290.053	5.07
290.511	5.04
290.968	5.02
291.425	4.99
291.882	4.97
292.339	4.94
292.796	4.92
293.252	4.89
293.709	4.88
294.166	4.86
294.623	4.84
295.079	4.82
295.536	4.81
295.992	4.8
296.449	4.78
296.905	4.77
297.362	4.76
297.818	4.74
298.274	4.74
298.731	4.72
299.187	4.71
299.643	4.69
300.099	4.69
300.555	4.67
301.011	4.65
301.467	4.64
301.923	4.62
302.379	4.62
302.835	4.62
303.291	4.61
303.746	4.6
304.202	4.6
304.658	4.6
305.113	4.58
305.569	4.58
306.024	4.58
306.479	4.57
306.935	4.56
307.39	4.56
307.845	4.55
308.301	4.54
308.756	4.54
309.211	4.53
309.666	4.54
310.121	4.54
310.576	4.53
311.031	4.53
311.486	4.53
311.94	4.53
312.395	4.53
312.85	4.53
313.305	4.52
313.759	4.51
314.214	4.51
314.668	4.49
315.123	4.49
315.577	4.48
316.032	4.47
316.486	4.45
316.94	4.44
317.394	4.43
317.849	4.4
318.303	4.39
318.757	4.37
319.211	4.35
319.665	4.34
320.119	4.31
320.572	4.29
321.026	4.28
321.48	4.26
321.934	4.24
322.387	4.23
322.841	4.22
323.295	4.22
323.748	4.21
324.202	4.2
324.655	4.19
325.108	4.19
325.562	4.19
326.015	4.18
326.468	4.19
326.921	4.19
327.374	4.18
327.827	4.18
328.28	4.17
328.733	4.18
329.186	4.18
329.639	4.18
330.092	4.18
330.545	4.18
330.997	4.17
331.45	4.17
331.903	4.18
332.355	4.19
332.808	4.19
333.26	4.19
333.713	4.18
334.165	4.18
334.617	4.18
335.069	4.19
335.522	4.19
335.974	4.19
336.426	4.17
336.878	4.16
337.33	4.15
337.782	4.15
338.234	4.15
338.686	4.14
339.137	4.14
339.589	4.11
340.041	4.1
340.493	4.08
340.944	4.07
341.396	4.06
341.847	4.06
342.299	4.03
342.75	4.01
343.201	3.99
343.653	3.97
344.104	3.95
344.555	3.93
345.006	3.92
345.457	3.91
345.908	3.9
346.359	3.89
346.81	3.88
347.261	3.87
347.712	3.86
348.163	3.85
348.613	3.85
349.064	3.85
349.515	3.84
349.965	3.84
350.416	3.83
350.866	3.82
351.317	3.8
351.767	3.81
352.217	3.8
352.668	3.8
353.118	3.8
353.568	3.79
354.018	3.79
354.468	3.81
354.918	3.8
355.368	3.8
355.818	3.79
356.268	3.8
356.718	3.79
357.168	3.78
357.617	3.78
358.067	3.78
358.517	3.8
358.966	3.8
359.416	3.79
359.865	3.79
360.315	3.8
360.764	3.8
361.213	3.79
361.663	3.79
362.112	3.79
362.561	3.79
363.01	3.78
363.459	3.75
363.908	3.74
364.357	3.74
364.806	3.74
365.255	3.74
365.703	3.74
366.152	3.73
366.601	3.73
367.05	3.74
367.498	3.73
367.947	3.74
368.395	3.74
368.844	3.74
369.292	3.72
369.74	3.71
370.189	3.7
370.637	3.7
371.085	3.69
371.533	3.69
371.981	3.68
372.429	3.68
372.877	3.67
373.325	3.68
373.773	3.66
374.221	3.66
374.669	3.65
375.116	3.64
375.564	3.63
376.012	3.63
376.459	3.62
376.907	3.61
377.354	3.6
377.801	3.6
378.249	3.59
378.696	3.59
379.143	3.59
379.591	3.59
380.038	3.59
380.485	3.58
380.932	3.58
381.379	3.58
381.826	3.57
382.273	3.56
382.72	3.55
383.166	3.54
383.613	3.53
384.06	3.52
384.506	3.5
384.953	3.5
385.4	3.5
385.846	3.5
386.292	3.5
386.739	3.49
387.185	3.48
387.631	3.49
388.078	3.49
388.524	3.48
388.97	3.48
389.416	3.48
389.862	3.48
390.308	3.49
390.754	3.5
391.2	3.51
391.645	3.51
392.091	3.53
392.537	3.54
392.983	3.54
393.428	3.55
393.874	3.55
394.319	3.56
394.765	3.56
395.21	3.55
395.655	3.55
396.101	3.56
396.546	3.56
396.991	3.58
397.436	3.58
397.881	3.6
398.326	3.62
398.771	3.64
399.216	3.65
399.661	3.67
400.106	3.69
400.551	3.7
400.995	3.7
401.44	3.7
401.885	3.71
402.329	3.73
402.774	3.74
403.218	3.77
403.663	3.78
404.107	3.8
404.551	3.81
404.995	3.82
405.44	3.83
405.884	3.85
406.328	3.88
406.772	3.88
407.216	3.89
407.66	3.9
408.104	3.89
408.547	3.89
408.991	3.9
409.435	3.91
409.879	3.93
410.322	3.96
410.766	3.98
411.209	4
411.653	4.03
412.096	4.06
412.54	4.09
412.983	4.11
413.426	4.17
413.869	4.19
414.312	4.23
414.756	4.25
415.199	4.25
415.642	4.26
416.085	4.28
416.527	4.28
416.97	4.29
417.413	4.29
417.856	4.3
418.298	4.28
418.741	4.3
419.184	4.28
419.626	4.29
420.069	4.31
420.511	4.33
420.953	4.34
421.396	4.36
421.838	4.37
422.28	4.39
422.722	4.42
423.164	4.43
423.606	4.44
424.048	4.46
424.49	4.46
424.932	4.45
425.374	4.43
425.816	4.41
426.258	4.4
426.699	4.39
427.141	4.38
427.582	4.37
428.024	4.39
428.465	4.4
428.907	4.39
429.348	4.38
429.789	4.39
430.231	4.44
430.672	4.47
431.113	4.5
431.554	4.52
431.995	4.54
432.436	4.56
432.877	4.57
433.318	4.59
433.759	4.63
434.2	4.68
434.64	4.7
435.081	4.7
435.522	4.72
435.962	4.74
436.403	4.77
436.843	4.8
437.284	4.8
437.724	4.81
438.164	4.81
438.604	4.81
439.045	4.82
439.485	4.84
439.925	4.84
440.365	4.84
440.805	4.84
441.245	4.85
441.685	4.86
442.125	4.88
442.564	4.9
443.004	4.92
443.444	4.94
443.883	4.96
444.323	4.95
444.762	4.96
445.202	4.97
445.641	4.99
446.081	5.01
446.52	5.01
446.959	5.02
447.398	5.04
447.837	5.05
448.276	5.06
448.716	5.07
449.154	5.09
449.593	5.13
450.032	5.13
450.471	5.13
450.91	5.14
451.349	5.16
451.787	5.16
452.226	5.15
452.664	5.14
453.103	5.13
453.541	5.13
453.98	5.12
454.418	5.08
454.856	5.08
455.295	5.06
455.733	5.02
456.171	5.01
456.609	4.99
457.047	4.97
457.485	4.94
457.923	4.93
458.361	4.91
458.798	4.9
459.236	4.89
459.674	4.87
460.111	4.87
460.549	4.89
460.987	4.89
461.424	4.89
461.862	4.89
462.299	4.91
462.736	4.92
463.173	4.93
463.611	4.94
464.048	4.95
464.485	4.96
464.922	4.98
465.359	4.97
465.796	4.99
466.233	5
466.67	5.02
467.106	5.03
467.543	5.02
467.98	5.03
468.416	5.02
468.853	5.02
469.29	5.02
469.726	5.02
470.162	5.03
470.599	5
471.035	4.99
471.471	4.97
471.907	4.96
472.344	4.96
472.78	4.94
473.216	4.92
473.652	4.93
474.088	4.9
474.523	4.89
474.959	4.87
475.395	4.86
475.831	4.84
476.266	4.84
476.702	4.81
477.138	4.8
477.573	4.79
478.008	4.79
478.444	4.76
478.879	4.77
479.314	4.75
479.75	4.74
480.185	4.72
480.62	4.72
481.055	4.7
481.49	4.7
481.925	4.7
482.36	4.69
482.795	4.67
483.229	4.66
483.664	4.67
484.099	4.67
484.534	4.66
484.968	4.67
485.403	4.67
485.837	4.68
486.271	4.68
486.706	4.69
487.14	4.7
487.574	4.72
488.009	4.74
488.443	4.73
488.877	4.76
489.311	4.78
489.745	4.8
490.179	4.83
490.613	4.85
491.046	4.88
491.48	4.92
491.914	4.96
492.348	5
492.781	5.04
493.215	5.09
493.648	5.14
494.082	5.18
494.515	5.23
494.948	5.28
495.382	5.34
495.815	5.39
496.248	5.47
496.681	5.54
497.114	5.61
497.547	5.67
497.98	5.75
498.413	5.83
498.846	5.92
499.279	6.01
499.711	6.1
500.144	6.2
500.577	6.3
501.009	6.39
501.442	6.49
501.874	6.61
502.306	6.73
502.739	6.86
503.171	6.99
503.603	7.12
504.036	7.26
504.468	7.39
504.9	7.53
505.332	7.68
505.764	7.84
506.196	8
506.627	8.17
507.059	8.35
507.491	8.52
507.923	8.7
508.354	8.9
508.786	9.09
509.217	9.3
509.649	9.51
510.08	9.71
510.512	9.93
510.943	10.15
511.374	10.36
511.805	10.58
512.237	10.81
512.668	11.04
513.099	11.26
513.53	11.5
513.961	11.73
514.391	11.99
514.822	12.22
515.253	12.47
515.684	12.7
516.114	12.95
516.545	13.2
516.975	13.45
517.406	13.71
517.836	13.96
518.267	14.22
518.697	14.46
519.127	14.68
519.558	14.91
519.988	15.15
520.418	15.39
520.848	15.62
521.278	15.84
521.708	16.23
522.138	16.44
522.567	16.65
522.997	16.85
523.427	17.04
523.857	17.25
524.286	17.45
524.716	17.63
525.145	17.81
525.575	17.99
526.004	18.17
526.433	18.16
526.863	18.32
527.292	18.49
527.721	18.64
528.15	18.78
528.579	18.93
529.008	19.06
529.437	19.19
529.866	19.31
530.295	19.43
530.724	19.53
531.152	19.64
531.581	19.73
532.01	19.82
532.438	19.91
532.867	19.99
533.295	20.06
533.723	20.14
534.152	20.21
534.58	20.29
535.008	20.33
535.436	20.4
535.865	20.46
536.293	20.5
536.721	20.56
537.149	20.62
537.576	20.68
538.004	20.73
538.432	20.76
538.86	20.8
539.287	20.83
539.715	20.87
540.143	20.9
540.57	20.92
540.998	20.94
541.425	20.96
541.852	20.97
542.28	20.99
542.707	21
543.134	21.02
543.561	21.07
543.988	21.09
544.415	21.1
544.842	21.11
545.269	21.14
545.696	21.16
546.123	21.19
546.549	21.23
546.976	21.26
547.403	21.29
547.829	21.3
548.256	21.3
548.682	21.31
549.108	21.34
549.535	21.38
549.961	21.39
550.387	21.41
550.813	21.4
551.24	21.38
551.666	21.38
552.092	21.38
552.518	21.37
552.943	21.37
553.369	21.36
553.795	21.34
554.221	21.31
554.646	21.29
555.072	21.26
555.498	21.24
555.923	21.2
556.349	21.16
556.774	21.1
557.199	21.04
557.625	20.98
558.05	20.93
558.475	20.87
558.9	20.8
559.325	20.74
559.75	20.67
560.175	20.58
560.6	20.5
561.025	20.43
561.449	20.34
561.874	20.26
562.299	20.17
562.723	20.08
563.148	19.96
563.572	19.85
563.997	19.74
564.421	19.62
564.846	19.51
565.27	19.4
565.694	19.29
566.118	19.18
566.542	19.07
566.966	18.95
567.39	18.83
567.814	18.7
568.238	18.57
568.662	18.46
569.086	18.35
569.509	18.23
569.933	18.12
570.357	17.99
570.78	17.85
571.204	17.72
571.627	17.6
572.05	17.48
572.474	17.39
572.897	17.3
573.32	17.19
573.743	17.08
574.166	16.97
574.589	16.86
575.012	16.76
575.435	16.67
575.858	16.59
576.281	16.51
576.704	16.42
577.126	16.33
577.549	16.24
577.972	16.14
578.394	16.07
578.817	16
579.239	15.91
579.661	15.84
580.084	15.78
580.506	15.71
580.928	15.64
581.35	15.57
581.772	15.5
582.194	15.44
582.616	15.39
583.038	15.32
583.46	15.27
583.882	15.23
584.303	15.17
584.725	15.1
585.147	15.05
585.568	14.99
585.99	14.94
586.411	14.88
586.833	14.83
587.254	14.78
587.675	14.72
588.096	14.67
588.518	14.62
588.939	14.58
589.36	14.54
589.781	14.49
590.202	14.47
590.623	14.44
591.043	14.4
591.464	14.37
591.885	14.34
592.305	14.3
592.726	14.28
593.147	14.25
593.567	14.2
593.987	14.17
594.408	14.14
594.828	14.09
595.248	14.06
595.669	14.04
596.089	14.01
596.509	13.97
596.929	13.95
597.349	13.92
597.769	13.88
598.189	13.84
598.608	13.82
599.028	13.79
599.448	13.76
599.867	13.72
600.287	13.69
600.706	13.66
601.126	13.62
601.545	13.58
601.965	13.54
602.384	13.5
602.803	13.46
603.222	13.41
603.641	13.36
604.061	13.31
604.48	13.26
604.898	13.19
605.317	13.14
605.736	13.09
606.155	13.04
606.574	12.97
606.992	12.91
607.411	12.85
607.829	12.76
608.248	12.68
608.666	12.62
609.085	12.55
609.503	12.5
609.921	12.43
610.339	12.37
610.758	12.29
611.176	12.22
611.594	12.15
612.012	12.09
612.43	12.04
612.847	11.98
613.265	11.92
613.683	11.86
614.101	11.8
614.518	11.71
614.936	11.64
615.353	11.58
615.771	11.52
616.188	11.47
616.606	11.42
617.023	11.36
617.44	11.32
617.857	11.26
618.274	11.21
618.691	11.15
619.108	11.12
619.525	11.08
619.942	11.04
620.359	11
620.776	10.97
621.192	10.94
621.609	10.9
622.026	10.88
622.442	10.85
622.859	10.83
623.275	10.81
623.691	10.8
624.108	10.79
624.524	10.78
624.94	10.77
625.356	10.76
625.772	10.75
626.188	10.75
626.604	10.74
627.02	10.73
627.436	10.73
627.852	10.73
628.268	10.72
628.683	10.72
629.099	10.71
629.514	10.7
629.93	10.69
630.345	10.67
630.761	10.64
631.176	10.63
631.591	10.61
632.007	10.58
632.422	10.53
632.837	10.49
633.252	10.44
633.667	10.38
634.082	10.33
634.497	10.28
634.911	10.23
635.326	10.16
635.741	10.1
636.155	10.02
636.57	9.95
636.984	9.88
637.399	9.8
637.813	9.71
638.228	9.63
638.642	9.53
639.056	9.43
639.47	9.32
639.884	9.23
640.298	9.12
640.712	9.02
641.126	8.91
641.54	8.81
641.954	8.7
642.368	8.59
642.781	8.5
643.195	8.4
643.609	8.3
644.022	8.21
644.436	8.12
644.849	8.03
645.262	7.94
645.676	7.86
646.089	7.78
646.502	7.72
646.915	7.65
647.328	7.59
647.741	7.53
648.154	7.47
648.567	7.43
648.98	7.37
649.393	7.32
649.805	7.29
650.218	7.25
650.631	7.21
651.043	7.17
651.456	7.13
651.868	7.08
652.28	7.04
652.693	7.01
653.105	6.96
653.517	6.93
653.929	6.89
654.341	6.84
654.753	6.78
655.165	6.72
655.577	6.67
655.989	6.61
656.401	6.53
656.813	6.48
657.224	6.41
657.636	6.33
658.047	6.26
658.459	6.18
658.87	6.1
659.282	6.02
659.693	5.95
660.104	5.87
660.515	5.79
660.926	5.73
661.338	5.64
661.749	5.57
662.159	5.51
662.57	5.44
662.981	5.39
663.392	5.32
663.803	5.27
664.213	5.21
664.624	5.16
665.035	5.11
665.445	5.07
665.855	5.03
666.266	5
666.676	4.97
667.086	4.92
667.497	4.89
667.907	4.85
668.317	4.83
668.727	4.81
669.137	4.79
669.547	4.78
669.956	4.76
670.366	4.75
670.776	4.73
671.186	4.73
671.595	4.73
672.005	4.72
672.414	4.73
672.824	4.73
673.233	4.73
673.642	4.74
674.052	4.75
674.461	4.77
674.87	4.78
675.279	4.8
675.688	4.82
676.097	4.84
676.506	4.87
676.915	4.9
677.323	4.93
677.732	4.94
678.141	4.98
678.549	5.01
678.958	5.05
679.366	5.1
679.775	5.15
680.183	5.21
680.592	5.28
681	5.36
681.408	5.43
681.816	5.52
682.224	5.63
682.632	5.74
683.04	5.86
683.448	6
683.856	6.14
684.264	6.31
684.671	6.46
685.079	6.64
685.487	6.85
685.894	7.08
686.302	7.33
686.709	7.59
687.116	7.89
687.524	8.19
687.931	8.51
688.338	8.87
688.745	9.24
689.152	9.62
689.559	10.02
689.966	10.43
690.373	10.86
690.78	11.3
691.187	11.75
691.593	12.21
692	12.68
692.407	13.14
692.813	13.62
693.22	14.07
693.626	14.55
694.032	15.04
694.439	15.52
694.845	15.99
695.251	16.47
695.657	16.93
696.063	17.41
696.469	17.88
696.875	18.34
697.281	18.79
697.687	19.26
698.093	19.7
698.498	20.12
698.904	20.53
699.31	20.96
699.715	21.38
700.12	21.79
700.526	22.18
700.931	22.58
701.337	22.97
701.742	23.34
702.147	23.7
702.552	24.06
702.957	24.41
703.362	24.77
703.767	25.1
704.172	25.43
704.577	25.74
704.981	26.05
705.386	26.34
705.791	26.64
706.195	26.96
706.6	27.28
707.004	27.57
707.408	27.87
707.813	28.16
708.217	28.44
708.621	28.7
709.025	28.97
709.43	29.23
709.834	29.49
710.237	29.75
710.641	29.97
711.045	30.2
711.449	30.44
711.853	30.69
712.256	30.91
712.66	31.14
713.064	31.37
713.467	31.6
713.87	31.83
714.274	32.05
714.677	32.24
715.08	32.44
715.484	32.64
715.887	32.86
716.29	33.02
716.693	33.21
717.096	33.38
717.499	33.58
717.901	33.75
718.304	33.9
718.707	34.06
719.109	34.24
719.512	34.4
719.915	34.55
720.317	34.65
720.719	34.79
721.122	34.94
721.524	35.07
721.926	35.18
722.328	35.31
722.731	35.43
723.133	35.57
723.535	35.67
723.937	35.79
724.338	35.9
724.74	36.04
725.142	36.25
725.544	36.32
725.945	36.44
726.347	36.53
726.748	36.62
727.15	36.69
727.551	36.76
727.952	36.82
728.354	36.9
728.755	36.95
729.156	37.01
729.557	36.98
729.958	37.07
730.359	37.11
730.76	37.2
731.161	37.27
731.562	37.35
731.962	37.4
732.363	37.5
732.763	37.56
733.164	37.6
733.564	37.65
733.965	37.71
734.365	37.76
734.766	37.79
735.166	37.84
735.566	37.88
735.966	37.94
736.366	37.98
736.766	37.99
737.166	38.01
737.566	38.06
737.966	38.09
738.365	38.12
738.765	38.16
739.165	38.21
739.564	38.23
739.964	38.25
740.363	38.23
740.763	38.26
741.162	38.29
741.561	38.3
741.96	38.31
742.36	38.34
742.759	38.36
743.158	38.35
743.557	38.34
743.955	38.37
744.354	38.39
744.753	38.41
745.152	38.45
745.55	38.48
745.949	38.5
746.348	38.55
746.746	38.57
747.144	38.59
747.543	38.61
747.941	38.65
748.339	38.6
748.737	38.6
749.136	38.62
749.534	38.6
749.932	38.6
750.33	38.6
750.727	38.58
751.125	38.58
751.523	38.56
751.921	38.54
752.318	38.52
752.716	38.55
753.113	38.55
753.511	38.55
753.908	38.55
754.305	38.56
754.703	38.54
755.1	38.55
755.497	38.55
755.894	38.56
756.291	38.56
756.688	38.55
757.085	38.56
757.482	38.56
757.878	38.58
758.275	38.57
758.672	38.57
759.068	38.62
759.465	38.62
759.861	38.61
760.258	38.63
760.654	38.67
761.05	38.69
761.447	38.69
761.843	38.7
762.239	38.69
762.635	38.7
763.031	38.7
763.427	38.66
763.822	38.67
764.218	38.69
764.614	38.68
765.01	38.66
765.405	38.64
765.801	38.63
766.196	38.61
766.592	38.61
766.987	38.61
767.382	38.59
767.778	38.61
768.173	38.61
768.568	38.59
768.963	38.58
769.358	38.6
769.753	38.6
770.148	38.61
770.542	38.65
770.937	38.66
771.332	38.65
771.726	38.69
772.121	38.68
772.515	38.68
772.91	38.68
773.304	38.7
773.699	38.7
774.093	38.7
774.487	38.68
774.881	38.68
775.275	38.67
775.669	38.66
776.063	38.64
776.457	38.65
776.851	38.64
777.245	38.62
777.638	38.62
778.032	38.61
778.425	38.64
778.819	38.64
779.212	38.65
779.606	38.65
779.999	38.67
780.392	38.7
780.786	38.69
781.179	38.71
781.572	38.76
781.965	38.75
782.358	38.76
782.751	38.74
783.143	38.72
783.536	38.69
783.929	38.69
784.322	38.7
784.714	38.69
785.107	38.72
785.499	38.69
785.891	38.68
786.284	38.68
786.676	38.66
787.068	38.65
787.46	38.67
787.852	38.67
788.245	38.68
788.636	38.65
789.028	38.64
789.42	38.64
789.812	38.66
790.204	38.65
790.595	38.66
790.987	38.65
791.378	38.67
791.77	38.67
792.161	38.68
792.553	38.7
792.944	38.7
793.335	38.7
793.726	38.69
794.117	38.67
794.508	38.65
794.899	38.63
795.29	38.66
795.681	38.64
796.072	38.65
796.463	38.68
796.853	38.66
797.244	38.68
797.634	38.68
798.025	38.69
798.415	38.69
798.806	38.69
799.196	38.72
799.586	38.71
799.976	38.7
800.366	38.72
800.756	38.69
801.146	38.7
801.536	38.7
801.926	38.68
802.316	38.69
802.706	38.72
803.095	38.7
803.485	38.68
803.874	38.67
804.264	38.69
804.653	38.68
805.043	38.67
805.432	38.66
805.821	38.68
806.21	38.7
806.599	38.71
806.988	38.69
807.377	38.71
807.766	38.72
808.155	38.69
808.544	38.69
808.933	38.67
809.321	38.68
809.71	38.69
810.098	38.66
810.487	38.64
810.875	38.62
811.264	38.61
811.652	38.62
812.04	38.62
812.428	38.66
812.816	38.64
813.204	38.64
813.592	38.64
813.98	38.64
814.368	38.66
814.756	38.64
815.144	38.63
815.531	38.62
815.919	38.59
816.306	38.59
816.694	38.54
817.081	38.57
817.469	38.57
817.856	38.54
818.243	38.5
818.63	38.47
819.017	38.47
819.404	38.48
819.791	38.48
820.178	38.48
820.565	38.46
820.952	38.45
821.339	38.42
821.725	38.42
822.112	38.45
822.498	38.43
822.885	38.43
823.271	38.43
823.657	38.4
824.044	38.39
824.43	38.38
824.816	38.38
825.202	38.4
825.588	38.39
825.974	38.37
826.36	38.32
826.746	38.32
827.132	38.3
827.517	38.31
827.903	38.32
828.289	38.33
828.674	38.33
829.06	38.31
829.445	38.3
829.83	38.28
830.216	38.27
830.601	38.27
830.986	38.28
831.371	38.27
831.756	38.27
832.141	38.25
832.526	38.24
832.911	38.23
833.295	38.22
833.68	38.22
834.065	38.22
834.449	38.21
834.834	38.2
835.218	38.2
835.603	38.19
835.987	38.17
836.371	38.16
836.755	38.16
837.139	38.14
837.524	38.13
837.908	38.14
838.291	38.15
838.675	38.15
839.059	38.14
839.443	38.12
839.827	38.11
840.21	38.13
840.594	38.12
840.977	38.08
841.361	38.09
841.744	38.07
842.127	38.03
842.511	38
842.894	37.99
843.277	37.97
843.66	37.95
844.043	37.96
844.426	37.94
844.809	37.93
845.191	37.97
845.574	37.97
845.957	37.98
846.339	37.99
846.722	37.99
847.104	38
847.487	38
847.869	38.02
848.252	38.01
848.634	38.01
849.016	38.02
849.398	38.01
849.78	37.99
850.162	37.98
850.544	37.98
850.926	37.98
851.307	37.98
851.689	37.98
852.071	37.99
852.452	38
852.834	37.99
853.215	37.96
853.597	37.96
853.978	37.96
854.359	37.95
854.741	37.96
855.122	37.94
855.503	37.93
855.884	37.92
856.265	37.9
856.646	37.87
857.026	37.87
857.407	37.88
857.788	37.87
858.169	37.88
858.549	37.88
858.93	37.86
859.31	37.86
859.69	37.86
860.071	37.89
860.451	37.9
860.831	37.92
861.211	37.91
861.591	37.91
861.971	37.88
862.351	37.89
862.731	37.92
863.111	37.9
863.491	37.91
863.87	37.9
864.25	37.87
864.629	37.87
865.009	37.87
865.388	37.86
865.768	37.87
866.147	37.89
866.526	37.89
866.905	37.88
867.284	37.89
867.663	37.88
868.042	37.89
868.421	37.9
868.8	37.9
869.179	37.91
869.558	37.93
869.936	37.94
870.315	37.92
870.693	37.92
871.072	37.93
871.45	37.95
871.828	37.96
872.207	37.98
872.585	37.98
872.963	37.98
873.341	37.98
873.719	37.98
874.097	37.97
874.475	38
874.853	38
875.23	38
875.608	38
875.986	38.01
876.363	38.02
876.741	38.02
877.118	38.03
877.495	38.04
877.873	38.04
878.25	38.04
878.627	38.05
879.004	38.04
879.381	38.06
879.758	38.04
880.135	38.03
880.512	38.01
880.889	38.01
881.265	38
881.642	37.99
882.019	37.98
882.395	37.97
882.772	37.94
883.148	37.91
883.524	37.89
883.901	37.9
884.277	37.89
884.653	37.88
885.029	37.86
885.405	37.85
885.781	37.84
886.157	37.83
886.532	37.85
886.908	37.82
887.284	37.82
887.659	37.79
888.035	37.76
888.411	37.74
888.786	37.73
889.161	37.72
889.537	37.71
889.912	37.7
890.287	37.67
890.662	37.64
891.037	37.65
891.412	37.61
891.787	37.59
892.162	37.59
892.536	37.58
892.911	37.55
893.286	37.54
893.66	37.53
894.035	37.51
894.409	37.51
894.784	37.52
895.158	37.52
895.532	37.55
895.906	37.57
896.281	37.58
896.655	37.57
897.029	37.61
897.402	37.62
897.776	37.64
898.15	37.66
898.524	37.69
898.898	37.67
899.271	37.68
899.645	37.71
900.018	37.73
900.392	37.73
900.765	37.75
901.138	37.73
901.511	37.72
901.884	37.73
902.258	37.73
902.631	37.74
903.003	37.77
903.376	37.77
903.749	37.76
904.122	37.77
904.495	37.81
904.867	37.82
905.24	37.88
905.612	37.9
905.985	37.9
906.357	37.91
906.729	37.92
907.102	37.93
907.474	37.97
907.846	37.98
908.218	37.96
908.59	37.96
908.962	37.96
909.334	37.96
909.705	37.94
910.077	37.96
910.449	37.96
910.82	37.98
911.192	37.97
911.563	37.93
911.935	37.9
912.306	37.92
912.677	37.92
913.048	37.95
913.419	37.94
913.79	37.97
914.161	37.98
914.532	38
914.903	38
915.274	37.98
915.645	38
916.015	38.03
916.386	38.05
916.756	38.07
917.127	38.08
917.497	38.07
917.868	38.09
918.238	38.11
918.608	38.13
918.978	38.14
919.348	38.18
919.718	38.2
920.088	38.24
920.458	38.24
920.828	38.21
921.198	38.18
921.567	38.21
921.937	38.22
922.306	38.18
922.676	38.17
923.045	38.16
923.415	38.17
923.784	38.16
924.153	38.16
924.522	38.17
924.891	38.18
925.26	38.18
925.629	38.19
925.998	38.17
926.367	38.18
926.736	38.18
927.104	38.2
927.473	38.18
927.842	38.18
928.21	38.19
928.578	38.18
928.947	38.23
929.315	38.21
929.683	38.22
930.051	38.21
930.42	38.22
930.788	38.23
931.156	38.2
931.523	38.2
931.891	38.25
932.259	38.24
932.627	38.25
932.994	38.25
933.362	38.32
933.729	38.33
934.097	38.37
934.464	38.43
934.831	38.46
935.199	38.51
935.566	38.57
935.933	38.52
936.3	38.56
936.667	38.6
937.034	38.67
937.401	38.72
937.767	38.78
938.134	38.8
938.501	38.8
938.867	38.85
939.234	38.9
939.6	38.92
939.967	39.02
940.333	39.05
940.699	39.13
941.065	39.09
941.431	39.07
941.798	39.04
942.163	39.04
942.529	39.08
942.895	39.12
943.261	39.14
943.627	39.14
943.992	39.14
944.358	39.16
944.723	39.09
945.089	39.01
945.454	39.01
945.82	39.01
946.185	39.02
946.55	38.98
946.915	38.86
947.28	38.82
947.645	38.83
948.01	38.8
948.375	38.78
948.74	38.77
949.104	38.82
949.469	38.8
949.834	38.76
950.198	38.75
950.562	38.7
950.927	38.7
951.291	38.62
951.655	38.51
952.02	38.51
952.384	38.41
952.748	38.38
953.112	38.34
953.476	38.24
953.839	38.17
954.203	38.1
954.567	38.08
954.931	38.04
955.294	38.03
955.658	38.1
956.021	38.05
956.385	38.04
956.748	38.03
957.111	38.01
957.474	38.04
957.837	38.03
958.2	38.05
958.563	38.03
958.926	38.04
959.289	38.07
959.652	37.99
960.015	38.01
960.377	38.02
960.74	38.03
961.102	38.01
961.465	38.02
961.827	38.06
962.189	38.03
962.552	38.07
962.914	38.11
963.276	38.17
963.638	38.19
964	38.17
964.362	38.2
964.724	38.17
965.085	38.16
965.447	38.15
965.809	38.15
966.17	38.12
966.532	38.12
966.893	38.11
967.255	38.04
967.616	38.07
967.977	38.1
968.338	38.07
968.699	38.12
969.061	38.18
969.421	38.19
969.782	38.23
970.143	38.27
970.504	38.31
970.865	38.33
971.225	38.32
971.586	38.28
971.946	38.29
972.307	38.35
972.667	38.31
973.027	38.31
973.388	38.33
973.748	38.33
974.108	38.37
974.468	38.33
974.828	38.39
975.188	38.41
975.548	38.47
975.907	38.46
976.267	38.48
976.627	38.55
976.986	38.51
977.346	38.5
977.705	38.51
978.064	38.55
978.424	38.61
978.783	38.59
979.142	38.64
979.501	38.63
979.86	38.73
980.219	38.74
980.578	38.75
980.937	38.87
981.296	38.93
981.654	38.95
982.013	38.97
982.371	38.97
982.73	39
983.088	39.01
983.447	39.06
983.805	39.05
984.163	39.04
984.521	39.07
984.879	38.97
985.237	39.02
985.595	39.08
985.953	39.09
986.311	39.05
986.669	39.09
987.026	39.05
987.384	39.1
987.741	39.06
988.099	39.18
988.456	39.15
988.814	39.27
989.171	39.27
989.528	39.25
989.885	39.28
990.242	39.35
990.599	39.33
990.956	39.5
991.313	39.51
991.67	39.59
992.027	39.7
992.383	39.81
992.74	39.91
993.096	39.95
993.453	40.02
993.809	40.13
994.165	40.31
994.522	40.41
994.878	40.41
995.234	40.46
995.59	40.42
995.946	40.37
996.302	40.38
996.658	40.41
997.013	40.46
997.369	40.49
997.725	40.52
998.08	40.5
998.436	40.59
998.791	40.63
999.147	40.72
999.502	40.88
999.857	40.87
1000.212	40.86
1000.567	40.88
1000.922	40.92
1001.277	40.95
1001.632	40.89
1001.987	40.96
1002.342	40.9
1002.696	40.9
1003.051	41.1
1003.406	41.26
1003.76	41.31
1004.114	41.43
1004.469	41.58
1004.823	41.87
1005.177	41.95
1005.531	42.16
1005.885	42.2
1006.239	42.25
1006.593	42.58
1006.947	42.53
1007.301	42.44
1007.655	42.55
1008.008	42.67
1008.362	42.66
1008.715	42.51
1009.069	42.66
1009.422	42.65
1009.776	42.73
1010.129	42.87
1010.482	42.69
1010.835	42.71
1011.188	42.91
1011.541	43.01
1011.894	43.09
1012.247	43.23
1012.6	43.39
1012.952	43.42
1013.305	43.57
1013.657	43.67
1014.01	43.85
1014.362	44.17
1014.715	44.44
1015.067	44.49
1015.419	44.7
1015.771	44.69
1016.123	44.85
1016.475	45.04
1016.827	45.38
1017.179	45.44
1017.531	45.69
1017.883	45.77
1018.234	45.93
1018.586	46.11
1018.938	46.45
1019.289	46.47
1019.64	46.8
1019.992	46.81
1020.343	46.74
1020.694	46.75
1021.045	46.92
1021.396	46.89
1021.747	47.26
1022.098	47.33
1022.449	47.2
1022.8	47.27
1023.151	47.51
1023.501	47.54
1023.852	47.85
1024.202	48.04
1024.553	48.14
1024.903	48.42
1025.253	48.88
1025.604	48.91
1025.954	49.04
1026.304	49.22
1026.654	49.53
1027.004	49.65
1027.354	49.79
1027.703	49.77
1028.053	50.03
1028.403	50.26
1028.753	50.21
1029.102	50.5
1029.452	50.81
1029.801	51.17
1030.15	51.44
1030.499	51.27
897.758	1503.41
901.051	1506.56
904.343	1501.67
907.636	1526.24
910.928	1485.27
914.22	1486.85
917.511	1469.47
920.803	1403.28
924.094	1399.38
927.384	1367.55
930.675	1308.57
933.965	1300.17
937.255	1227.85
940.544	1178.34
943.834	1123.3
947.123	1114.27
950.411	1045.7
953.7	1023.15
956.988	968.41
960.276	927.49
963.563	914.07
966.851	883.47
970.138	873.72
973.424	845.06
976.711	850.74
979.997	807.06
983.283	802.58
986.568	786.63
989.853	763.29
993.138	750.25
996.423	719.98
999.708	700.05
1002.992	690.42
1006.275	660.08
1009.559	654.9
1012.842	630.89
1016.125	613.37
1019.408	602.64
1022.69	593.67
1025.972	580.74
1029.254	566.67
1032.536	558.25
1035.817	545.53
1039.098	538.73
1042.379	526.73
1045.659	520.3
1048.939	506.35
1052.219	497.7
1055.498	488.52
1058.778	477.83
1062.057	465.8
1065.335	460.61
1068.614	455.37
1071.892	450.18
1075.17	434.94
1078.447	428.17
1081.724	424.61
1085.001	421.8
1088.278	412.35
1091.554	404.14
1094.83	404.51
1098.106	402.46
1101.382	397.7
1104.657	394.76
1107.932	387.68
1111.206	390.75
1114.481	379.67
1117.755	375.89
1121.029	372.75
1124.302	372.44
1127.575	365.18
1130.848	360.24
1134.121	356.63
1137.393	355.72
1140.665	347.45
1143.937	346.79
1147.208	342.76
1150.48	342.91
1153.75	338.28
1157.021	332.73
1160.291	333.05
1163.561	330.32
1166.831	329.57
1170.101	327.08
1173.37	325.6
1176.639	326.57
1179.907	322.86
1183.176	319.95
1186.444	319.34
1189.711	319.03
1192.979	318.46
1196.246	315.27
1199.513	316.84
1202.78	315.04
1206.046	314.85
1209.312	312
1212.578	312.57
1215.843	314.57
1219.108	312.84
1222.373	319.71
1225.638	321.59
1228.902	326.67
1232.166	327.59
1235.43	330.16
1238.693	334.33
1241.956	335.74
1245.219	341.83
1248.482	341.03
1251.744	341.12
1255.006	342.58
1258.268	334.12
1261.529	331.2
1264.79	328.02
1268.051	326
1271.312	321.84
1274.572	317.98
1277.832	314.81
1281.092	309.35
1284.351	307.01
1287.61	306.87
1290.869	302.54
1294.128	300.15
1297.386	300.03
1300.644	297.34
1303.902	298.31
1307.159	296.49
1310.416	296.96
1313.673	296.97
1316.93	299.94
1320.186	300.53
1323.442	301.03
1326.697	306.51
1329.953	307.8
1333.208	309.22
1336.463	313.06
1339.717	313.58
1342.972	317.51
1346.226	319.64
1349.479	320.07
1352.733	321.88
1355.986	323.12
1359.238	323.44
1362.491	324.96
1365.743	327.87
1368.995	328.28
1372.247	327.11
1375.498	327.87
1378.749	330.92
1382	327.51
1385.251	329.51
1388.501	327.23
1391.751	329.53
1395	328.17
1398.25	325.76
1401.499	324.74
1404.748	324.7
1407.996	321.64
1411.244	319.88
1414.492	318.19
1417.74	316.41
1420.987	311.02
1424.234	311.88
1427.481	306.87
1430.728	306.9
1433.974	303.2
1437.22	300.33
1440.465	299.23
1443.711	297.85
1446.956	296.49
1450.201	292.05
1453.445	289.43
1456.689	288.72
1459.933	282.99
1463.177	281.59
1466.42	276.84
1469.663	273.7
1472.906	272.08
1476.148	265.5
1479.391	261.44
1482.633	258.56
1485.874	255.31
1489.115	253.6
1492.356	249.97
1495.597	249.99
1498.838	245.56
1502.078	244.2
1505.318	243.2
1508.557	242.96
1511.797	241.95
1515.036	241.03
1518.274	239.85
1521.513	237.42
1524.751	236.79
1527.989	236.46
1531.227	234.93
1534.464	235.73
1537.701	233.73
1540.938	233.13
1544.174	230.83
1547.41	230.47
1550.646	228.86
1553.882	229.11
1557.117	226.26
1560.352	224.44
1563.587	223.81
1566.821	222.08
1570.055	219.74
1573.289	218.31
1576.523	218.1
1579.756	215.31
1582.989	214.06
1586.222	214.48
1589.454	212.26
1592.686	214.09
1595.918	213.38
1599.15	212.29
1602.381	212.74
1605.612	212.33
1608.843	213.44
1612.073	212.78
1615.303	214.48
1618.533	214.72
1621.762	213.94
1624.992	214.98
1628.221	214.33
1631.449	214.66
1634.678	213.71
1637.906	214.5
1641.134	214.09
1644.361	213.49
1647.588	214.58
1650.815	213.57
1654.042	212.23
1657.269	213.62
1660.495	213.27
1663.72	211.92
1666.946	212.92
1670.171	213.91
1673.396	213.47
1676.621	214.25
1679.845	214.13
1683.069	214.01
1686.293	215.63
1689.517	216.95
1692.74	216.4
1695.963	217.39
1699.185	220.53
1702.408	219.74
1705.63	220.71
1708.852	221.61
1712.073	222.07
1715.294	222.74
1718.515	224.56
1721.736	223.93
1724.956	225.17
1728.176	225.05
1731.396	227.36
1734.616	225.9
1737.835	227.2
1741.054	225.91
1744.272	226.24
1747.491	228.31
1750.709	228.97
1753.927	228
1757.144	227.39
1760.361	228.31
1763.578	228.84
1766.795	227.87
1770.011	229.76
1773.227	229.95
1776.443	232.92
1779.658	234.02
1782.874	233.78
1786.089	234.91
1789.303	235.83
1792.518	238.76
1795.732	238.5
1798.945	241.29
1802.159	241.19
1805.372	242
1808.585	246.15
1811.797	246.66
1815.01	247.61
1818.222	249.14
1821.434	250.62
1824.645	251.43
1827.856	255.6
1831.067	257.77
1834.278	257.14
1837.488	259.06
1840.698	261.08
1843.908	258.43
1847.117	260.2
1850.326	261.57
1853.535	260.82
1856.744	265.39
1859.952	265.64
1863.16	264.06
1866.368	262.16
1869.575	265.4
1872.782	262.28
1875.989	261.59
1879.196	261.04
1882.402	258.92
1885.608	259.88
1888.814	260.99
1892.019	259.6
1895.224	258.95
1898.429	258.18
1901.634	260.33
1904.838	260.18
1908.042	263.26
1911.246	264.38
1914.449	266.2
1917.652	265.98
1920.855	265.99
1924.058	265.16
1927.26	264.2
1930.462	264.85
1933.664	268.53
1936.865	265.98
1940.066	265.57
1943.267	263.76
1946.467	263.13
1949.668	264.73
1952.868	268.89
1956.067	268.28
1959.267	269.24
1962.466	270.26
1965.665	268.83
1968.863	269.23
1972.061	272.73
1975.259	275.58
1978.457	277.96
1981.654	280.37
1984.852	281.08
1988.048	279.74
1991.245	282.8
1994.441	286.83
1997.637	287.84
2000.833	294.14
2004.028	297.07
2007.223	299.14
2010.418	301.52
2013.613	307.07
2016.807	310.16
2020.001	312.77
2023.194	317.23
2026.388	324.39
2029.581	330.35
2032.774	334.33
2035.966	339.84
2039.158	340.53
2042.35	347.3
2045.542	349.98
2048.733	354.97
2051.924	359.08
2055.115	365.38
2058.306	366.17
2061.496	369.73
2064.686	369.48
2067.875	376.25
2071.065	378.47
2074.254	376.93
2077.442	381.68
2080.631	382.63
2083.819	385.84
2087.007	387.86
2090.195	391.33
2093.382	395.01
2096.569	391.65
2099.756	398.54
2102.942	398.97
2106.128	403.17
2109.314	411.95
2112.5	409.86
2115.685	419.22
2118.87	420.49
2122.055	427.82
2125.239	431.39
2128.424	436.83
2131.608	440.72
2134.791	446.38
2137.974	447.44
2141.157	448.46
2144.34	449.4
2147.523	456.88
2150.705	453.82
2153.887	457.95
2157.068	459.12
2160.25	455.12
2163.431	457.36
2166.611	462.15
2169.792	471.02
2172.972	476.67
2176.152	480.07
2179.331	485.88
2182.511	493.45
2185.69	500.98
2188.868	510.73
2192.047	510.48
2195.225	524.98
2198.403	539.44
2201.58	549.28
2204.758	559.94
2207.935	572.14
2211.111	582.69
2214.288	590.17
2217.464	591.85
2220.64	597.06
2223.815	605.8
2226.991	632.82
2230.166	634.19
2233.34	643.21
2236.515	653.76
2239.689	654.27
2242.863	657.51
2246.036	677.13
2249.209	671.2
2252.382	682.43
2255.555	704.47
2258.727	705.85
2261.9	709.93
2265.071	716.82
2268.243	729.11
2271.414	737.37
2274.585	754.16
2277.756	762.29
2280.926	767.72
2284.096	787.32
2287.266	804.81
2290.436	810.91
2293.605	829.87
2296.774	855.65
2299.942	882.37
2303.111	886.95
2306.279	907.26
2309.447	919.34
2312.614	944.88
2315.781	967.27
2318.948	1010.91
2322.115	997.45
2325.281	1052.13
2328.447	1029.31
2331.613	1070.61
2334.779	1058.3
2337.944	1106.15
2341.109	1118.11
2344.274	1147.18
2347.438	1186.37
2350.602	1187.48
2353.766	1223.95
2356.929	1241.68
2360.092	1230.4
2363.255	1322.46
2366.418	1317.56
2369.58	1345.61
2372.742	1425.2
2375.904	1461.48
2379.066	1450.43
2382.227	1420.05
2385.388	1537.65
2388.548	1543.99
2391.709	1563.37
2394.869	1742.49
2398.029	1666.12
2401.188	1713.35
2404.347	1703.91
2407.506	1676.15
2410.665	1725.11
2413.823	1828.93
2416.981	1938.78
2420.139	1876.76
2423.296	1853.98
2426.453	1930.14
2429.61	1860.49
2432.767	1947.66
2435.923	1928.87
2439.079	2106.21
2442.235	2133.45
2445.391	2112.43
2448.546	2099.89
2451.701	2035.7
2454.855	2039.27
2458.009	2162.71
2461.163	2251.9
2464.317	2328.27
2467.471	2390.57
2470.624	2392.72
2473.777	2326.87
2476.929	2271.79
2480.082	2204.69
2483.234	2179.01
2486.385	2299.16
2489.537	2305.41
2492.688	2390.12
2495.839	2326.44
2498.989	2279.38
2502.14	2289.54
2505.29	2314.24
2508.439	2355.13
2511.589	2345.28
2514.738	2558.94
2517.887	2503.46
2521.035	2641.96
2524.183	2656.55
2527.331	2677.08
2530.479	2668.16
2533.627	2688.67
