Data from N_2_HIR_IL_4N_Splice17_13-11-20-397.txt Node
Date: Sat Mar 07 13:11:20 EST 2020
User: sa697716
Spectrometer: NQ5500242
Trigger mode: 0
Integration Time (sec): 1.450000E-1
Scans to average: 20
Nonlinearity correction enabled: false
Boxcar width: 5
Storing dark spectrum: false
XAxis mode: Wavelengths
Number of Pixels in Spectrum: 512
>>>>>Begin Spectral Data<<<<<
187.83	121.51
188.298	141.03
188.766	113.02
189.233	109.11
189.701	119.83
190.169	146.98
190.636	200.1
191.104	343.55
191.571	543.05
192.039	371.66
192.506	379.32
192.974	59.09
193.441	192.81
193.908	59.06
194.375	68.33
194.842	79.95
195.31	130.38
195.777	437.08
196.244	66.05
196.711	49.48
197.177	47.72
197.644	46.16
198.111	45.32
198.578	45.23
199.045	45.67
199.511	45.52
199.978	45.45
200.445	45.52
200.911	45.58
201.378	45.46
201.844	45.38
202.31	45.06
202.777	45.07
203.243	44.84
203.709	44.46
204.176	43.89
204.642	43.71
205.108	43.53
205.574	43.37
206.04	42.73
206.506	42.38
206.972	42.2
207.438	42.08
207.903	41.57
208.369	41.04
208.835	40.48
209.301	39.85
209.766	39.03
210.232	38.28
210.697	37.52
211.163	36.87
211.628	36.42
212.094	35.63
212.559	35.28
213.024	34.55
213.49	33.96
213.955	33.43
214.42	32.92
214.885	32.47
215.35	31.55
215.815	30.44
216.28	29.16
216.745	27.61
217.21	26.28
217.675	24.82
218.14	23.8
218.604	22.91
219.069	22.12
219.534	21.45
219.998	20.81
220.463	20.4
220.927	19.92
221.392	19.56
221.856	19.27
222.32	18.98
222.785	18.79
223.249	18.56
223.713	18.33
224.177	18.14
224.642	17.93
225.106	17.73
225.57	17.49
226.034	17.32
226.497	17.15
226.961	16.93
227.425	16.75
227.889	16.54
228.353	16.34
228.816	16.14
229.28	15.95
229.744	15.76
230.207	15.59
230.671	15.43
231.134	15.26
231.597	15.1
232.061	14.97
232.524	14.82
232.987	14.68
233.45	14.54
233.914	14.4
234.377	14.26
234.84	14.13
235.303	14.01
235.766	13.88
236.229	13.75
236.691	13.61
237.154	13.48
237.617	13.35
238.08	13.24
238.542	13.09
239.005	12.99
239.468	12.86
239.93	12.76
240.393	12.65
240.855	12.51
241.317	12.39
241.78	12.29
242.242	12.18
242.704	12.08
243.166	11.97
243.629	11.88
244.091	11.77
244.553	11.68
245.015	11.57
245.477	11.48
245.939	11.39
246.4	11.31
246.862	11.21
247.324	11.12
247.786	11.04
248.247	10.95
248.709	10.86
249.17	10.78
249.632	10.72
250.093	10.65
250.555	10.58
251.016	10.52
251.477	10.46
251.939	10.41
252.4	10.36
252.861	10.31
253.322	10.27
253.783	10.21
254.244	10.17
254.705	10.11
255.166	10.06
255.627	10
256.088	9.95
256.549	9.9
257.009	9.82
257.47	9.76
257.931	9.69
258.391	9.62
258.852	9.56
259.312	9.51
259.773	9.45
260.233	9.4
260.694	9.36
261.154	9.31
261.614	9.27
262.074	9.24
262.534	9.19
262.994	9.16
263.455	9.13
263.915	9.1
264.374	9.08
264.834	9.05
265.294	9.02
265.754	8.99
266.214	8.97
266.673	8.94
267.133	8.92
267.593	8.91
268.052	8.89
268.512	8.88
268.971	8.86
269.431	8.83
269.89	8.81
270.349	8.8
270.809	8.78
271.268	8.77
271.727	8.75
272.186	8.72
272.645	8.7
273.104	8.68
273.563	8.66
274.022	8.63
274.481	8.62
274.94	8.6
275.399	8.57
275.857	8.55
276.316	8.53
276.775	8.5
277.233	8.48
277.692	8.46
278.15	8.44
278.609	8.42
279.067	8.4
279.525	8.38
279.984	8.35
280.442	8.32
280.9	8.29
281.358	8.26
281.816	8.24
282.274	8.21
282.732	8.18
283.19	8.14
283.648	8.11
284.106	8.07
284.564	8.04
285.021	8.01
285.479	7.98
285.937	7.95
286.394	7.92
286.852	7.89
287.309	7.85
287.767	7.82
288.224	7.78
288.682	7.75
289.139	7.72
289.596	7.69
290.053	7.65
290.511	7.62
290.968	7.59
291.425	7.57
291.882	7.55
292.339	7.53
292.796	7.5
293.252	7.48
293.709	7.46
294.166	7.44
294.623	7.42
295.079	7.4
295.536	7.38
295.992	7.36
296.449	7.33
296.905	7.31
297.362	7.29
297.818	7.27
298.274	7.26
298.731	7.24
299.187	7.21
299.643	7.19
300.099	7.17
300.555	7.15
301.011	7.12
301.467	7.11
301.923	7.09
302.379	7.07
302.835	7.06
303.291	7.03
303.746	7.01
304.202	7.01
304.658	6.99
305.113	6.97
305.569	6.95
306.024	6.94
306.479	6.92
306.935	6.9
307.39	6.89
307.845	6.86
308.301	6.86
308.756	6.84
309.211	6.81
309.666	6.8
310.121	6.79
310.576	6.78
311.031	6.76
311.486	6.75
311.94	6.74
312.395	6.72
312.85	6.72
313.305	6.69
313.759	6.67
314.214	6.66
314.668	6.64
315.123	6.62
315.577	6.6
316.032	6.58
316.486	6.56
316.94	6.54
317.394	6.52
317.849	6.49
318.303	6.47
318.757	6.45
319.211	6.43
319.665	6.41
320.119	6.4
320.572	6.37
321.026	6.36
321.48	6.34
321.934	6.32
322.387	6.31
322.841	6.29
323.295	6.28
323.748	6.27
324.202	6.26
324.655	6.23
325.108	6.22
325.562	6.21
326.015	6.2
326.468	6.2
326.921	6.19
327.374	6.17
327.827	6.17
328.28	6.16
328.733	6.16
329.186	6.15
329.639	6.15
330.092	6.13
330.545	6.12
330.997	6.11
331.45	6.1
331.903	6.1
332.355	6.11
332.808	6.09
333.26	6.08
333.713	6.07
334.165	6.05
334.617	6.05
335.069	6.04
335.522	6.04
335.974	6.03
336.426	6.01
336.878	5.99
337.33	5.97
337.782	5.97
338.234	5.96
338.686	5.94
339.137	5.94
339.589	5.93
340.041	5.92
340.493	5.9
340.944	5.88
341.396	5.87
341.847	5.86
342.299	5.83
342.75	5.81
343.201	5.79
343.653	5.78
344.104	5.75
344.555	5.73
345.006	5.72
345.457	5.7
345.908	5.69
346.359	5.68
346.81	5.67
347.261	5.66
347.712	5.66
348.163	5.64
348.613	5.64
349.064	5.63
349.515	5.63
349.965	5.62
350.416	5.61
350.866	5.59
351.317	5.59
351.767	5.59
352.217	5.58
352.668	5.57
353.118	5.57
353.568	5.56
354.018	5.56
354.468	5.57
354.918	5.56
355.368	5.56
355.818	5.57
356.268	5.55
356.718	5.54
357.168	5.54
357.617	5.54
358.067	5.52
358.517	5.52
358.966	5.51
359.416	5.5
359.865	5.49
360.315	5.49
360.764	5.47
361.213	5.46
361.663	5.46
362.112	5.46
362.561	5.45
363.01	5.44
363.459	5.43
363.908	5.42
364.357	5.4
364.806	5.39
365.255	5.39
365.703	5.39
366.152	5.39
366.601	5.39
367.05	5.38
367.498	5.37
367.947	5.36
368.395	5.36
368.844	5.36
369.292	5.35
369.74	5.34
370.189	5.33
370.637	5.32
371.085	5.29
371.533	5.28
371.981	5.27
372.429	5.26
372.877	5.26
373.325	5.25
373.773	5.24
374.221	5.22
374.669	5.21
375.116	5.2
375.564	5.19
376.012	5.19
376.459	5.18
376.907	5.17
377.354	5.17
377.801	5.16
378.249	5.16
378.696	5.15
379.143	5.15
379.591	5.15
380.038	5.14
380.485	5.14
380.932	5.14
381.379	5.14
381.826	5.14
382.273	5.12
382.72	5.09
383.166	5.09
383.613	5.08
384.06	5.07
384.506	5.06
384.953	5.06
385.4	5.05
385.846	5.05
386.292	5.03
386.739	5.02
387.185	5.02
387.631	5.02
388.078	5.02
388.524	5.01
388.97	5.01
389.416	5
389.862	5.01
390.308	5.01
390.754	5.02
391.2	5.03
391.645	5.04
392.091	5.05
392.537	5.04
392.983	5.04
393.428	5.04
393.874	5.05
394.319	5.05
394.765	5.05
395.21	5.05
395.655	5.04
396.101	5.05
396.546	5.04
396.991	5.05
397.436	5.06
397.881	5.08
398.326	5.09
398.771	5.11
399.216	5.13
399.661	5.13
400.106	5.14
400.551	5.16
400.995	5.16
401.44	5.18
401.885	5.2
402.329	5.21
402.774	5.21
403.218	5.25
403.663	5.25
404.107	5.26
404.551	5.28
404.995	5.29
405.44	5.29
405.884	5.31
406.328	5.32
406.772	5.33
407.216	5.35
407.66	5.36
408.104	5.35
408.547	5.37
408.991	5.39
409.435	5.4
409.879	5.44
410.322	5.48
410.766	5.49
411.209	5.52
411.653	5.55
412.096	5.56
412.54	5.59
412.983	5.61
413.426	5.66
413.869	5.67
414.312	5.7
414.756	5.71
415.199	5.71
415.642	5.72
416.085	5.73
416.527	5.73
416.97	5.73
417.413	5.73
417.856	5.74
418.298	5.73
418.741	5.73
419.184	5.74
419.626	5.74
420.069	5.75
420.511	5.76
420.953	5.77
421.396	5.8
421.838	5.81
422.28	5.83
422.722	5.85
423.164	5.86
423.606	5.87
424.048	5.88
424.49	5.88
424.932	5.89
425.374	5.87
425.816	5.85
426.258	5.84
426.699	5.83
427.141	5.81
427.582	5.81
428.024	5.82
428.465	5.83
428.907	5.82
429.348	5.8
429.789	5.8
430.231	5.83
430.672	5.86
431.113	5.88
431.554	5.89
431.995	5.9
432.436	5.9
432.877	5.91
433.318	5.92
433.759	5.95
434.2	5.99
434.64	6
435.081	6
435.522	6
435.962	6.01
436.403	6.04
436.843	6.07
437.284	6.07
437.724	6.08
438.164	6.07
438.604	6.07
439.045	6.07
439.485	6.07
439.925	6.08
440.365	6.08
440.805	6.08
441.245	6.08
441.685	6.09
442.125	6.1
442.564	6.09
443.004	6.1
443.444	6.12
443.883	6.13
444.323	6.11
444.762	6.11
445.202	6.11
445.641	6.13
446.081	6.14
446.52	6.13
446.959	6.14
447.398	6.17
447.837	6.18
448.276	6.17
448.716	6.19
449.154	6.22
449.593	6.25
450.032	6.27
450.471	6.26
450.91	6.24
451.349	6.26
451.787	6.26
452.226	6.25
452.664	6.24
453.103	6.22
453.541	6.22
453.98	6.21
454.418	6.19
454.856	6.18
455.295	6.17
455.733	6.15
456.171	6.14
456.609	6.13
457.047	6.11
457.485	6.1
457.923	6.1
458.361	6.09
458.798	6.09
459.236	6.08
459.674	6.08
460.111	6.08
460.549	6.09
460.987	6.09
461.424	6.1
461.862	6.12
462.299	6.12
462.736	6.11
463.173	6.12
463.611	6.11
464.048	6.11
464.485	6.11
464.922	6.11
465.359	6.1
465.796	6.11
466.233	6.11
466.67	6.1
467.106	6.11
467.543	6.11
467.98	6.1
468.416	6.1
468.853	6.1
469.29	6.09
469.726	6.1
470.162	6.09
470.599	6.07
471.035	6.06
471.471	6.06
471.907	6.04
472.344	6.04
472.78	6.04
473.216	6.03
473.652	6.02
474.088	5.99
474.523	5.99
474.959	5.99
475.395	5.97
475.831	5.97
476.266	5.97
476.702	5.98
477.138	5.97
477.573	5.96
478.008	5.95
478.444	5.94
478.879	5.96
479.314	5.94
479.75	5.95
480.185	5.93
480.62	5.92
481.055	5.91
481.49	5.89
481.925	5.88
482.36	5.87
482.795	5.87
483.229	5.86
483.664	5.86
484.099	5.86
484.534	5.86
484.968	5.87
485.403	5.87
485.837	5.87
486.271	5.9
486.706	5.91
487.14	5.93
487.574	5.94
488.009	5.96
488.443	5.97
488.877	6
489.311	6.04
489.745	6.06
490.179	6.11
490.613	6.14
491.046	6.17
491.48	6.21
491.914	6.26
492.348	6.3
492.781	6.35
493.215	6.4
493.648	6.45
494.082	6.5
494.515	6.56
494.948	6.61
495.382	6.67
495.815	6.73
496.248	6.82
496.681	6.9
497.114	6.98
497.547	7.07
497.98	7.16
498.413	7.26
498.846	7.36
499.279	7.46
499.711	7.57
500.144	7.7
500.577	7.83
501.009	7.95
501.442	8.08
501.874	8.23
502.306	8.37
502.739	8.53
503.171	8.69
503.603	8.86
504.036	9.04
504.468	9.22
504.9	9.39
505.332	9.57
505.764	9.78
506.196	9.98
506.627	10.19
507.059	10.42
507.491	10.64
507.923	10.88
508.354	11.12
508.786	11.36
509.217	11.62
509.649	11.9
510.08	12.18
510.512	12.44
510.943	12.72
511.374	13.02
511.805	13.31
512.237	13.61
512.668	13.91
513.099	14.21
513.53	14.52
513.961	14.85
514.391	15.18
514.822	15.51
515.253	15.84
515.684	16.18
516.114	16.52
516.545	16.86
516.975	17.21
517.406	17.55
517.836	17.89
518.267	18.25
518.697	18.57
519.127	18.89
519.558	19.22
519.988	19.56
520.418	19.88
520.848	20.18
521.278	20.49
521.708	20.94
522.138	21.26
522.567	21.56
522.997	21.83
523.427	22.12
523.857	22.41
524.286	22.68
524.716	22.94
525.145	23.21
525.575	23.47
526.004	23.72
526.433	23.79
526.863	24.02
527.292	24.25
527.721	24.45
528.15	24.65
528.579	24.84
529.008	25.03
529.437	25.19
529.866	25.35
530.295	25.51
530.724	25.67
531.152	25.82
531.581	25.97
532.01	26.09
532.438	26.22
532.867	26.33
533.295	26.43
533.723	26.53
534.152	26.63
534.58	26.72
535.008	26.79
535.436	26.85
535.865	26.92
536.293	26.98
536.721	27.04
537.149	27.1
537.576	27.16
538.004	27.24
538.432	27.28
538.86	27.33
539.287	27.37
539.715	27.43
540.143	27.46
540.57	27.49
540.998	27.53
541.425	27.56
541.852	27.6
542.28	27.62
542.707	27.65
543.134	27.68
543.561	27.7
543.988	27.73
544.415	27.75
544.842	27.78
545.269	27.8
545.696	27.83
546.123	27.86
546.549	27.87
546.976	27.9
547.403	27.93
547.829	27.94
548.256	27.96
548.682	27.98
549.108	27.99
549.535	28
549.961	28.02
550.387	28.02
550.813	28.01
551.24	28
551.666	28
552.092	27.99
552.518	27.97
552.943	27.95
553.369	27.92
553.795	27.89
554.221	27.84
554.646	27.78
555.072	27.73
555.498	27.68
555.923	27.63
556.349	27.55
556.774	27.48
557.199	27.39
557.625	27.31
558.05	27.24
558.475	27.14
558.9	27.07
559.325	26.97
559.75	26.87
560.175	26.76
560.6	26.65
561.025	26.53
561.449	26.41
561.874	26.29
562.299	26.15
562.723	25.99
563.148	25.85
563.572	25.68
563.997	25.53
564.421	25.35
564.846	25.18
565.27	25.01
565.694	24.85
566.118	24.67
566.542	24.49
566.966	24.31
567.39	24.15
567.814	23.97
568.238	23.8
568.662	23.63
569.086	23.47
569.509	23.3
569.933	23.14
570.357	22.96
570.78	22.79
571.204	22.63
571.627	22.48
572.05	22.32
572.474	22.18
572.897	22.02
573.32	21.86
573.743	21.71
574.166	21.56
574.589	21.41
575.012	21.27
575.435	21.14
575.858	21
576.281	20.86
576.704	20.72
577.126	20.58
577.549	20.46
577.972	20.34
578.394	20.21
578.817	20.11
579.239	20
579.661	19.89
580.084	19.79
580.506	19.68
580.928	19.58
581.35	19.48
581.772	19.38
582.194	19.29
582.616	19.21
583.038	19.12
583.46	19.01
583.882	18.93
584.303	18.84
584.725	18.74
585.147	18.67
585.568	18.61
585.99	18.53
586.411	18.45
586.833	18.37
587.254	18.28
587.675	18.21
588.096	18.15
588.518	18.07
588.939	18.02
589.36	17.97
589.781	17.89
590.202	17.82
590.623	17.76
591.043	17.7
591.464	17.65
591.885	17.6
592.305	17.56
592.726	17.52
593.147	17.46
593.567	17.41
593.987	17.35
594.408	17.31
594.828	17.26
595.248	17.22
595.669	17.18
596.089	17.14
596.509	17.1
596.929	17.06
597.349	17.01
597.769	16.97
598.189	16.93
598.608	16.9
599.028	16.86
599.448	16.83
599.867	16.79
600.287	16.75
600.706	16.7
601.126	16.65
601.545	16.6
601.965	16.57
602.384	16.52
602.803	16.46
603.222	16.4
603.641	16.34
604.061	16.29
604.48	16.2
604.898	16.12
605.317	16.07
605.736	16
606.155	15.92
606.574	15.83
606.992	15.75
607.411	15.67
607.829	15.55
608.248	15.46
608.666	15.36
609.085	15.29
609.503	15.21
609.921	15.11
610.339	15.02
610.758	14.93
611.176	14.84
611.594	14.74
612.012	14.65
612.43	14.58
612.847	14.5
613.265	14.41
613.683	14.32
614.101	14.24
614.518	14.14
614.936	14.06
615.353	13.96
615.771	13.89
616.188	13.8
616.606	13.73
617.023	13.66
617.44	13.6
617.857	13.53
618.274	13.47
618.691	13.4
619.108	13.35
619.525	13.3
619.942	13.26
620.359	13.22
620.776	13.18
621.192	13.15
621.609	13.12
622.026	13.08
622.442	13.05
622.859	13.03
623.275	12.99
623.691	12.97
624.108	12.94
624.524	12.91
624.94	12.89
625.356	12.87
625.772	12.85
626.188	12.83
626.604	12.81
627.02	12.8
627.436	12.78
627.852	12.77
628.268	12.76
628.683	12.75
629.099	12.74
629.514	12.73
629.93	12.7
630.345	12.67
630.761	12.63
631.176	12.59
631.591	12.55
632.007	12.51
632.422	12.46
632.837	12.39
633.252	12.33
633.667	12.25
634.082	12.16
634.497	12.08
634.911	11.99
635.326	11.9
635.741	11.8
636.155	11.69
636.57	11.57
636.984	11.47
637.399	11.34
637.813	11.23
638.228	11.09
638.642	10.96
639.056	10.81
639.47	10.69
639.884	10.55
640.298	10.41
640.712	10.27
641.126	10.14
641.54	10
641.954	9.86
642.368	9.72
642.781	9.61
643.195	9.48
643.609	9.36
644.022	9.23
644.436	9.12
644.849	9
645.262	8.89
645.676	8.78
646.089	8.68
646.502	8.59
646.915	8.51
647.328	8.43
647.741	8.35
648.154	8.28
648.567	8.23
648.98	8.18
649.393	8.12
649.805	8.08
650.218	8.03
650.631	8
651.043	7.95
651.456	7.91
651.868	7.86
652.28	7.83
652.693	7.79
653.105	7.75
653.517	7.71
653.929	7.66
654.341	7.6
654.753	7.54
655.165	7.48
655.577	7.43
655.989	7.35
656.401	7.28
656.813	7.21
657.224	7.13
657.636	7.04
658.047	6.96
658.459	6.87
658.87	6.8
659.282	6.71
659.693	6.63
660.104	6.54
660.515	6.47
660.926	6.41
661.338	6.31
661.749	6.23
662.159	6.16
662.57	6.11
662.981	6.03
663.392	5.97
663.803	5.91
664.213	5.86
664.624	5.8
665.035	5.75
665.445	5.7
665.855	5.68
666.266	5.65
666.676	5.61
667.086	5.57
667.497	5.55
667.907	5.53
668.317	5.52
668.727	5.5
669.137	5.49
669.547	5.48
669.956	5.48
670.366	5.47
670.776	5.47
671.186	5.48
671.595	5.48
672.005	5.49
672.414	5.51
672.824	5.51
673.233	5.53
673.642	5.54
674.052	5.56
674.461	5.57
674.87	5.6
675.279	5.63
675.688	5.66
676.097	5.69
676.506	5.73
676.915	5.76
677.323	5.8
677.732	5.84
678.141	5.89
678.549	5.93
678.958	5.98
679.366	6.04
679.775	6.09
680.183	6.16
680.592	6.23
681	6.31
681.408	6.4
681.816	6.49
682.224	6.61
682.632	6.73
683.04	6.86
683.448	7.01
683.856	7.16
684.264	7.33
684.671	7.52
685.079	7.72
685.487	7.96
685.894	8.23
686.302	8.52
686.709	8.82
687.116	9.16
687.524	9.53
687.931	9.93
688.338	10.37
688.745	10.82
689.152	11.31
689.559	11.83
689.966	12.36
690.373	12.91
690.78	13.49
691.187	14.07
691.593	14.69
692	15.31
692.407	15.93
692.813	16.58
693.22	17.24
693.626	17.9
694.032	18.57
694.439	19.24
694.845	19.9
695.251	20.57
695.657	21.24
696.063	21.92
696.469	22.61
696.875	23.28
697.281	23.94
697.687	24.59
698.093	25.25
698.498	25.87
698.904	26.53
699.31	27.15
699.715	27.79
700.12	28.4
700.526	28.99
700.931	29.59
701.337	30.17
701.742	30.73
702.147	31.29
702.552	31.85
702.957	32.38
703.362	32.9
703.767	33.41
704.172	33.91
704.577	34.4
704.981	34.88
705.386	35.34
705.791	35.83
706.195	36.3
706.6	36.75
707.004	37.16
707.408	37.61
707.813	38.03
708.217	38.45
708.621	38.87
709.025	39.27
709.43	39.66
709.834	40.05
710.237	40.43
710.641	40.79
711.045	41.16
711.449	41.55
711.853	41.91
712.256	42.26
712.66	42.59
713.064	42.93
713.467	43.26
713.87	43.59
714.274	43.88
714.677	44.17
715.08	44.47
715.484	44.77
715.887	45.05
716.29	45.32
716.693	45.59
717.096	45.87
717.499	46.16
717.901	46.42
718.304	46.68
718.707	46.96
719.109	47.22
719.512	47.47
719.915	47.71
720.317	47.9
720.719	48.1
721.122	48.33
721.524	48.55
721.926	48.75
722.328	48.95
722.731	49.14
723.133	49.34
723.535	49.54
723.937	49.71
724.338	49.89
724.74	50.09
725.142	50.38
725.544	50.53
725.945	50.71
726.347	50.84
726.748	50.99
727.15	51.1
727.551	51.26
727.952	51.38
728.354	51.52
728.755	51.63
729.156	51.74
729.557	51.74
729.958	51.86
730.359	51.96
730.76	52.07
731.161	52.15
731.562	52.28
731.962	52.32
732.363	52.4
732.763	52.49
733.164	52.58
733.564	52.69
733.965	52.79
734.365	52.86
734.766	52.94
735.166	53.01
735.566	53.1
735.966	53.17
736.366	53.26
736.766	53.31
737.166	53.37
737.566	53.43
737.966	53.47
738.365	53.5
738.765	53.57
739.165	53.6
739.564	53.65
739.964	53.69
740.363	53.72
740.763	53.75
741.162	53.82
741.561	53.83
741.96	53.83
742.36	53.86
742.759	53.93
743.158	53.94
743.557	53.95
743.955	53.98
744.354	54
744.753	54.03
745.152	54.08
745.55	54.09
745.949	54.14
746.348	54.2
746.746	54.21
747.144	54.23
747.543	54.23
747.941	54.27
748.339	54.27
748.737	54.29
749.136	54.29
749.534	54.28
749.932	54.3
750.33	54.27
750.727	54.28
751.125	54.28
751.523	54.26
751.921	54.27
752.318	54.27
752.716	54.27
753.113	54.28
753.511	54.31
753.908	54.34
754.305	54.35
754.703	54.37
755.1	54.37
755.497	54.38
755.894	54.39
756.291	54.37
756.688	54.35
757.085	54.35
757.482	54.33
757.878	54.31
758.275	54.28
758.672	54.26
759.068	54.27
759.465	54.24
759.861	54.21
760.258	54.22
760.654	54.23
761.05	54.27
761.447	54.27
761.843	54.27
762.239	54.29
762.635	54.27
763.031	54.25
763.427	54.23
763.822	54.27
764.218	54.3
764.614	54.3
765.01	54.3
765.405	54.27
765.801	54.26
766.196	54.25
766.592	54.23
766.987	54.25
767.382	54.25
767.778	54.27
768.173	54.25
768.568	54.2
768.963	54.2
769.358	54.23
769.753	54.24
770.148	54.24
770.542	54.26
770.937	54.24
771.332	54.23
771.726	54.25
772.121	54.24
772.515	54.26
772.91	54.29
773.304	54.3
773.699	54.29
774.093	54.28
774.487	54.29
774.881	54.29
775.275	54.29
775.669	54.28
776.063	54.27
776.457	54.31
776.851	54.26
777.245	54.25
777.638	54.22
778.032	54.24
778.425	54.24
778.819	54.24
779.212	54.23
779.606	54.26
779.999	54.28
780.392	54.31
780.786	54.27
781.179	54.31
781.572	54.33
781.965	54.33
782.358	54.33
782.751	54.35
783.143	54.35
783.536	54.35
783.929	54.33
784.322	54.32
784.714	54.32
785.107	54.35
785.499	54.33
785.891	54.32
786.284	54.32
786.676	54.3
787.068	54.3
787.46	54.32
787.852	54.34
788.245	54.33
788.636	54.32
789.028	54.3
789.42	54.26
789.812	54.29
790.204	54.28
790.595	54.27
790.987	54.26
791.378	54.27
791.77	54.24
792.161	54.2
792.553	54.22
792.944	54.22
793.335	54.23
793.726	54.23
794.117	54.21
794.508	54.18
794.899	54.18
795.29	54.2
795.681	54.16
796.072	54.2
796.463	54.23
796.853	54.23
797.244	54.23
797.634	54.24
798.025	54.28
798.415	54.29
798.806	54.3
799.196	54.3
799.586	54.31
799.976	54.3
800.366	54.25
800.756	54.26
801.146	54.29
801.536	54.28
801.926	54.24
802.316	54.23
802.706	54.24
803.095	54.26
803.485	54.27
803.874	54.27
804.264	54.28
804.653	54.29
805.043	54.3
805.432	54.26
805.821	54.29
806.21	54.31
806.599	54.32
806.988	54.3
807.377	54.3
807.766	54.29
808.155	54.27
808.544	54.26
808.933	54.27
809.321	54.27
809.71	54.26
810.098	54.23
810.487	54.25
810.875	54.22
811.264	54.21
811.652	54.21
812.04	54.23
812.428	54.28
812.816	54.29
813.204	54.28
813.592	54.26
813.98	54.29
814.368	54.29
814.756	54.28
815.144	54.26
815.531	54.29
815.919	54.28
816.306	54.27
816.694	54.24
817.081	54.26
817.469	54.27
817.856	54.28
818.243	54.26
818.63	54.22
819.017	54.21
819.404	54.21
819.791	54.16
820.178	54.16
820.565	54.16
820.952	54.15
821.339	54.12
821.725	54.13
822.112	54.13
822.498	54.13
822.885	54.19
823.271	54.22
823.657	54.2
824.044	54.25
824.43	54.26
824.816	54.27
825.202	54.27
825.588	54.28
825.974	54.29
826.36	54.29
826.746	54.3
827.132	54.29
827.517	54.3
827.903	54.31
828.289	54.32
828.674	54.33
829.06	54.32
829.445	54.32
829.83	54.31
830.216	54.28
830.601	54.28
830.986	54.27
831.371	54.26
831.756	54.25
832.141	54.26
832.526	54.25
832.911	54.24
833.295	54.26
833.68	54.27
834.065	54.28
834.449	54.29
834.834	54.27
835.218	54.27
835.603	54.25
835.987	54.21
836.371	54.19
836.755	54.17
837.139	54.14
837.524	54.13
837.908	54.13
838.291	54.15
838.675	54.15
839.059	54.15
839.443	54.16
839.827	54.16
840.21	54.17
840.594	54.2
840.977	54.18
841.361	54.21
841.744	54.17
842.127	54.17
842.511	54.13
842.894	54.11
843.277	54.09
843.66	54.08
844.043	54.09
844.426	54.1
844.809	54.1
845.191	54.12
845.574	54.1
845.957	54.12
846.339	54.11
846.722	54.12
847.104	54.15
847.487	54.15
847.869	54.15
848.252	54.16
848.634	54.15
849.016	54.13
849.398	54.15
849.78	54.18
850.162	54.17
850.544	54.18
850.926	54.19
851.307	54.16
851.689	54.19
852.071	54.22
852.452	54.22
852.834	54.21
853.215	54.23
853.597	54.21
853.978	54.21
854.359	54.22
854.741	54.22
855.122	54.2
855.503	54.21
855.884	54.17
856.265	54.14
856.646	54.12
857.026	54.14
857.407	54.14
857.788	54.15
858.169	54.16
858.549	54.16
858.93	54.16
859.31	54.2
859.69	54.22
860.071	54.27
860.451	54.27
860.831	54.29
861.211	54.27
861.591	54.24
861.971	54.22
862.351	54.22
862.731	54.22
863.111	54.23
863.491	54.2
863.87	54.18
864.25	54.14
864.629	54.17
865.009	54.19
865.388	54.19
865.768	54.21
866.147	54.21
866.526	54.21
866.905	54.22
867.284	54.2
867.663	54.18
868.042	54.19
868.421	54.22
868.8	54.21
869.179	54.2
869.558	54.21
869.936	54.2
870.315	54.19
870.693	54.19
871.072	54.2
871.45	54.24
871.828	54.27
872.207	54.3
872.585	54.27
872.963	54.25
873.341	54.24
873.719	54.25
874.097	54.28
874.475	54.31
874.853	54.31
875.23	54.33
875.608	54.3
875.986	54.31
876.363	54.3
876.741	54.32
877.118	54.34
877.495	54.36
877.873	54.37
878.25	54.37
878.627	54.38
879.004	54.38
879.381	54.39
879.758	54.38
880.135	54.36
880.512	54.35
880.889	54.33
881.265	54.31
881.642	54.32
882.019	54.3
882.395	54.27
882.772	54.24
883.148	54.21
883.524	54.17
883.901	54.16
884.277	54.15
884.653	54.13
885.029	54.11
885.405	54.1
885.781	54.08
886.157	54.08
886.532	54.08
886.908	54.06
887.284	54.07
887.659	54.05
888.035	54.05
888.411	54.05
888.786	54.07
889.161	54.09
889.537	54.09
889.912	54.08
890.287	54.09
890.662	54.1
891.037	54.11
891.412	54.1
891.787	54.09
892.162	54.09
892.536	54.06
892.911	54.05
893.286	54.02
893.66	54.02
894.035	54.04
894.409	54
894.784	54
895.158	53.98
895.532	53.98
895.906	54
896.281	54
896.655	54.01
897.029	54.02
897.402	54.02
897.776	54.01
898.15	54
898.524	54.04
898.898	54.03
899.271	54.05
899.645	54.07
900.018	54.1
900.392	54.12
900.765	54.15
901.138	54.13
901.511	54.15
901.884	54.16
902.258	54.17
902.631	54.15
903.003	54.16
903.376	54.16
903.749	54.14
904.122	54.15
904.495	54.14
904.867	54.15
905.24	54.21
905.612	54.22
905.985	54.19
906.357	54.16
906.729	54.18
907.102	54.18
907.474	54.22
907.846	54.26
908.218	54.25
908.59	54.25
908.962	54.23
909.334	54.2
909.705	54.2
910.077	54.25
910.449	54.28
910.82	54.24
911.192	54.2
911.563	54.17
911.935	54.13
912.306	54.12
912.677	54.12
913.048	54.12
913.419	54.1
913.79	54.08
914.161	54.06
914.532	54.07
914.903	54.1
915.274	54.13
915.645	54.12
916.015	54.11
916.386	54.1
916.756	54.09
917.127	54.13
917.497	54.18
917.868	54.17
918.238	54.16
918.608	54.16
918.978	54.15
919.348	54.14
919.718	54.14
920.088	54.15
920.458	54.17
920.828	54.16
921.198	54.11
921.567	54.12
921.937	54.12
922.306	54.13
922.676	54.09
923.045	54.09
923.415	54.09
923.784	54.1
924.153	54.15
924.522	54.14
924.891	54.14
925.26	54.12
925.629	54.1
925.998	54.11
926.367	54.11
926.736	54.13
927.104	54.12
927.473	54.09
927.842	54.04
928.21	53.99
928.578	53.97
928.947	53.97
929.315	53.96
929.683	53.97
930.051	53.94
930.42	53.92
930.788	53.87
931.156	53.87
931.523	53.88
931.891	53.93
932.259	53.97
932.627	53.95
932.994	53.94
933.362	53.91
933.729	53.89
934.097	53.9
934.464	53.89
934.831	53.91
935.199	53.95
935.566	53.98
935.933	53.87
936.3	53.83
936.667	53.83
937.034	53.86
937.401	53.97
937.767	53.98
938.134	53.97
938.501	54.02
938.867	54.04
939.234	53.98
939.6	53.96
939.967	54.08
940.333	54.07
940.699	54.11
941.065	54.04
941.431	53.96
941.798	53.91
942.163	53.89
942.529	53.87
942.895	53.88
943.261	53.93
943.627	53.96
943.992	53.89
944.358	53.87
944.723	53.85
945.089	53.85
945.454	53.86
945.82	53.88
946.185	53.92
946.55	53.85
946.915	53.8
947.28	53.73
947.645	53.71
948.01	53.74
948.375	53.73
948.74	53.67
949.104	53.73
949.469	53.72
949.834	53.67
950.198	53.64
950.562	53.6
950.927	53.55
951.291	53.52
951.655	53.45
952.02	53.48
952.384	53.44
952.748	53.46
953.112	53.44
953.476	53.39
953.839	53.4
954.203	53.36
954.567	53.41
954.931	53.4
955.294	53.37
955.658	53.43
956.021	53.35
956.385	53.32
956.748	53.25
957.111	53.16
957.474	53.18
957.837	53.11
958.2	53.12
958.563	53.04
958.926	53.05
959.289	53.08
959.652	52.97
960.015	53
960.377	52.99
960.74	53.03
961.102	53.1
961.465	53.13
961.827	53.21
962.189	53.21
962.552	53.23
962.914	53.26
963.276	53.28
963.638	53.33
964	53.31
964.362	53.32
964.724	53.29
965.085	53.25
965.447	53.21
965.809	53.15
966.17	53.11
966.532	53.09
966.893	53.09
967.255	53.05
967.616	53.05
967.977	53.06
968.338	53.03
968.699	53.03
969.061	53
969.421	53.04
969.782	53.07
970.143	53.04
970.504	53.09
970.865	53.12
971.225	53.07
971.586	53.02
971.946	52.99
972.307	52.99
972.667	53.01
973.027	53.04
973.388	53.03
973.748	53.05
974.108	53.14
974.468	53.1
974.828	53.07
975.188	53.08
975.548	53.07
975.907	53.12
976.267	53.13
976.627	53.13
976.986	53.07
977.346	52.95
977.705	52.88
978.064	52.85
978.424	52.82
978.783	52.76
979.142	52.82
979.501	52.88
979.86	52.81
980.219	52.84
980.578	52.87
980.937	52.91
981.296	52.91
981.654	52.92
982.013	52.93
982.371	52.94
982.73	52.99
983.088	52.88
983.447	52.82
983.805	52.86
984.163	52.8
984.521	52.76
984.879	52.68
985.237	52.76
985.595	52.82
985.953	52.78
986.311	52.78
986.669	52.75
987.026	52.75
987.384	52.81
987.741	52.74
988.099	52.79
988.456	52.75
988.814	52.86
989.171	52.87
989.528	52.84
989.885	52.84
990.242	52.82
990.599	52.91
990.956	53.03
991.313	53.06
991.67	53.09
992.027	53.19
992.383	53.23
992.74	53.22
993.096	53.23
993.453	53.18
993.809	53.17
994.165	53.23
994.522	53.27
994.878	53.28
995.234	53.25
995.59	53.22
995.946	53.11
996.302	53.07
996.658	53.1
997.013	53.04
997.369	53.08
997.725	53.1
998.08	53.14
998.436	53
998.791	52.95
999.147	52.9
999.502	53.01
999.857	52.97
1000.212	52.95
1000.567	52.9
1000.922	52.84
1001.277	52.83
1001.632	52.81
1001.987	52.78
1002.342	52.84
1002.696	52.8
1003.051	52.87
1003.406	52.93
1003.76	52.93
1004.114	52.91
1004.469	52.89
1004.823	53.22
1005.177	53.27
1005.531	53.28
1005.885	53.24
1006.239	53.15
1006.593	53.28
1006.947	53.27
1007.301	53.12
1007.655	53.15
1008.008	53.37
1008.362	53.47
1008.715	53.19
1009.069	53.26
1009.422	53.34
1009.776	53.37
1010.129	53.43
1010.482	53.38
1010.835	53.38
1011.188	53.59
1011.541	53.53
1011.894	53.35
1012.247	53.32
1012.6	53.41
1012.952	53.29
1013.305	53.27
1013.657	53.23
1014.01	53.36
1014.362	53.28
1014.715	53.3
1015.067	53.28
1015.419	53.38
1015.771	53.43
1016.123	53.46
1016.475	53.49
1016.827	53.44
1017.179	53.53
1017.531	53.59
1017.883	53.58
1018.234	53.74
1018.586	53.67
1018.938	53.84
1019.289	53.85
1019.64	53.87
1019.992	53.65
1020.343	53.71
1020.694	53.65
1021.045	53.32
1021.396	53.4
1021.747	53.55
1022.098	53.59
1022.449	53.51
1022.8	53.19
1023.151	53.12
1023.501	53.22
1023.852	53.31
1024.202	53.13
1024.553	53.14
1024.903	53.64
1025.253	53.67
1025.604	53.44
1025.954	52.95
1026.304	53.05
1026.654	53.19
1027.004	53.12
1027.354	52.89
1027.703	52.9
1028.053	52.98
1028.403	53.14
1028.753	52.68
1029.102	52.71
1029.452	52.72
1029.801	53.23
1030.15	53.23
1030.499	53.04
897.758	1266.7
901.051	1276.68
904.343	1275.96
907.636	1298.6
910.928	1260.75
914.22	1260.59
917.511	1244.17
920.803	1191.12
924.094	1184.55
927.384	1157.23
930.675	1114.3
933.965	1108.2
937.255	1043.02
940.544	999.37
943.834	952.06
947.123	946.63
950.411	890.22
953.7	871.79
956.988	824.28
960.276	793.61
963.563	781.92
966.851	752.44
970.138	746.74
973.424	723.63
976.711	727.68
979.997	692.71
983.283	688.95
986.568	676.08
989.853	654.35
993.138	644.28
996.423	618.87
999.708	601.82
1002.992	596.03
1006.275	572.47
1009.559	566.74
1012.842	546.08
1016.125	532.81
1019.408	522.97
1022.69	516.72
1025.972	507.25
1029.254	495.54
1032.536	487.92
1035.817	476.36
1039.098	471.21
1042.379	460.58
1045.659	454.57
1048.939	444.51
1052.219	434.64
1055.498	428.17
1058.778	417.88
1062.057	409.88
1065.335	404.81
1068.614	400.25
1071.892	396.6
1075.17	383.57
1078.447	375.52
1081.724	373.55
1085.001	371.41
1088.278	364.33
1091.554	356.89
1094.83	357.4
1098.106	354.14
1101.382	351.79
1104.657	349.49
1107.932	343.77
1111.206	345.73
1114.481	338.26
1117.755	335.14
1121.029	331.88
1124.302	331.83
1127.575	325.14
1130.848	320.91
1134.121	318.24
1137.393	315.64
1140.665	309.24
1143.937	307.48
1147.208	306.34
1150.48	305.16
1153.75	301.85
1157.021	297.71
1160.291	297.27
1163.561	295.49
1166.831	295.47
1170.101	292.84
1173.37	292.66
1176.639	293.22
1179.907	290.37
1183.176	286.62
1186.444	286.75
1189.711	285.65
1192.979	284.72
1196.246	283.38
1199.513	283.82
1202.78	282.14
1206.046	282.32
1209.312	279.41
1212.578	279.31
1215.843	282.05
1219.108	280.57
1222.373	285.87
1225.638	287.78
1228.902	292.06
1232.166	291.82
1235.43	294.04
1238.693	298
1241.956	298.69
1245.219	303.72
1248.482	304.7
1251.744	304.16
1255.006	304.52
1258.268	297.25
1261.529	295.14
1264.79	292.99
1268.051	291.51
1271.312	288.25
1274.572	284.1
1277.832	282.36
1281.092	277.7
1284.351	274.77
1287.61	274.96
1290.869	271.6
1294.128	269.74
1297.386	270.03
1300.644	267.21
1303.902	267.44
1307.159	266.76
1310.416	267.13
1313.673	266.64
1316.93	268.73
1320.186	269.05
1323.442	269.54
1326.697	273.54
1329.953	275.05
1333.208	275.65
1336.463	278.87
1339.717	279.6
1342.972	282.88
1346.226	285.36
1349.479	285.72
1352.733	287.46
1355.986	289.67
1359.238	289.73
1362.491	291.43
1365.743	293.15
1368.995	293.63
1372.247	292.48
1375.498	292.67
1378.749	294.43
1382	291.05
1385.251	291.34
1388.501	290.48
1391.751	290.19
1395	288.63
1398.25	286.11
1401.499	284.52
1404.748	283.66
1407.996	281.77
1411.244	280.37
1414.492	278.64
1417.74	275.68
1420.987	272.53
1424.234	271.54
1427.481	267.86
1430.728	267.45
1433.974	265.92
1437.22	263.59
1440.465	262.02
1443.711	259.56
1446.956	257.75
1450.201	255.14
1453.445	253.01
1456.689	251.93
1459.933	247.74
1463.177	245.88
1466.42	241.59
1469.663	238.5
1472.906	237.11
1476.148	231.97
1479.391	229.47
1482.633	227.8
1485.874	223.71
1489.115	222.13
1492.356	219.94
1495.597	219.39
1498.838	216.57
1502.078	215.87
1505.318	214.68
1508.557	214.66
1511.797	214.09
1515.036	213.33
1518.274	212.56
1521.513	210.7
1524.751	210.91
1527.989	209.76
1531.227	208.82
1534.464	209.21
1537.701	207.82
1540.938	207.32
1544.174	205.06
1547.41	205.45
1550.646	203.58
1553.882	203.66
1557.117	201.84
1560.352	200.09
1563.587	200.09
1566.821	198.59
1570.055	197.26
1573.289	195.67
1576.523	195.72
1579.756	194.36
1582.989	193.12
1586.222	193.28
1589.454	191.49
1592.686	193.02
1595.918	192.48
1599.15	191.65
1602.381	192.46
1605.612	191.63
1608.843	192.88
1612.073	192.61
1615.303	193.44
1618.533	193.2
1621.762	193.29
1624.992	194.32
1628.221	193.8
1631.449	193.6
1634.678	193.25
1637.906	194.07
1641.134	194.15
1644.361	193.72
1647.588	194.07
1650.815	193.14
1654.042	193.07
1657.269	193.49
1660.495	193.41
1663.72	193.07
1666.946	193.64
1670.171	194.4
1673.396	193.58
1676.621	193.82
1679.845	194.28
1683.069	194.2
1686.293	195.98
1689.517	196.63
1692.74	196.72
1695.963	197.12
1699.185	198.79
1702.408	198.91
1705.63	199.36
1708.852	200.18
1712.073	200.35
1715.294	200.62
1718.515	201.81
1721.736	200.89
1724.956	201.59
1728.176	201.86
1731.396	203.5
1734.616	202.6
1737.835	203.52
1741.054	202.5
1744.272	202.62
1747.491	204.94
1750.709	204.6
1753.927	204.4
1757.144	204.09
1760.361	204.66
1763.578	204.73
1766.795	204.32
1770.011	205.92
1773.227	205.98
1776.443	208.18
1779.658	209.38
1782.874	208.66
1786.089	210.05
1789.303	210.43
1792.518	213.3
1795.732	213.51
1798.945	215.17
1802.159	215.14
1805.372	215.8
1808.585	219.44
1811.797	219.89
1815.01	220.12
1818.222	221.77
1821.434	223.06
1824.645	224.24
1827.856	227.52
1831.067	228.81
1834.278	228.38
1837.488	230.04
1840.698	231.83
1843.908	229.41
1847.117	230.46
1850.326	231.46
1853.535	230.88
1856.744	234.29
1859.952	233.55
1863.16	231.56
1866.368	230.59
1869.575	233.33
1872.782	229.78
1875.989	228.51
1879.196	227.2
1882.402	225.8
1885.608	226.34
1888.814	225.97
1892.019	225.3
1895.224	224.36
1898.429	222.51
1901.634	222.81
1904.838	222.85
1908.042	224.51
1911.246	225.11
1914.449	226.65
1917.652	226.23
1920.855	225.86
1924.058	225.65
1927.26	223.95
1930.462	224.59
1933.664	227.61
1936.865	226.52
1940.066	225.08
1943.267	224.26
1946.467	223.8
1949.668	225.19
1952.868	227.84
1956.067	227.49
1959.267	228.3
1962.466	228.9
1965.665	228.43
1968.863	228.6
1972.061	231.6
1975.259	234.12
1978.457	236.58
1981.654	238.41
1984.852	238.87
1988.048	238.31
1991.245	240.59
1994.441	243.5
1997.637	245.62
2000.833	250.4
2004.028	254.04
2007.223	255.12
2010.418	258.35
2013.613	261.6
2016.807	264.52
2020.001	267.03
2023.194	271.87
2026.388	278.14
2029.581	284.56
2032.774	286.87
2035.966	292.74
2039.158	293.33
2042.35	298.66
2045.542	300.62
2048.733	306.51
2051.924	310.07
2055.115	315.41
2058.306	315.38
2061.496	318.59
2064.686	318.04
2067.875	323.54
2071.065	324.63
2074.254	323.12
2077.442	327.36
2080.631	327.86
2083.819	330.48
2087.007	331.23
2090.195	334.72
2093.382	337.82
2096.569	335.5
2099.756	340.82
2102.942	341.31
2106.128	343.68
2109.314	351.38
2112.5	349.48
2115.685	357.58
2118.87	358.02
2122.055	364.97
2125.239	367.5
2128.424	371.92
2131.608	375.02
2134.791	379.21
2137.974	381.26
2141.157	383.64
2144.34	384.26
2147.523	390.5
2150.705	387.74
2153.887	391.62
2157.068	392.55
2160.25	389.05
2163.431	391.32
2166.611	396.8
2169.792	403.25
2172.972	408.34
2176.152	409.37
2179.331	414.9
2182.511	422.02
2185.69	426.02
2188.868	434.14
2192.047	435.47
2195.225	448.72
2198.403	458.47
2201.58	466.12
2204.758	475.22
2207.935	484.28
2211.111	493.98
2214.288	500.14
2217.464	500.04
2220.64	510.82
2223.815	518.55
2226.991	538.51
2230.166	538.71
2233.34	547.64
2236.515	557.01
2239.689	558.36
2242.863	560.9
2246.036	576.3
2249.209	571.61
2252.382	582.79
2255.555	598.18
2258.727	599.25
2261.9	603.97
2265.071	609.53
2268.243	618.84
2271.414	625.32
2274.585	639.67
2277.756	645.6
2280.926	650.4
2284.096	665.6
2287.266	679.29
2290.436	683.29
2293.605	698.78
2296.774	717.04
2299.942	740.86
2303.111	747.07
2306.279	761.97
2309.447	771.78
2312.614	792.41
2315.781	813.22
2318.948	850.95
2322.115	838.33
2325.281	885.35
2328.447	866.69
2331.613	902.37
2334.779	890.5
2337.944	929.47
2341.109	938.7
2344.274	963.74
2347.438	998.3
2350.602	995.36
2353.766	1030.03
2356.929	1044.85
2360.092	1036.55
2363.255	1111.36
2366.418	1109.15
2369.58	1130.68
2372.742	1199.38
2375.904	1230.28
2379.066	1223.36
2382.227	1201.71
2385.388	1308.25
2388.548	1304.38
2391.709	1321.04
2394.869	1469.72
2398.029	1406.27
2401.188	1448.14
2404.347	1440.28
2407.506	1415.91
2410.665	1453.31
2413.823	1538.49
2416.981	1625.2
2420.139	1574.74
2423.296	1556.44
2426.453	1624.26
2429.61	1569.42
2432.767	1639.08
2435.923	1618.3
2439.079	1779.32
2442.235	1796.14
2445.391	1783.18
2448.546	1776.16
2451.701	1722.49
2454.855	1716.43
2458.009	1821.44
2461.163	1897.32
2464.317	1961.56
2467.471	2011.73
2470.624	2017.53
2473.777	1960.5
2476.929	1915.6
2480.082	1857.49
2483.234	1835.37
2486.385	1926.3
2489.537	1937.78
2492.688	2007.43
2495.839	1950.83
2498.989	1905.07
2502.14	1918.72
2505.29	1933.22
2508.439	1963.68
2511.589	1957.89
2514.738	2135.82
2517.887	2086.39
2521.035	2210.24
2524.183	2233.2
2527.331	2245.35
2530.479	2235.21
2533.627	2251.7
