Data from N_2_HIR_IL_4N_Splice17_13-10-49-222.txt Node
Date: Sat Mar 07 13:10:49 EST 2020
User: sa697716
Spectrometer: NQ5500242
Trigger mode: 0
Integration Time (sec): 1.450000E-1
Scans to average: 20
Nonlinearity correction enabled: false
Boxcar width: 5
Storing dark spectrum: false
XAxis mode: Wavelengths
Number of Pixels in Spectrum: 512
>>>>>Begin Spectral Data<<<<<
187.83	96.83
188.298	106.97
188.766	72.43
189.233	66.66
189.701	70.27
190.169	73.88
190.636	55.37
191.104	83.13
191.571	-73.62
192.039	-50.14
192.506	-816.98
192.974	198.8
193.441	245.16
193.908	-4.52
194.375	18.69
194.842	-23.5
195.31	-71.53
195.777	-266.36
196.244	35.88
196.711	40.21
197.177	43.31
197.644	43.07
198.111	42.74
198.578	43.3
199.045	43.73
199.511	43.73
199.978	43.96
200.445	44.24
200.911	44.32
201.378	44.36
201.844	44.43
202.31	44.57
202.777	44.8
203.243	45.01
203.709	44.77
204.176	44.48
204.642	44.47
205.108	44.35
205.574	44.12
206.04	43.26
206.506	42.88
206.972	42.73
207.438	41.97
207.903	41.33
208.369	40.66
208.835	40.26
209.301	39.86
209.766	38.88
210.232	38.32
210.697	37.43
211.163	37.28
211.628	36.69
212.094	36.02
212.559	35.67
213.024	35
213.49	34.64
213.955	34.08
214.42	33.42
214.885	32.83
215.35	31.92
215.815	31.17
216.28	29.65
216.745	28.03
217.21	26.59
217.675	25.26
218.14	24.24
218.604	23.25
219.069	22.42
219.534	21.88
219.998	21.32
220.463	20.87
220.927	20.39
221.392	20.05
221.856	19.79
222.32	19.52
222.785	19.3
223.249	19.03
223.713	18.79
224.177	18.59
224.642	18.35
225.106	18.15
225.57	17.92
226.034	17.71
226.497	17.53
226.961	17.36
227.425	17.19
227.889	16.98
228.353	16.82
228.816	16.65
229.28	16.46
229.744	16.29
230.207	16.1
230.671	15.93
231.134	15.77
231.597	15.62
232.061	15.45
232.524	15.29
232.987	15.15
233.45	15
233.914	14.85
234.377	14.7
234.84	14.53
235.303	14.41
235.766	14.26
236.229	14.13
236.691	13.99
237.154	13.85
237.617	13.73
238.08	13.61
238.542	13.48
239.005	13.37
239.468	13.25
239.93	13.15
240.393	13.04
240.855	12.92
241.317	12.79
241.78	12.67
242.242	12.55
242.704	12.44
243.166	12.31
243.629	12.21
244.091	12.1
244.553	12
245.015	11.89
245.477	11.8
245.939	11.71
246.4	11.62
246.862	11.54
247.324	11.47
247.786	11.38
248.247	11.31
248.709	11.2
249.17	11.12
249.632	11.04
250.093	10.97
250.555	10.9
251.016	10.83
251.477	10.78
251.939	10.72
252.4	10.65
252.861	10.6
253.322	10.54
253.783	10.5
254.244	10.45
254.705	10.39
255.166	10.32
255.627	10.26
256.088	10.21
256.549	10.15
257.009	10.07
257.47	10.02
257.931	9.95
258.391	9.89
258.852	9.82
259.312	9.77
259.773	9.72
260.233	9.69
260.694	9.64
261.154	9.58
261.614	9.54
262.074	9.5
262.534	9.46
262.994	9.43
263.455	9.4
263.915	9.37
264.374	9.33
264.834	9.3
265.294	9.27
265.754	9.25
266.214	9.23
266.673	9.21
267.133	9.2
267.593	9.18
268.052	9.16
268.512	9.15
268.971	9.13
269.431	9.12
269.89	9.09
270.349	9.08
270.809	9.05
271.268	9.04
271.727	9.02
272.186	9
272.645	8.98
273.104	8.95
273.563	8.92
274.022	8.9
274.481	8.88
274.94	8.85
275.399	8.82
275.857	8.8
276.316	8.78
276.775	8.75
277.233	8.73
277.692	8.71
278.15	8.69
278.609	8.67
279.067	8.65
279.525	8.62
279.984	8.59
280.442	8.57
280.9	8.54
281.358	8.51
281.816	8.49
282.274	8.46
282.732	8.43
283.19	8.4
283.648	8.36
284.106	8.33
284.564	8.3
285.021	8.27
285.479	8.24
285.937	8.2
286.394	8.17
286.852	8.14
287.309	8.1
287.767	8.06
288.224	8.02
288.682	7.98
289.139	7.95
289.596	7.91
290.053	7.88
290.511	7.85
290.968	7.82
291.425	7.79
291.882	7.77
292.339	7.74
292.796	7.72
293.252	7.7
293.709	7.68
294.166	7.67
294.623	7.64
295.079	7.62
295.536	7.6
295.992	7.57
296.449	7.55
296.905	7.53
297.362	7.51
297.818	7.49
298.274	7.48
298.731	7.45
299.187	7.43
299.643	7.4
300.099	7.39
300.555	7.37
301.011	7.35
301.467	7.33
301.923	7.3
302.379	7.28
302.835	7.26
303.291	7.23
303.746	7.21
304.202	7.2
304.658	7.19
305.113	7.16
305.569	7.15
306.024	7.13
306.479	7.12
306.935	7.1
307.39	7.07
307.845	7.05
308.301	7.04
308.756	7.03
309.211	7.01
309.666	6.99
310.121	6.98
310.576	6.96
311.031	6.94
311.486	6.92
311.94	6.92
312.395	6.91
312.85	6.89
313.305	6.88
313.759	6.87
314.214	6.85
314.668	6.83
315.123	6.81
315.577	6.8
316.032	6.78
316.486	6.77
316.94	6.75
317.394	6.72
317.849	6.69
318.303	6.67
318.757	6.64
319.211	6.62
319.665	6.61
320.119	6.58
320.572	6.56
321.026	6.53
321.48	6.52
321.934	6.5
322.387	6.48
322.841	6.47
323.295	6.46
323.748	6.45
324.202	6.44
324.655	6.43
325.108	6.42
325.562	6.41
326.015	6.4
326.468	6.39
326.921	6.38
327.374	6.37
327.827	6.35
328.28	6.33
328.733	6.32
329.186	6.31
329.639	6.31
330.092	6.3
330.545	6.29
330.997	6.28
331.45	6.27
331.903	6.27
332.355	6.28
332.808	6.27
333.26	6.26
333.713	6.26
334.165	6.25
334.617	6.23
335.069	6.22
335.522	6.21
335.974	6.21
336.426	6.19
336.878	6.17
337.33	6.15
337.782	6.15
338.234	6.14
338.686	6.13
339.137	6.13
339.589	6.1
340.041	6.1
340.493	6.08
340.944	6.06
341.396	6.04
341.847	6.02
342.299	6
342.75	5.97
343.201	5.96
343.653	5.94
344.104	5.91
344.555	5.89
345.006	5.87
345.457	5.86
345.908	5.85
346.359	5.85
346.81	5.84
347.261	5.82
347.712	5.82
348.163	5.81
348.613	5.8
349.064	5.79
349.515	5.79
349.965	5.79
350.416	5.78
350.866	5.77
351.317	5.77
351.767	5.77
352.217	5.75
352.668	5.74
353.118	5.74
353.568	5.72
354.018	5.72
354.468	5.71
354.918	5.7
355.368	5.7
355.818	5.7
356.268	5.68
356.718	5.68
357.168	5.68
357.617	5.67
358.067	5.66
358.517	5.66
358.966	5.66
359.416	5.65
359.865	5.64
360.315	5.64
360.764	5.64
361.213	5.63
361.663	5.61
362.112	5.62
362.561	5.62
363.01	5.61
363.459	5.59
363.908	5.57
364.357	5.57
364.806	5.56
365.255	5.55
365.703	5.55
366.152	5.54
366.601	5.54
367.05	5.52
367.498	5.51
367.947	5.51
368.395	5.5
368.844	5.5
369.292	5.48
369.74	5.48
370.189	5.47
370.637	5.46
371.085	5.44
371.533	5.43
371.981	5.42
372.429	5.41
372.877	5.41
373.325	5.41
373.773	5.39
374.221	5.38
374.669	5.38
375.116	5.36
375.564	5.35
376.012	5.34
376.459	5.34
376.907	5.33
377.354	5.32
377.801	5.31
378.249	5.3
378.696	5.29
379.143	5.28
379.591	5.27
380.038	5.27
380.485	5.25
380.932	5.24
381.379	5.24
381.826	5.24
382.273	5.23
382.72	5.21
383.166	5.2
383.613	5.2
384.06	5.18
384.506	5.18
384.953	5.18
385.4	5.18
385.846	5.18
386.292	5.17
386.739	5.15
387.185	5.15
387.631	5.15
388.078	5.14
388.524	5.14
388.97	5.14
389.416	5.14
389.862	5.13
390.308	5.14
390.754	5.14
391.2	5.13
391.645	5.14
392.091	5.15
392.537	5.16
392.983	5.16
393.428	5.16
393.874	5.16
394.319	5.16
394.765	5.17
395.21	5.16
395.655	5.17
396.101	5.18
396.546	5.18
396.991	5.18
397.436	5.2
397.881	5.23
398.326	5.25
398.771	5.27
399.216	5.28
399.661	5.29
400.106	5.31
400.551	5.32
400.995	5.33
401.44	5.34
401.885	5.34
402.329	5.35
402.774	5.35
403.218	5.38
403.663	5.39
404.107	5.4
404.551	5.42
404.995	5.43
405.44	5.44
405.884	5.46
406.328	5.49
406.772	5.5
407.216	5.51
407.66	5.51
408.104	5.51
408.547	5.52
408.991	5.53
409.435	5.53
409.879	5.55
410.322	5.58
410.766	5.59
411.209	5.61
411.653	5.64
412.096	5.66
412.54	5.68
412.983	5.69
413.426	5.75
413.869	5.77
414.312	5.8
414.756	5.82
415.199	5.83
415.642	5.84
416.085	5.86
416.527	5.86
416.97	5.87
417.413	5.88
417.856	5.88
418.298	5.87
418.741	5.86
419.184	5.87
419.626	5.87
420.069	5.88
420.511	5.9
420.953	5.91
421.396	5.91
421.838	5.92
422.28	5.94
422.722	5.97
423.164	5.98
423.606	6
424.048	6
424.49	6.01
424.932	6
425.374	5.98
425.816	5.96
426.258	5.95
426.699	5.95
427.141	5.94
427.582	5.95
428.024	5.95
428.465	5.95
428.907	5.93
429.348	5.93
429.789	5.93
430.231	5.96
430.672	5.99
431.113	6.02
431.554	6.04
431.995	6.05
432.436	6.04
432.877	6.04
433.318	6.07
433.759	6.11
434.2	6.13
434.64	6.13
435.081	6.13
435.522	6.14
435.962	6.13
436.403	6.14
436.843	6.15
437.284	6.14
437.724	6.13
438.164	6.12
438.604	6.13
439.045	6.13
439.485	6.14
439.925	6.16
440.365	6.17
440.805	6.17
441.245	6.18
441.685	6.19
442.125	6.22
442.564	6.24
443.004	6.24
443.444	6.24
443.883	6.24
444.323	6.23
444.762	6.22
445.202	6.21
445.641	6.23
446.081	6.25
446.52	6.26
446.959	6.27
447.398	6.27
447.837	6.28
448.276	6.29
448.716	6.31
449.154	6.33
449.593	6.33
450.032	6.35
450.471	6.33
450.91	6.32
451.349	6.32
451.787	6.31
452.226	6.32
452.664	6.31
453.103	6.31
453.541	6.3
453.98	6.3
454.418	6.29
454.856	6.28
455.295	6.27
455.733	6.25
456.171	6.23
456.609	6.22
457.047	6.2
457.485	6.19
457.923	6.18
458.361	6.17
458.798	6.16
459.236	6.16
459.674	6.15
460.111	6.15
460.549	6.17
460.987	6.17
461.424	6.18
461.862	6.19
462.299	6.2
462.736	6.19
463.173	6.18
463.611	6.18
464.048	6.18
464.485	6.19
464.922	6.18
465.359	6.18
465.796	6.19
466.233	6.19
466.67	6.19
467.106	6.19
467.543	6.2
467.98	6.19
468.416	6.19
468.853	6.18
469.29	6.18
469.726	6.19
470.162	6.18
470.599	6.15
471.035	6.16
471.471	6.14
471.907	6.13
472.344	6.13
472.78	6.13
473.216	6.12
473.652	6.13
474.088	6.1
474.523	6.09
474.959	6.08
475.395	6.07
475.831	6.06
476.266	6.07
476.702	6.05
477.138	6.04
477.573	6.02
478.008	6.01
478.444	5.99
478.879	6.01
479.314	6
479.75	6
480.185	5.99
480.62	5.98
481.055	5.96
481.49	5.95
481.925	5.94
482.36	5.93
482.795	5.92
483.229	5.92
483.664	5.92
484.099	5.92
484.534	5.91
484.968	5.92
485.403	5.92
485.837	5.93
486.271	5.96
486.706	5.97
487.14	5.98
487.574	6
488.009	6.02
488.443	6.03
488.877	6.06
489.311	6.08
489.745	6.1
490.179	6.15
490.613	6.19
491.046	6.22
491.48	6.26
491.914	6.3
492.348	6.35
492.781	6.41
493.215	6.46
493.648	6.51
494.082	6.57
494.515	6.62
494.948	6.69
495.382	6.74
495.815	6.82
496.248	6.91
496.681	6.99
497.114	7.06
497.547	7.14
497.98	7.23
498.413	7.32
498.846	7.42
499.279	7.53
499.711	7.63
500.144	7.75
500.577	7.86
501.009	7.98
501.442	8.11
501.874	8.24
502.306	8.39
502.739	8.55
503.171	8.7
503.603	8.86
504.036	9.04
504.468	9.21
504.9	9.38
505.332	9.57
505.764	9.75
506.196	9.95
506.627	10.17
507.059	10.39
507.491	10.61
507.923	10.86
508.354	11.1
508.786	11.34
509.217	11.6
509.649	11.86
510.08	12.13
510.512	12.42
510.943	12.7
511.374	12.97
511.805	13.26
512.237	13.54
512.668	13.84
513.099	14.16
513.53	14.47
513.961	14.79
514.391	15.11
514.822	15.44
515.253	15.77
515.684	16.1
516.114	16.45
516.545	16.79
516.975	17.14
517.406	17.48
517.836	17.79
518.267	18.14
518.697	18.47
519.127	18.81
519.558	19.13
519.988	19.46
520.418	19.78
520.848	20.09
521.278	20.41
521.708	20.87
522.138	21.18
522.567	21.49
522.997	21.77
523.427	22.07
523.857	22.35
524.286	22.62
524.716	22.89
525.145	23.14
525.575	23.4
526.004	23.65
526.433	23.73
526.863	23.94
527.292	24.15
527.721	24.35
528.15	24.54
528.579	24.73
529.008	24.92
529.437	25.09
529.866	25.24
530.295	25.4
530.724	25.54
531.152	25.67
531.581	25.83
532.01	25.96
532.438	26.1
532.867	26.22
533.295	26.32
533.723	26.43
534.152	26.52
534.58	26.63
535.008	26.7
535.436	26.78
535.865	26.86
536.293	26.91
536.721	26.98
537.149	27.04
537.576	27.1
538.004	27.17
538.432	27.21
538.86	27.26
539.287	27.29
539.715	27.36
540.143	27.4
540.57	27.44
540.998	27.49
541.425	27.53
541.852	27.57
542.28	27.6
542.707	27.62
543.134	27.65
543.561	27.69
543.988	27.73
544.415	27.75
544.842	27.79
545.269	27.82
545.696	27.85
546.123	27.85
546.549	27.87
546.976	27.9
547.403	27.92
547.829	27.93
548.256	27.92
548.682	27.92
549.108	27.95
549.535	27.97
549.961	27.96
550.387	27.94
550.813	27.96
551.24	27.97
551.666	27.95
552.092	27.96
552.518	27.95
552.943	27.95
553.369	27.92
553.795	27.87
554.221	27.83
554.646	27.79
555.072	27.74
555.498	27.66
555.923	27.59
556.349	27.51
556.774	27.42
557.199	27.34
557.625	27.25
558.05	27.17
558.475	27.08
558.9	26.98
559.325	26.87
559.75	26.77
560.175	26.67
560.6	26.54
561.025	26.42
561.449	26.29
561.874	26.15
562.299	26.01
562.723	25.85
563.148	25.69
563.572	25.53
563.997	25.36
564.421	25.19
564.846	25.02
565.27	24.87
565.694	24.71
566.118	24.54
566.542	24.37
566.966	24.18
567.39	24.04
567.814	23.89
568.238	23.72
568.662	23.57
569.086	23.4
569.509	23.25
569.933	23.08
570.357	22.91
570.78	22.75
571.204	22.6
571.627	22.45
572.05	22.28
572.474	22.13
572.897	21.98
573.32	21.81
573.743	21.66
574.166	21.5
574.589	21.35
575.012	21.19
575.435	21.05
575.858	20.9
576.281	20.76
576.704	20.64
577.126	20.49
577.549	20.35
577.972	20.23
578.394	20.12
578.817	20.01
579.239	19.91
579.661	19.8
580.084	19.69
580.506	19.59
580.928	19.48
581.35	19.37
581.772	19.29
582.194	19.2
582.616	19.1
583.038	19.01
583.46	18.92
583.882	18.82
584.303	18.73
584.725	18.66
585.147	18.58
585.568	18.5
585.99	18.43
586.411	18.36
586.833	18.28
587.254	18.2
587.675	18.11
588.096	18.04
588.518	17.97
588.939	17.93
589.36	17.85
589.781	17.78
590.202	17.74
590.623	17.69
591.043	17.61
591.464	17.56
591.885	17.5
592.305	17.45
592.726	17.42
593.147	17.38
593.567	17.31
593.987	17.28
594.408	17.22
594.828	17.18
595.248	17.14
595.669	17.11
596.089	17.06
596.509	17.03
596.929	17
597.349	16.96
597.769	16.92
598.189	16.88
598.608	16.83
599.028	16.81
599.448	16.76
599.867	16.71
600.287	16.66
600.706	16.61
601.126	16.56
601.545	16.51
601.965	16.46
602.384	16.4
602.803	16.35
603.222	16.31
603.641	16.24
604.061	16.19
604.48	16.11
604.898	16.04
605.317	15.98
605.736	15.89
606.155	15.83
606.574	15.74
606.992	15.65
607.411	15.58
607.829	15.45
608.248	15.36
608.666	15.27
609.085	15.19
609.503	15.11
609.921	15.02
610.339	14.94
610.758	14.85
611.176	14.76
611.594	14.67
612.012	14.57
612.43	14.5
612.847	14.4
613.265	14.32
613.683	14.22
614.101	14.14
614.518	14.05
614.936	13.97
615.353	13.87
615.771	13.79
616.188	13.71
616.606	13.63
617.023	13.56
617.44	13.51
617.857	13.45
618.274	13.4
618.691	13.33
619.108	13.28
619.525	13.22
619.942	13.18
620.359	13.14
620.776	13.11
621.192	13.09
621.609	13.05
622.026	13
622.442	12.96
622.859	12.93
623.275	12.89
623.691	12.87
624.108	12.85
624.524	12.83
624.94	12.8
625.356	12.78
625.772	12.76
626.188	12.75
626.604	12.75
627.02	12.74
627.436	12.72
627.852	12.71
628.268	12.7
628.683	12.69
629.099	12.68
629.514	12.67
629.93	12.65
630.345	12.62
630.761	12.58
631.176	12.53
631.591	12.49
632.007	12.45
632.422	12.38
632.837	12.32
633.252	12.24
633.667	12.17
634.082	12.07
634.497	11.99
634.911	11.91
635.326	11.81
635.741	11.72
636.155	11.6
636.57	11.5
636.984	11.4
637.399	11.27
637.813	11.14
638.228	11.01
638.642	10.89
639.056	10.73
639.47	10.6
639.884	10.47
640.298	10.33
640.712	10.2
641.126	10.06
641.54	9.92
641.954	9.78
642.368	9.65
642.781	9.53
643.195	9.4
643.609	9.29
644.022	9.17
644.436	9.05
644.849	8.93
645.262	8.82
645.676	8.71
646.089	8.62
646.502	8.54
646.915	8.46
647.328	8.38
647.741	8.31
648.154	8.24
648.567	8.19
648.98	8.13
649.393	8.08
649.805	8.05
650.218	8.01
650.631	7.97
651.043	7.93
651.456	7.89
651.868	7.85
652.28	7.81
652.693	7.77
653.105	7.73
653.517	7.68
653.929	7.64
654.341	7.58
654.753	7.52
655.165	7.46
655.577	7.41
655.989	7.33
656.401	7.26
656.813	7.2
657.224	7.12
657.636	7.04
658.047	6.96
658.459	6.88
658.87	6.8
659.282	6.71
659.693	6.63
660.104	6.54
660.515	6.46
660.926	6.39
661.338	6.3
661.749	6.22
662.159	6.15
662.57	6.08
662.981	6.01
663.392	5.95
663.803	5.89
664.213	5.83
664.624	5.77
665.035	5.73
665.445	5.68
665.855	5.65
666.266	5.61
666.676	5.59
667.086	5.55
667.497	5.52
667.907	5.5
668.317	5.48
668.727	5.47
669.137	5.45
669.547	5.44
669.956	5.43
670.366	5.43
670.776	5.43
671.186	5.43
671.595	5.44
672.005	5.44
672.414	5.45
672.824	5.46
673.233	5.47
673.642	5.48
674.052	5.49
674.461	5.51
674.87	5.53
675.279	5.56
675.688	5.59
676.097	5.61
676.506	5.63
676.915	5.67
677.323	5.7
677.732	5.73
678.141	5.77
678.549	5.81
678.958	5.86
679.366	5.92
679.775	5.97
680.183	6.04
680.592	6.1
681	6.19
681.408	6.27
681.816	6.37
682.224	6.47
682.632	6.6
683.04	6.73
683.448	6.86
683.856	6.99
684.264	7.17
684.671	7.35
685.079	7.57
685.487	7.81
685.894	8.07
686.302	8.35
686.709	8.68
687.116	9.03
687.524	9.4
687.931	9.81
688.338	10.25
688.745	10.7
689.152	11.18
689.559	11.69
689.966	12.23
690.373	12.79
690.78	13.37
691.187	13.94
691.593	14.55
692	15.17
692.407	15.81
692.813	16.48
693.22	17.12
693.626	17.8
694.032	18.48
694.439	19.15
694.845	19.82
695.251	20.51
695.657	21.18
696.063	21.87
696.469	22.55
696.875	23.23
697.281	23.9
697.687	24.56
698.093	25.22
698.498	25.87
698.904	26.52
699.31	27.15
699.715	27.77
700.12	28.4
700.526	28.99
700.931	29.59
701.337	30.16
701.742	30.7
702.147	31.27
702.552	31.84
702.957	32.37
703.362	32.89
703.767	33.4
704.172	33.89
704.577	34.39
704.981	34.89
705.386	35.38
705.791	35.83
706.195	36.31
706.6	36.76
707.004	37.2
707.408	37.65
707.813	38.09
708.217	38.53
708.621	38.97
709.025	39.36
709.43	39.75
709.834	40.15
710.237	40.54
710.641	40.91
711.045	41.26
711.449	41.64
711.853	42.01
712.256	42.35
712.66	42.69
713.064	43.02
713.467	43.35
713.87	43.69
714.274	44.01
714.677	44.35
715.08	44.68
715.484	45
715.887	45.3
716.29	45.58
716.693	45.88
717.096	46.17
717.499	46.48
717.901	46.76
718.304	47.02
718.707	47.27
719.109	47.5
719.512	47.73
719.915	47.98
720.317	48.19
720.719	48.38
721.122	48.59
721.524	48.83
721.926	49.03
722.328	49.24
722.731	49.47
723.133	49.68
723.535	49.89
723.937	50.07
724.338	50.25
724.74	50.44
725.142	50.72
725.544	50.88
725.945	51.05
726.347	51.16
726.748	51.31
727.15	51.41
727.551	51.58
727.952	51.71
728.354	51.85
728.755	51.96
729.156	52.06
729.557	52.08
729.958	52.18
730.359	52.25
730.76	52.39
731.161	52.48
731.562	52.61
731.962	52.66
732.363	52.75
732.763	52.86
733.164	52.96
733.564	53.06
733.965	53.14
734.365	53.24
734.766	53.3
735.166	53.36
735.566	53.45
735.966	53.52
736.366	53.58
736.766	53.63
737.166	53.67
737.566	53.73
737.966	53.77
738.365	53.84
738.765	53.89
739.165	53.94
739.564	54.01
739.964	54.07
740.363	54.08
740.763	54.14
741.162	54.18
741.561	54.18
741.96	54.21
742.36	54.24
742.759	54.25
743.158	54.26
743.557	54.29
743.955	54.29
744.354	54.31
744.753	54.36
745.152	54.4
745.55	54.4
745.949	54.45
746.348	54.47
746.746	54.47
747.144	54.52
747.543	54.53
747.941	54.57
748.339	54.59
748.737	54.6
749.136	54.6
749.534	54.58
749.932	54.6
750.33	54.62
750.727	54.64
751.125	54.67
751.523	54.67
751.921	54.72
752.318	54.72
752.716	54.72
753.113	54.71
753.511	54.7
753.908	54.72
754.305	54.73
754.703	54.72
755.1	54.73
755.497	54.73
755.894	54.71
756.291	54.71
756.688	54.68
757.085	54.68
757.482	54.67
757.878	54.69
758.275	54.68
758.672	54.66
759.068	54.67
759.465	54.65
759.861	54.68
760.258	54.69
760.654	54.7
761.05	54.74
761.447	54.77
761.843	54.76
762.239	54.75
762.635	54.74
763.031	54.75
763.427	54.75
763.822	54.75
764.218	54.75
764.614	54.75
765.01	54.72
765.405	54.68
765.801	54.66
766.196	54.68
766.592	54.68
766.987	54.72
767.382	54.72
767.778	54.73
768.173	54.72
768.568	54.7
768.963	54.68
769.358	54.7
769.753	54.7
770.148	54.69
770.542	54.66
770.937	54.68
771.332	54.64
771.726	54.66
772.121	54.65
772.515	54.67
772.91	54.68
773.304	54.72
773.699	54.72
774.093	54.71
774.487	54.71
774.881	54.74
775.275	54.74
775.669	54.73
776.063	54.69
776.457	54.69
776.851	54.67
777.245	54.64
777.638	54.6
778.032	54.59
778.425	54.62
778.819	54.63
779.212	54.65
779.606	54.66
779.999	54.66
780.392	54.7
780.786	54.71
781.179	54.72
781.572	54.76
781.965	54.78
782.358	54.8
782.751	54.77
783.143	54.79
783.536	54.76
783.929	54.75
784.322	54.77
784.714	54.78
785.107	54.81
785.499	54.81
785.891	54.81
786.284	54.83
786.676	54.84
787.068	54.85
787.46	54.84
787.852	54.85
788.245	54.84
788.636	54.85
789.028	54.81
789.42	54.77
789.812	54.77
790.204	54.79
790.595	54.81
790.987	54.79
791.378	54.81
791.77	54.82
792.161	54.79
792.553	54.79
792.944	54.76
793.335	54.8
793.726	54.82
794.117	54.82
794.508	54.76
794.899	54.73
795.29	54.72
795.681	54.7
796.072	54.67
796.463	54.72
796.853	54.7
797.244	54.7
797.634	54.69
798.025	54.68
798.415	54.66
798.806	54.67
799.196	54.66
799.586	54.66
799.976	54.66
800.366	54.7
800.756	54.69
801.146	54.72
801.536	54.72
801.926	54.7
802.316	54.71
802.706	54.72
803.095	54.73
803.485	54.73
803.874	54.73
804.264	54.73
804.653	54.74
805.043	54.72
805.432	54.72
805.821	54.73
806.21	54.76
806.599	54.76
806.988	54.77
807.377	54.77
807.766	54.77
808.155	54.76
808.544	54.74
808.933	54.73
809.321	54.74
809.71	54.72
810.098	54.72
810.487	54.67
810.875	54.68
811.264	54.67
811.652	54.7
812.04	54.69
812.428	54.73
812.816	54.74
813.204	54.74
813.592	54.72
813.98	54.74
814.368	54.73
814.756	54.76
815.144	54.78
815.531	54.78
815.919	54.75
816.306	54.75
816.694	54.71
817.081	54.72
817.469	54.71
817.856	54.7
818.243	54.7
818.63	54.7
819.017	54.69
819.404	54.67
819.791	54.67
820.178	54.69
820.565	54.68
820.952	54.71
821.339	54.69
821.725	54.71
822.112	54.76
822.498	54.78
822.885	54.81
823.271	54.79
823.657	54.78
824.044	54.79
824.43	54.78
824.816	54.81
825.202	54.79
825.588	54.8
825.974	54.79
826.36	54.77
826.746	54.72
827.132	54.69
827.517	54.72
827.903	54.74
828.289	54.74
828.674	54.73
829.06	54.73
829.445	54.73
829.83	54.75
830.216	54.75
830.601	54.74
830.986	54.77
831.371	54.78
831.756	54.79
832.141	54.78
832.526	54.75
832.911	54.75
833.295	54.74
833.68	54.76
834.065	54.74
834.449	54.75
834.834	54.76
835.218	54.78
835.603	54.78
835.987	54.75
836.371	54.75
836.755	54.76
837.139	54.77
837.524	54.77
837.908	54.78
838.291	54.8
838.675	54.78
839.059	54.78
839.443	54.73
839.827	54.71
840.21	54.71
840.594	54.73
840.977	54.72
841.361	54.71
841.744	54.69
842.127	54.68
842.511	54.64
842.894	54.65
843.277	54.65
843.66	54.65
844.043	54.67
844.426	54.69
844.809	54.7
845.191	54.72
845.574	54.73
845.957	54.72
846.339	54.73
846.722	54.75
847.104	54.76
847.487	54.76
847.869	54.77
848.252	54.77
848.634	54.77
849.016	54.76
849.398	54.77
849.78	54.79
850.162	54.8
850.544	54.8
850.926	54.8
851.307	54.79
851.689	54.79
852.071	54.79
852.452	54.8
852.834	54.8
853.215	54.8
853.597	54.8
853.978	54.8
854.359	54.8
854.741	54.8
855.122	54.79
855.503	54.8
855.884	54.79
856.265	54.8
856.646	54.78
857.026	54.79
857.407	54.8
857.788	54.79
858.169	54.79
858.549	54.79
858.93	54.78
859.31	54.77
859.69	54.78
860.071	54.77
860.451	54.78
860.831	54.79
861.211	54.78
861.591	54.73
861.971	54.74
862.351	54.73
862.731	54.73
863.111	54.73
863.491	54.74
863.87	54.73
864.25	54.73
864.629	54.74
865.009	54.74
865.388	54.75
865.768	54.78
866.147	54.78
866.526	54.77
866.905	54.78
867.284	54.77
867.663	54.77
868.042	54.78
868.421	54.82
868.8	54.8
869.179	54.79
869.558	54.78
869.936	54.79
870.315	54.77
870.693	54.79
871.072	54.79
871.45	54.81
871.828	54.83
872.207	54.85
872.585	54.84
872.963	54.85
873.341	54.87
873.719	54.87
874.097	54.87
874.475	54.91
874.853	54.92
875.23	54.95
875.608	54.95
875.986	54.97
876.363	54.95
876.741	54.93
877.118	54.96
877.495	54.95
877.873	54.99
878.25	55.01
878.627	54.99
879.004	54.97
879.381	54.95
879.758	54.92
880.135	54.9
880.512	54.89
880.889	54.86
881.265	54.84
881.642	54.84
882.019	54.83
882.395	54.8
882.772	54.78
883.148	54.76
883.524	54.76
883.901	54.77
884.277	54.75
884.653	54.73
885.029	54.74
885.405	54.74
885.781	54.71
886.157	54.68
886.532	54.68
886.908	54.68
887.284	54.69
887.659	54.68
888.035	54.66
888.411	54.65
888.786	54.7
889.161	54.7
889.537	54.69
889.912	54.69
890.287	54.7
890.662	54.69
891.037	54.69
891.412	54.68
891.787	54.7
892.162	54.72
892.536	54.71
892.911	54.69
893.286	54.69
893.66	54.68
894.035	54.68
894.409	54.66
894.784	54.68
895.158	54.68
895.532	54.67
895.906	54.66
896.281	54.64
896.655	54.63
897.029	54.65
897.402	54.62
897.776	54.63
898.15	54.63
898.524	54.67
898.898	54.64
899.271	54.64
899.645	54.67
900.018	54.67
900.392	54.69
900.765	54.7
901.138	54.7
901.511	54.73
901.884	54.74
902.258	54.75
902.631	54.75
903.003	54.78
903.376	54.77
903.749	54.74
904.122	54.77
904.495	54.79
904.867	54.81
905.24	54.82
905.612	54.85
905.985	54.83
906.357	54.81
906.729	54.82
907.102	54.83
907.474	54.85
907.846	54.86
908.218	54.83
908.59	54.83
908.962	54.81
909.334	54.79
909.705	54.77
910.077	54.76
910.449	54.76
910.82	54.78
911.192	54.75
911.563	54.72
911.935	54.73
912.306	54.71
912.677	54.72
913.048	54.75
913.419	54.73
913.79	54.75
914.161	54.75
914.532	54.75
914.903	54.71
915.274	54.72
915.645	54.78
916.015	54.79
916.386	54.79
916.756	54.79
917.127	54.78
917.497	54.78
917.868	54.77
918.238	54.78
918.608	54.82
918.978	54.84
919.348	54.83
919.718	54.81
920.088	54.79
920.458	54.81
920.828	54.78
921.198	54.77
921.567	54.8
921.937	54.8
922.306	54.79
922.676	54.76
923.045	54.73
923.415	54.73
923.784	54.71
924.153	54.73
924.522	54.72
924.891	54.71
925.26	54.68
925.629	54.66
925.998	54.66
926.367	54.65
926.736	54.65
927.104	54.67
927.473	54.65
927.842	54.64
928.21	54.64
928.578	54.6
928.947	54.63
929.315	54.61
929.683	54.6
930.051	54.57
930.42	54.56
930.788	54.51
931.156	54.48
931.523	54.47
931.891	54.5
932.259	54.44
932.627	54.47
932.994	54.44
933.362	54.45
933.729	54.44
934.097	54.46
934.464	54.49
934.831	54.52
935.199	54.55
935.566	54.58
935.933	54.5
936.3	54.5
936.667	54.49
937.034	54.54
937.401	54.52
937.767	54.55
938.134	54.54
938.501	54.54
938.867	54.59
939.234	54.61
939.6	54.63
939.967	54.73
940.333	54.74
940.699	54.74
941.065	54.71
941.431	54.78
941.798	54.76
942.163	54.74
942.529	54.72
942.895	54.68
943.261	54.64
943.627	54.62
943.992	54.59
944.358	54.61
944.723	54.61
945.089	54.57
945.454	54.58
945.82	54.57
946.185	54.56
946.55	54.51
946.915	54.44
947.28	54.38
947.645	54.36
948.01	54.37
948.375	54.37
948.74	54.35
949.104	54.35
949.469	54.34
949.834	54.33
950.198	54.32
950.562	54.29
950.927	54.28
951.291	54.24
951.655	54.16
952.02	54.11
952.384	54.05
952.748	53.99
953.112	53.92
953.476	53.81
953.839	53.77
954.203	53.75
954.567	53.73
954.931	53.72
955.294	53.69
955.658	53.77
956.021	53.74
956.385	53.73
956.748	53.68
957.111	53.7
957.474	53.71
957.837	53.68
958.2	53.67
958.563	53.64
958.926	53.66
959.289	53.72
959.652	53.63
960.015	53.68
960.377	53.66
960.74	53.73
961.102	53.72
961.465	53.79
961.827	53.86
962.189	53.85
962.552	53.91
962.914	53.91
963.276	53.92
963.638	53.91
964	53.86
964.362	53.94
964.724	53.91
965.085	53.89
965.447	53.84
965.809	53.79
966.17	53.71
966.532	53.64
966.893	53.65
967.255	53.61
967.616	53.65
967.977	53.67
968.338	53.61
968.699	53.63
969.061	53.65
969.421	53.69
969.782	53.74
970.143	53.8
970.504	53.84
970.865	53.86
971.225	53.79
971.586	53.78
971.946	53.75
972.307	53.78
972.667	53.76
973.027	53.74
973.388	53.73
973.748	53.7
974.108	53.76
974.468	53.73
974.828	53.76
975.188	53.8
975.548	53.79
975.907	53.8
976.267	53.76
976.627	53.83
976.986	53.8
977.346	53.7
977.705	53.65
978.064	53.61
978.424	53.64
978.783	53.55
979.142	53.54
979.501	53.48
979.86	53.53
980.219	53.52
980.578	53.46
980.937	53.53
981.296	53.59
981.654	53.55
982.013	53.53
982.371	53.5
982.73	53.56
983.088	53.55
983.447	53.55
983.805	53.55
984.163	53.49
984.521	53.44
984.879	53.32
985.237	53.34
985.595	53.44
985.953	53.42
986.311	53.43
986.669	53.36
987.026	53.41
987.384	53.45
987.741	53.31
988.099	53.36
988.456	53.32
988.814	53.41
989.171	53.28
989.528	53.26
989.885	53.29
990.242	53.28
990.599	53.3
990.956	53.33
991.313	53.34
991.67	53.43
992.027	53.5
992.383	53.5
992.74	53.57
993.096	53.65
993.453	53.61
993.809	53.52
994.165	53.54
994.522	53.61
994.878	53.69
995.234	53.66
995.59	53.65
995.946	53.65
996.302	53.76
996.658	53.71
997.013	53.7
997.369	53.78
997.725	53.87
998.08	53.9
998.436	53.87
998.791	53.72
999.147	53.68
999.502	53.65
999.857	53.54
1000.212	53.4
1000.567	53.37
1000.922	53.36
1001.277	53.32
1001.632	53.26
1001.987	53.3
1002.342	53.15
1002.696	53.19
1003.051	53.34
1003.406	53.48
1003.76	53.54
1004.114	53.56
1004.469	53.6
1004.823	53.8
1005.177	53.71
1005.531	53.78
1005.885	53.72
1006.239	53.8
1006.593	53.94
1006.947	53.95
1007.301	53.86
1007.655	53.89
1008.008	54.04
1008.362	54.23
1008.715	54
1009.069	54.24
1009.422	54.22
1009.776	54.15
1010.129	54.19
1010.482	54.04
1010.835	53.88
1011.188	53.88
1011.541	53.89
1011.894	53.79
1012.247	53.58
1012.6	53.54
1012.952	53.35
1013.305	53.48
1013.657	53.67
1014.01	53.81
1014.362	53.74
1014.715	53.95
1015.067	54.06
1015.419	54.13
1015.771	54.16
1016.123	54.23
1016.475	54.39
1016.827	54.49
1017.179	54.36
1017.531	54.33
1017.883	54.24
1018.234	54.59
1018.586	54.43
1018.938	54.52
1019.289	54.32
1019.64	54.21
1019.992	53.98
1020.343	53.86
1020.694	53.86
1021.045	53.92
1021.396	53.97
1021.747	54.09
1022.098	53.75
1022.449	53.87
1022.8	53.79
1023.151	53.85
1023.501	53.93
1023.852	54.09
1024.202	54.06
1024.553	53.96
1024.903	54.01
1025.253	53.92
1025.604	53.66
1025.954	53.7
1026.304	53.61
1026.654	53.47
1027.004	53.48
1027.354	53.6
1027.703	53.44
1028.053	53.55
1028.403	53.82
1028.753	53.41
1029.102	53.5
1029.452	53.75
1029.801	54.01
1030.15	54.05
1030.499	54.07
897.758	1257.76
901.051	1269.25
904.343	1264.52
907.636	1287.8
910.928	1250.76
914.22	1252.55
917.511	1237.01
920.803	1185.62
924.094	1176.48
927.384	1153.68
930.675	1111.94
933.965	1105.83
937.255	1038.49
940.544	997.33
943.834	950.94
947.123	945.93
950.411	887.97
953.7	870.11
956.988	819.05
960.276	788.68
963.563	776.8
966.851	745.98
970.138	739.87
973.424	718.32
976.711	721.44
979.997	686.94
983.283	682.2
986.568	670.31
989.853	648.78
993.138	640.24
996.423	616.28
999.708	599.18
1002.992	594.02
1006.275	568.83
1009.559	562.87
1012.842	544.11
1016.125	528.8
1019.408	520.05
1022.69	512.15
1025.972	503.56
1029.254	490.69
1032.536	483.25
1035.817	471.64
1039.098	466.26
1042.379	456.62
1045.659	451.63
1048.939	440.85
1052.219	432.62
1055.498	425.94
1058.778	416.53
1062.057	407.83
1065.335	403.83
1068.614	399.56
1071.892	396.69
1075.17	382.79
1078.447	375.34
1081.724	373.04
1085.001	371.17
1088.278	363.37
1091.554	356.67
1094.83	356.86
1098.106	353.91
1101.382	350.84
1104.657	347.95
1107.932	342.52
1111.206	344.47
1114.481	337.46
1117.755	333.79
1121.029	330.62
1124.302	331.03
1127.575	324.45
1130.848	320.76
1134.121	317.83
1137.393	316.39
1140.665	309.83
1143.937	307.57
1147.208	306.88
1150.48	304.88
1153.75	302.49
1157.021	298.16
1160.291	297.87
1163.561	295
1166.831	295.17
1170.101	292.34
1173.37	291.51
1176.639	292.49
1179.907	289.95
1183.176	285.85
1186.444	286.56
1189.711	284.51
1192.979	283.95
1196.246	281.73
1199.513	283.13
1202.78	281.17
1206.046	281.33
1209.312	279.06
1212.578	278.87
1215.843	281.42
1219.108	280.33
1222.373	285.71
1225.638	288.16
1228.902	291.57
1232.166	292.35
1235.43	294.31
1238.693	297.57
1241.956	299.13
1245.219	303.97
1248.482	304.48
1251.744	303.98
1255.006	304.81
1258.268	296.59
1261.529	294.59
1264.79	292.67
1268.051	291.12
1271.312	287.04
1274.572	283.99
1277.832	281.69
1281.092	276.78
1284.351	274.38
1287.61	274.71
1290.869	270.42
1294.128	268.97
1297.386	269.35
1300.644	266
1303.902	266.4
1307.159	266.41
1310.416	266.27
1313.673	265.98
1316.93	268.36
1320.186	268.36
1323.442	268.59
1326.697	273.62
1329.953	274.61
1333.208	274.79
1336.463	279
1339.717	279.53
1342.972	282.14
1346.226	284.6
1349.479	284.89
1352.733	286.47
1355.986	288.33
1359.238	288.59
1362.491	289.67
1365.743	292.71
1368.995	293.57
1372.247	292.46
1375.498	292.87
1378.749	295.43
1382	292.05
1385.251	292.49
1388.501	290.77
1391.751	291.78
1395	289.81
1398.25	287.56
1401.499	285.44
1404.748	284.34
1407.996	282.25
1411.244	280.01
1414.492	277.89
1417.74	275.68
1420.987	271.73
1424.234	270.98
1427.481	267.06
1430.728	266.46
1433.974	264.46
1437.22	261.59
1440.465	260.68
1443.711	257.98
1446.956	256.29
1450.201	254.36
1453.445	251.84
1456.689	251.24
1459.933	246.88
1463.177	244.55
1466.42	241.18
1469.663	238.02
1472.906	237.13
1476.148	231.93
1479.391	228.9
1482.633	227.2
1485.874	223.08
1489.115	221.43
1492.356	219.19
1495.597	218.81
1498.838	216.03
1502.078	214.99
1505.318	214.25
1508.557	214.56
1511.797	213.3
1515.036	212.84
1518.274	212.32
1521.513	210.62
1524.751	210.5
1527.989	209.76
1531.227	209
1534.464	209.77
1537.701	207.6
1540.938	207.13
1544.174	204.53
1547.41	205.29
1550.646	203.69
1553.882	203.77
1557.117	201.52
1560.352	200.25
1563.587	199.96
1566.821	198.41
1570.055	196.44
1573.289	195.48
1576.523	195.27
1579.756	193.91
1582.989	192.94
1586.222	192.98
1589.454	191.4
1592.686	193.18
1595.918	192.41
1599.15	191.65
1602.381	192.39
1605.612	192.34
1608.843	193.35
1612.073	193.05
1615.303	194.09
1618.533	193.67
1621.762	193.56
1624.992	193.91
1628.221	193.11
1631.449	193.2
1634.678	192.43
1637.906	193.5
1641.134	193.55
1644.361	193.06
1647.588	193.69
1650.815	192.84
1654.042	192.34
1657.269	193.37
1660.495	193.78
1663.72	193.26
1666.946	193.68
1670.171	194.87
1673.396	193.82
1676.621	193.96
1679.845	194.55
1683.069	194.14
1686.293	195.58
1689.517	196.46
1692.74	196.06
1695.963	196.63
1699.185	198.48
1702.408	198.52
1705.63	199.18
1708.852	199.78
1712.073	200.26
1715.294	200.44
1718.515	201.6
1721.736	200.79
1724.956	201.37
1728.176	201.55
1731.396	203.26
1734.616	202.53
1737.835	203.64
1741.054	201.9
1744.272	202.54
1747.491	204.22
1750.709	204.16
1753.927	203.94
1757.144	203.82
1760.361	204.47
1763.578	204.73
1766.795	203.77
1770.011	205.49
1773.227	205.4
1776.443	207.94
1779.658	208.97
1782.874	208.47
1786.089	209.6
1789.303	210.36
1792.518	212.75
1795.732	212.63
1798.945	214.76
1802.159	215.15
1805.372	215.41
1808.585	219.08
1811.797	219.65
1815.01	219.53
1818.222	221.33
1821.434	223.06
1824.645	223.91
1827.856	227.39
1831.067	229.64
1834.278	228.08
1837.488	229.79
1840.698	231.69
1843.908	229.23
1847.117	230.47
1850.326	232.03
1853.535	231.12
1856.744	234.22
1859.952	233.84
1863.16	232.1
1866.368	230.46
1869.575	234.06
1872.782	229.76
1875.989	227.81
1879.196	227.03
1882.402	225.37
1885.608	225.47
1888.814	225.4
1892.019	224.18
1895.224	223.02
1898.429	220.82
1901.634	221.53
1904.838	220.85
1908.042	223.01
1911.246	223.84
1914.449	224.74
1917.652	224.57
1920.855	225.12
1924.058	224.11
1927.26	222.47
1930.462	223.34
1933.664	226.89
1936.865	224.88
1940.066	224.32
1943.267	223.09
1946.467	223
1949.668	224.16
1952.868	226.66
1956.067	225.7
1959.267	227.4
1962.466	228.27
1965.665	227.27
1968.863	227.58
1972.061	230.91
1975.259	233.37
1978.457	235.46
1981.654	237.6
1984.852	238.04
1988.048	237.38
1991.245	239.97
1994.441	242.73
1997.637	244.84
2000.833	249.45
2004.028	252.82
2007.223	254
2010.418	256.57
2013.613	261.34
2016.807	263.77
2020.001	266.29
2023.194	271.01
2026.388	276.45
2029.581	282.88
2032.774	284.9
2035.966	291.27
2039.158	291.63
2042.35	298
2045.542	299.1
2048.733	304.5
2051.924	307.79
2055.115	314.11
2058.306	314.42
2061.496	317.54
2064.686	316.75
2067.875	322.34
2071.065	323.69
2074.254	321.86
2077.442	325.17
2080.631	327.31
2083.819	329.43
2087.007	330.85
2090.195	333.59
2093.382	336.58
2096.569	334.85
2099.756	340.59
2102.942	341.69
2106.128	343.11
2109.314	352.11
2112.5	350.82
2115.685	357.97
2118.87	358.61
2122.055	365.82
2125.239	368
2128.424	372.71
2131.608	375.53
2134.791	380.16
2137.974	382.12
2141.157	384.87
2144.34	384.92
2147.523	390.52
2150.705	388.29
2153.887	392.07
2157.068	392.49
2160.25	390
2163.431	392
2166.611	396.99
2169.792	403.47
2172.972	407.83
2176.152	409.28
2179.331	414.06
2182.511	421.68
2185.69	426.26
2188.868	434.14
2192.047	434.96
2195.225	446.91
2198.403	456.85
2201.58	464.95
2204.758	472.88
2207.935	482.56
2211.111	492.45
2214.288	498.72
2217.464	498.76
2220.64	507.62
2223.815	515.64
2226.991	535.82
2230.166	536.71
2233.34	545.88
2236.515	555.54
2239.689	556.05
2242.863	557.84
2246.036	573.58
2249.209	570.17
2252.382	580.54
2255.555	595.52
2258.727	596.82
2261.9	601.48
2265.071	607.25
2268.243	616.58
2271.414	622.67
2274.585	638.71
2277.756	645.96
2280.926	648.74
2284.096	663.36
2287.266	676.75
2290.436	683.1
2293.605	699.33
2296.774	718.44
2299.942	741.01
2303.111	745.78
2306.279	762.46
2309.447	771.82
2312.614	789.73
2315.781	812.24
2318.948	849.73
2322.115	837.5
2325.281	882.05
2328.447	861.33
2331.613	896.56
2334.779	886.04
2337.944	923.76
2341.109	931.01
2344.274	955.95
2347.438	989.89
2350.602	987.65
2353.766	1018.94
2356.929	1035.8
2360.092	1027.16
2363.255	1103.11
2366.418	1100.63
2369.58	1123.45
2372.742	1191.68
2375.904	1222.38
2379.066	1213.87
2382.227	1195.35
2385.388	1299.87
2388.548	1297.75
2391.709	1311.32
2394.869	1462.18
2398.029	1396.53
2401.188	1438.88
2404.347	1427.31
2407.506	1405.8
2410.665	1443.91
2413.823	1532.4
2416.981	1619.22
2420.139	1564.43
2423.296	1551.24
2426.453	1616.27
2429.61	1561.62
2432.767	1632.02
2435.923	1612.24
2439.079	1770.37
2442.235	1791.81
2445.391	1775.98
2448.546	1763.28
2451.701	1714.24
2454.855	1711.72
2458.009	1810.48
2461.163	1890.7
2464.317	1949.05
2467.471	2002.07
2470.624	2005.61
2473.777	1948.25
2476.929	1901.27
2480.082	1844.41
2483.234	1821.89
2486.385	1909.75
2489.537	1923.72
2492.688	1994.06
2495.839	1935.28
2498.989	1895.42
2502.14	1907.03
2505.29	1921.61
2508.439	1954.37
2511.589	1945.6
2514.738	2128.53
2517.887	2080.29
2521.035	2199.24
2524.183	2217.44
2527.331	2232.11
2530.479	2224.2
2533.627	2239.01
