Data from N_2_DEC_VA_2N_Splice17_13-07-24-437.txt Node
Date: Sat Mar 07 13:07:24 EST 2020
User: sa697716
Spectrometer: NQ5500242
Trigger mode: 0
Integration Time (sec): 1.450000E-1
Scans to average: 20
Nonlinearity correction enabled: false
Boxcar width: 5
Storing dark spectrum: false
XAxis mode: Wavelengths
Number of Pixels in Spectrum: 512
>>>>>Begin Spectral Data<<<<<
187.83	128.07
188.298	136.63
188.766	105.52
189.233	101.02
189.701	91.09
190.169	120.64
190.636	109.41
191.104	86.72
191.571	-291.28
192.039	-179.54
192.506	-683.89
192.974	259.98
193.441	232.49
193.908	27.83
194.375	28.56
194.842	-15.6
195.31	24.49
195.777	-7.56
196.244	27.6
196.711	34.36
197.177	38.49
197.644	38.39
198.111	37.99
198.578	38.58
199.045	39.35
199.511	39.42
199.978	39.1
200.445	39.42
200.911	39.67
201.378	39.94
201.844	39.97
202.31	39.57
202.777	39.6
203.243	39.66
203.709	39.6
204.176	38.98
204.642	38.82
205.108	38.94
205.574	38.48
206.04	37.8
206.506	37.1
206.972	36.84
207.438	36.52
207.903	35.9
208.369	35.17
208.835	34.59
209.301	33.91
209.766	32.83
210.232	31.83
210.697	30.95
211.163	30.39
211.628	29.89
212.094	29.21
212.559	28.67
213.024	28.05
213.49	27.55
213.955	26.78
214.42	26.39
214.885	25.84
215.35	24.9
215.815	23.91
216.28	22.3
216.745	20.5
217.21	18.67
217.675	17
218.14	15.57
218.604	14.26
219.069	13.29
219.534	12.43
219.998	11.73
220.463	11.22
220.927	10.66
221.392	10.28
221.856	9.94
222.32	9.68
222.785	9.46
223.249	9.26
223.713	9.08
224.177	8.9
224.642	8.72
225.106	8.52
225.57	8.32
226.034	8.2
226.497	8.03
226.961	7.91
227.425	7.75
227.889	7.62
228.353	7.49
228.816	7.36
229.28	7.23
229.744	7.12
230.207	7.02
230.671	6.92
231.134	6.79
231.597	6.72
232.061	6.63
232.524	6.56
232.987	6.47
233.45	6.41
233.914	6.33
234.377	6.25
234.84	6.19
235.303	6.13
235.766	6.07
236.229	6.02
236.691	5.95
237.154	5.89
237.617	5.83
238.08	5.77
238.542	5.7
239.005	5.65
239.468	5.6
239.93	5.55
240.393	5.5
240.855	5.43
241.317	5.38
241.78	5.33
242.242	5.27
242.704	5.22
243.166	5.18
243.629	5.14
244.091	5.08
244.553	5.04
245.015	4.99
245.477	4.94
245.939	4.91
246.4	4.87
246.862	4.82
247.324	4.78
247.786	4.74
248.247	4.7
248.709	4.65
249.17	4.6
249.632	4.57
250.093	4.54
250.555	4.49
251.016	4.46
251.477	4.42
251.939	4.39
252.4	4.35
252.861	4.33
253.322	4.3
253.783	4.28
254.244	4.27
254.705	4.23
255.166	4.21
255.627	4.18
256.088	4.16
256.549	4.14
257.009	4.11
257.47	4.09
257.931	4.06
258.391	4.03
258.852	4
259.312	3.97
259.773	3.94
260.233	3.92
260.694	3.9
261.154	3.87
261.614	3.84
262.074	3.82
262.534	3.79
262.994	3.77
263.455	3.75
263.915	3.74
264.374	3.72
264.834	3.71
265.294	3.69
265.754	3.68
266.214	3.67
266.673	3.66
267.133	3.66
267.593	3.65
268.052	3.64
268.512	3.63
268.971	3.63
269.431	3.62
269.89	3.61
270.349	3.6
270.809	3.59
271.268	3.59
271.727	3.58
272.186	3.57
272.645	3.57
273.104	3.55
273.563	3.55
274.022	3.54
274.481	3.53
274.94	3.53
275.399	3.52
275.857	3.51
276.316	3.5
276.775	3.5
277.233	3.49
277.692	3.48
278.15	3.48
278.609	3.48
279.067	3.48
279.525	3.47
279.984	3.46
280.442	3.45
280.9	3.45
281.358	3.44
281.816	3.44
282.274	3.43
282.732	3.42
283.19	3.41
283.648	3.4
284.106	3.39
284.564	3.39
285.021	3.39
285.479	3.38
285.937	3.37
286.394	3.36
286.852	3.35
287.309	3.34
287.767	3.33
288.224	3.31
288.682	3.3
289.139	3.28
289.596	3.27
290.053	3.25
290.511	3.24
290.968	3.22
291.425	3.2
291.882	3.19
292.339	3.18
292.796	3.18
293.252	3.17
293.709	3.17
294.166	3.16
294.623	3.15
295.079	3.14
295.536	3.14
295.992	3.14
296.449	3.13
296.905	3.13
297.362	3.12
297.818	3.11
298.274	3.11
298.731	3.1
299.187	3.09
299.643	3.09
300.099	3.08
300.555	3.08
301.011	3.06
301.467	3.06
301.923	3.05
302.379	3.05
302.835	3.05
303.291	3.05
303.746	3.04
304.202	3.04
304.658	3.03
305.113	3.03
305.569	3.03
306.024	3.03
306.479	3.02
306.935	3.02
307.39	3.01
307.845	3.01
308.301	3.01
308.756	3.01
309.211	3
309.666	3
310.121	3
310.576	3
311.031	2.99
311.486	3
311.94	3.01
312.395	3.01
312.85	3
313.305	3
313.759	3
314.214	3
314.668	2.99
315.123	2.99
315.577	2.99
316.032	2.99
316.486	2.98
316.94	2.97
317.394	2.96
317.849	2.95
318.303	2.94
318.757	2.93
319.211	2.93
319.665	2.92
320.119	2.9
320.572	2.89
321.026	2.88
321.48	2.86
321.934	2.85
322.387	2.84
322.841	2.83
323.295	2.83
323.748	2.83
324.202	2.82
324.655	2.82
325.108	2.82
325.562	2.82
326.015	2.82
326.468	2.82
326.921	2.82
327.374	2.82
327.827	2.83
328.28	2.82
328.733	2.83
329.186	2.83
329.639	2.84
330.092	2.83
330.545	2.84
330.997	2.83
331.45	2.83
331.903	2.84
332.355	2.85
332.808	2.85
333.26	2.84
333.713	2.83
334.165	2.83
334.617	2.82
335.069	2.82
335.522	2.83
335.974	2.83
336.426	2.82
336.878	2.81
337.33	2.8
337.782	2.8
338.234	2.8
338.686	2.8
339.137	2.81
339.589	2.8
340.041	2.8
340.493	2.79
340.944	2.78
341.396	2.77
341.847	2.77
342.299	2.76
342.75	2.75
343.201	2.74
343.653	2.73
344.104	2.71
344.555	2.7
345.006	2.69
345.457	2.69
345.908	2.68
346.359	2.68
346.81	2.68
347.261	2.68
347.712	2.67
348.163	2.67
348.613	2.67
349.064	2.68
349.515	2.68
349.965	2.68
350.416	2.68
350.866	2.68
351.317	2.66
351.767	2.67
352.217	2.67
352.668	2.66
353.118	2.66
353.568	2.66
354.018	2.66
354.468	2.66
354.918	2.66
355.368	2.66
355.818	2.66
356.268	2.66
356.718	2.66
357.168	2.65
357.617	2.65
358.067	2.65
358.517	2.66
358.966	2.67
359.416	2.67
359.865	2.67
360.315	2.67
360.764	2.67
361.213	2.67
361.663	2.66
362.112	2.67
362.561	2.68
363.01	2.67
363.459	2.67
363.908	2.67
364.357	2.67
364.806	2.66
365.255	2.66
365.703	2.68
366.152	2.69
366.601	2.7
367.05	2.7
367.498	2.7
367.947	2.71
368.395	2.72
368.844	2.72
369.292	2.72
369.74	2.73
370.189	2.73
370.637	2.73
371.085	2.73
371.533	2.74
371.981	2.75
372.429	2.77
372.877	2.78
373.325	2.8
373.773	2.81
374.221	2.82
374.669	2.84
375.116	2.86
375.564	2.89
376.012	2.91
376.459	2.95
376.907	2.98
377.354	3.01
377.801	3.05
378.249	3.08
378.696	3.13
379.143	3.17
379.591	3.22
380.038	3.27
380.485	3.33
380.932	3.37
381.379	3.42
381.826	3.47
382.273	3.53
382.72	3.58
383.166	3.66
383.613	3.72
384.06	3.78
384.506	3.84
384.953	3.91
385.4	3.98
385.846	4.05
386.292	4.12
386.739	4.19
387.185	4.26
387.631	4.34
388.078	4.42
388.524	4.5
388.97	4.58
389.416	4.66
389.862	4.73
390.308	4.81
390.754	4.9
391.2	4.98
391.645	5.05
392.091	5.13
392.537	5.2
392.983	5.26
393.428	5.34
393.874	5.4
394.319	5.46
394.765	5.53
395.21	5.58
395.655	5.63
396.101	5.69
396.546	5.75
396.991	5.8
397.436	5.85
397.881	5.92
398.326	5.97
398.771	6.02
399.216	6.05
399.661	6.09
400.106	6.11
400.551	6.13
400.995	6.14
401.44	6.15
401.885	6.16
402.329	6.17
402.774	6.16
403.218	6.16
403.663	6.16
404.107	6.16
404.551	6.15
404.995	6.15
405.44	6.14
405.884	6.13
406.328	6.13
406.772	6.11
407.216	6.1
407.66	6.07
408.104	6.04
408.547	6.03
408.991	6.02
409.435	5.99
409.879	5.97
410.322	5.98
410.766	5.97
411.209	5.96
411.653	5.95
412.096	5.94
412.54	5.93
412.983	5.91
413.426	5.92
413.869	5.92
414.312	5.92
414.756	5.92
415.199	5.91
415.642	5.89
416.085	5.87
416.527	5.86
416.97	5.83
417.413	5.81
417.856	5.81
418.298	5.78
418.741	5.75
419.184	5.73
419.626	5.71
420.069	5.7
420.511	5.68
420.953	5.68
421.396	5.66
421.838	5.64
422.28	5.63
422.722	5.62
423.164	5.59
423.606	5.58
424.048	5.56
424.49	5.54
424.932	5.5
425.374	5.46
425.816	5.41
426.258	5.39
426.699	5.37
427.141	5.35
427.582	5.33
428.024	5.31
428.465	5.28
428.907	5.25
429.348	5.22
429.789	5.21
430.231	5.21
430.672	5.21
431.113	5.21
431.554	5.2
431.995	5.19
432.436	5.18
432.877	5.17
433.318	5.18
433.759	5.2
434.2	5.22
434.64	5.21
435.081	5.22
435.522	5.22
435.962	5.23
436.403	5.26
436.843	5.29
437.284	5.3
437.724	5.32
438.164	5.33
438.604	5.37
439.045	5.39
439.485	5.43
439.925	5.45
440.365	5.5
440.805	5.54
441.245	5.59
441.685	5.65
442.125	5.72
442.564	5.77
443.004	5.83
443.444	5.89
443.883	5.96
444.323	6.02
444.762	6.09
445.202	6.14
445.641	6.23
446.081	6.29
446.52	6.34
446.959	6.43
447.398	6.51
447.837	6.57
448.276	6.64
448.716	6.72
449.154	6.82
449.593	6.89
450.032	6.95
450.471	7
450.91	7.05
451.349	7.12
451.787	7.16
452.226	7.19
452.664	7.24
453.103	7.28
453.541	7.3
453.98	7.33
454.418	7.35
454.856	7.37
455.295	7.39
455.733	7.4
456.171	7.42
456.609	7.43
457.047	7.43
457.485	7.45
457.923	7.46
458.361	7.47
458.798	7.48
459.236	7.5
459.674	7.49
460.111	7.49
460.549	7.51
460.987	7.51
461.424	7.52
461.862	7.54
462.299	7.55
462.736	7.55
463.173	7.55
463.611	7.56
464.048	7.56
464.485	7.58
464.922	7.58
465.359	7.58
465.796	7.6
466.233	7.61
466.67	7.6
467.106	7.61
467.543	7.63
467.98	7.62
468.416	7.61
468.853	7.61
469.29	7.61
469.726	7.61
470.162	7.61
470.599	7.61
471.035	7.61
471.471	7.61
471.907	7.61
472.344	7.61
472.78	7.63
473.216	7.63
473.652	7.65
474.088	7.64
474.523	7.65
474.959	7.66
475.395	7.65
475.831	7.67
476.266	7.69
476.702	7.68
477.138	7.68
477.573	7.68
478.008	7.7
478.444	7.7
478.879	7.73
479.314	7.74
479.75	7.75
480.185	7.77
480.62	7.78
481.055	7.79
481.49	7.8
481.925	7.83
482.36	7.87
482.795	7.89
483.229	7.92
483.664	7.95
484.099	7.97
484.534	8.02
484.968	8.08
485.403	8.12
485.837	8.18
486.271	8.25
486.706	8.32
487.14	8.38
487.574	8.45
488.009	8.53
488.443	8.62
488.877	8.73
489.311	8.82
489.745	8.93
490.179	9.05
490.613	9.16
491.046	9.28
491.48	9.41
491.914	9.54
492.348	9.68
492.781	9.84
493.215	9.99
493.648	10.14
494.082	10.3
494.515	10.46
494.948	10.65
495.382	10.83
495.815	11.01
496.248	11.21
496.681	11.42
497.114	11.62
497.547	11.83
497.98	12.05
498.413	12.27
498.846	12.49
499.279	12.73
499.711	12.96
500.144	13.21
500.577	13.47
501.009	13.72
501.442	13.99
501.874	14.26
502.306	14.53
502.739	14.83
503.171	15.12
503.603	15.42
504.036	15.72
504.468	16.03
504.9	16.33
505.332	16.65
505.764	16.98
506.196	17.31
506.627	17.64
507.059	17.99
507.491	18.32
507.923	18.67
508.354	19.03
508.786	19.39
509.217	19.76
509.649	20.11
510.08	20.47
510.512	20.84
510.943	21.2
511.374	21.55
511.805	21.91
512.237	22.27
512.668	22.62
513.099	22.96
513.53	23.31
513.961	23.64
514.391	24.01
514.822	24.37
515.253	24.7
515.684	25.04
516.114	25.38
516.545	25.72
516.975	26.06
517.406	26.38
517.836	26.7
518.267	27
518.697	27.31
519.127	27.59
519.558	27.88
519.988	28.17
520.418	28.45
520.848	28.72
521.278	28.96
521.708	29.3
522.138	29.54
522.567	29.78
522.997	30.03
523.427	30.26
523.857	30.48
524.286	30.67
524.716	30.85
525.145	31.05
525.575	31.23
526.004	31.42
526.433	31.52
526.863	31.69
527.292	31.86
527.721	32.02
528.15	32.16
528.579	32.3
529.008	32.45
529.437	32.59
529.866	32.71
530.295	32.82
530.724	32.95
531.152	33.06
531.581	33.16
532.01	33.23
532.438	33.33
532.867	33.43
533.295	33.5
533.723	33.56
534.152	33.62
534.58	33.7
535.008	33.76
535.436	33.81
535.865	33.84
536.293	33.9
536.721	33.95
537.149	34
537.576	34.03
538.004	34.08
538.432	34.11
538.86	34.16
539.287	34.17
539.715	34.22
540.143	34.25
540.57	34.28
540.998	34.29
541.425	34.32
541.852	34.35
542.28	34.37
542.707	34.39
543.134	34.43
543.561	34.46
543.988	34.48
544.415	34.47
544.842	34.49
545.269	34.53
545.696	34.55
546.123	34.56
546.549	34.57
546.976	34.59
547.403	34.59
547.829	34.58
548.256	34.58
548.682	34.6
549.108	34.62
549.535	34.63
549.961	34.6
550.387	34.59
550.813	34.6
551.24	34.6
551.666	34.6
552.092	34.6
552.518	34.59
552.943	34.57
553.369	34.53
553.795	34.51
554.221	34.49
554.646	34.48
555.072	34.46
555.498	34.42
555.923	34.36
556.349	34.31
556.774	34.25
557.199	34.22
557.625	34.17
558.05	34.12
558.475	34.07
558.9	34.02
559.325	33.98
559.75	33.9
560.175	33.84
560.6	33.76
561.025	33.69
561.449	33.62
561.874	33.53
562.299	33.45
562.723	33.35
563.148	33.25
563.572	33.15
563.997	33.04
564.421	32.94
564.846	32.83
565.27	32.73
565.694	32.64
566.118	32.53
566.542	32.42
566.966	32.31
567.39	32.21
567.814	32.11
568.238	31.96
568.662	31.85
569.086	31.74
569.509	31.63
569.933	31.52
570.357	31.39
570.78	31.27
571.204	31.16
571.627	31.04
572.05	30.92
572.474	30.81
572.897	30.72
573.32	30.6
573.743	30.48
574.166	30.37
574.589	30.27
575.012	30.16
575.435	30.06
575.858	29.96
576.281	29.87
576.704	29.76
577.126	29.67
577.549	29.57
577.972	29.47
578.394	29.37
578.817	29.27
579.239	29.17
579.661	29.09
580.084	28.99
580.506	28.91
580.928	28.82
581.35	28.74
581.772	28.66
582.194	28.57
582.616	28.5
583.038	28.41
583.46	28.33
583.882	28.26
584.303	28.19
584.725	28.11
585.147	28.03
585.568	27.97
585.99	27.9
586.411	27.81
586.833	27.76
587.254	27.71
587.675	27.66
588.096	27.6
588.518	27.55
588.939	27.5
589.36	27.44
589.781	27.38
590.202	27.33
590.623	27.27
591.043	27.23
591.464	27.19
591.885	27.15
592.305	27.1
592.726	27.07
593.147	27.02
593.567	26.97
593.987	26.92
594.408	26.87
594.828	26.84
595.248	26.82
595.669	26.8
596.089	26.76
596.509	26.71
596.929	26.67
597.349	26.64
597.769	26.6
598.189	26.55
598.608	26.53
599.028	26.49
599.448	26.45
599.867	26.4
600.287	26.36
600.706	26.33
601.126	26.29
601.545	26.24
601.965	26.2
602.384	26.15
602.803	26.11
603.222	26.06
603.641	26.01
604.061	25.96
604.48	25.9
604.898	25.83
605.317	25.75
605.736	25.68
606.155	25.62
606.574	25.53
606.992	25.44
607.411	25.35
607.829	25.25
608.248	25.16
608.666	25.06
609.085	24.97
609.503	24.89
609.921	24.79
610.339	24.7
610.758	24.62
611.176	24.52
611.594	24.44
612.012	24.35
612.43	24.26
612.847	24.18
613.265	24.1
613.683	24.01
614.101	23.92
614.518	23.82
614.936	23.73
615.353	23.62
615.771	23.55
616.188	23.46
616.606	23.38
617.023	23.32
617.44	23.23
617.857	23.16
618.274	23.08
618.691	23.02
619.108	22.95
619.525	22.9
619.942	22.86
620.359	22.8
620.776	22.74
621.192	22.7
621.609	22.66
622.026	22.63
622.442	22.6
622.859	22.57
623.275	22.54
623.691	22.52
624.108	22.48
624.524	22.45
624.94	22.43
625.356	22.42
625.772	22.39
626.188	22.37
626.604	22.36
627.02	22.33
627.436	22.31
627.852	22.29
628.268	22.28
628.683	22.27
629.099	22.27
629.514	22.24
629.93	22.21
630.345	22.19
630.761	22.14
631.176	22.08
631.591	22.03
632.007	21.99
632.422	21.92
632.837	21.84
633.252	21.75
633.667	21.65
634.082	21.54
634.497	21.43
634.911	21.32
635.326	21.21
635.741	21.1
636.155	20.96
636.57	20.81
636.984	20.67
637.399	20.52
637.813	20.37
638.228	20.19
638.642	20.03
639.056	19.85
639.47	19.67
639.884	19.49
640.298	19.28
640.712	19.09
641.126	18.89
641.54	18.68
641.954	18.49
642.368	18.3
642.781	18.11
643.195	17.91
643.609	17.71
644.022	17.52
644.436	17.33
644.849	17.17
645.262	16.99
645.676	16.82
646.089	16.67
646.502	16.52
646.915	16.37
647.328	16.24
647.741	16.12
648.154	16
648.567	15.9
648.98	15.79
649.393	15.7
649.805	15.62
650.218	15.53
650.631	15.46
651.043	15.37
651.456	15.29
651.868	15.19
652.28	15.11
652.693	15.03
653.105	14.94
653.517	14.85
653.929	14.74
654.341	14.62
654.753	14.49
655.165	14.35
655.577	14.23
655.989	14.09
656.401	13.94
656.813	13.79
657.224	13.61
657.636	13.43
658.047	13.24
658.459	13.05
658.87	12.84
659.282	12.64
659.693	12.44
660.104	12.22
660.515	12
660.926	11.79
661.338	11.58
661.749	11.38
662.159	11.17
662.57	10.97
662.981	10.78
663.392	10.6
663.803	10.4
664.213	10.22
664.624	10.04
665.035	9.88
665.445	9.71
665.855	9.54
666.266	9.39
666.676	9.26
667.086	9.12
667.497	8.98
667.907	8.85
668.317	8.74
668.727	8.64
669.137	8.55
669.547	8.46
669.956	8.38
670.366	8.32
670.776	8.25
671.186	8.19
671.595	8.14
672.005	8.1
672.414	8.07
672.824	8.04
673.233	8.04
673.642	8.02
674.052	8.01
674.461	8.01
674.87	8.01
675.279	8.03
675.688	8.05
676.097	8.08
676.506	8.12
676.915	8.17
677.323	8.23
677.732	8.29
678.141	8.37
678.549	8.46
678.958	8.57
679.366	8.71
679.775	8.85
680.183	9.03
680.592	9.26
681	9.49
681.408	9.74
681.816	10.02
682.224	10.33
682.632	10.68
683.04	11.05
683.448	11.46
683.856	11.88
684.264	12.35
684.671	12.84
685.079	13.35
685.487	13.89
685.894	14.46
686.302	15.07
686.709	15.67
687.116	16.31
687.524	16.99
687.931	17.65
688.338	18.35
688.745	19.04
689.152	19.72
689.559	20.42
689.966	21.12
690.373	21.83
690.78	22.53
691.187	23.23
691.593	23.91
692	24.56
692.407	25.2
692.813	25.85
693.22	26.48
693.626	27.11
694.032	27.72
694.439	28.32
694.845	28.91
695.251	29.46
695.657	30.01
696.063	30.53
696.469	31.05
696.875	31.56
697.281	32.04
697.687	32.51
698.093	32.96
698.498	33.4
698.904	33.83
699.31	34.21
699.715	34.61
700.12	34.97
700.526	35.34
700.931	35.7
701.337	36.04
701.742	36.36
702.147	36.66
702.552	36.97
702.957	37.24
703.362	37.51
703.767	37.79
704.172	38.04
704.577	38.29
704.981	38.54
705.386	38.77
705.791	39
706.195	39.23
706.6	39.46
707.004	39.66
707.408	39.86
707.813	40.09
708.217	40.28
708.621	40.48
709.025	40.67
709.43	40.84
709.834	41.03
710.237	41.2
710.641	41.37
711.045	41.52
711.449	41.69
711.853	41.89
712.256	42.02
712.66	42.16
713.064	42.3
713.467	42.45
713.87	42.6
714.274	42.72
714.677	42.85
715.08	42.98
715.484	43.12
715.887	43.28
716.29	43.35
716.693	43.49
717.096	43.61
717.499	43.74
717.901	43.83
718.304	43.93
718.707	44.05
719.109	44.14
719.512	44.24
719.915	44.34
720.317	44.38
720.719	44.45
721.122	44.51
721.524	44.57
721.926	44.66
722.328	44.75
722.731	44.8
723.133	44.87
723.535	44.95
723.937	45.03
724.338	45.08
724.74	45.15
725.142	45.36
725.544	45.38
725.945	45.49
726.347	45.49
726.748	45.52
727.15	45.57
727.551	45.65
727.952	45.68
728.354	45.72
728.755	45.77
729.156	45.81
729.557	45.71
729.958	45.75
730.359	45.75
730.76	45.83
731.161	45.87
731.562	45.92
731.962	45.9
732.363	45.93
732.763	45.94
733.164	45.95
733.564	45.99
733.965	46.01
734.365	46.07
734.766	46.1
735.166	46.14
735.566	46.18
735.966	46.21
736.366	46.26
736.766	46.28
737.166	46.32
737.566	46.35
737.966	46.36
738.365	46.38
738.765	46.41
739.165	46.43
739.564	46.43
739.964	46.43
740.363	46.43
740.763	46.42
741.162	46.44
741.561	46.43
741.96	46.42
742.36	46.43
742.759	46.45
743.158	46.43
743.557	46.4
743.955	46.4
744.354	46.39
744.753	46.44
745.152	46.47
745.55	46.47
745.949	46.48
746.348	46.5
746.746	46.47
747.144	46.47
747.543	46.47
747.941	46.51
748.339	46.48
748.737	46.48
749.136	46.45
749.534	46.42
749.932	46.41
750.33	46.4
750.727	46.42
751.125	46.43
751.523	46.44
751.921	46.45
752.318	46.46
752.716	46.5
753.113	46.52
753.511	46.55
753.908	46.58
754.305	46.6
754.703	46.6
755.1	46.59
755.497	46.61
755.894	46.62
756.291	46.64
756.688	46.62
757.085	46.61
757.482	46.63
757.878	46.63
758.275	46.6
758.672	46.57
759.068	46.59
759.465	46.59
759.861	46.6
760.258	46.61
760.654	46.62
761.05	46.63
761.447	46.65
761.843	46.64
762.239	46.64
762.635	46.65
763.031	46.67
763.427	46.65
763.822	46.65
764.218	46.65
764.614	46.63
765.01	46.62
765.405	46.6
765.801	46.56
766.196	46.55
766.592	46.54
766.987	46.54
767.382	46.54
767.778	46.56
768.173	46.57
768.568	46.56
768.963	46.56
769.358	46.54
769.753	46.55
770.148	46.57
770.542	46.56
770.937	46.55
771.332	46.57
771.726	46.55
772.121	46.56
772.515	46.55
772.91	46.54
773.304	46.55
773.699	46.58
774.093	46.57
774.487	46.57
774.881	46.6
775.275	46.58
775.669	46.56
776.063	46.56
776.457	46.55
776.851	46.54
777.245	46.53
777.638	46.5
778.032	46.48
778.425	46.5
778.819	46.52
779.212	46.53
779.606	46.56
779.999	46.57
780.392	46.59
780.786	46.6
781.179	46.6
781.572	46.65
781.965	46.68
782.358	46.68
782.751	46.68
783.143	46.65
783.536	46.62
783.929	46.62
784.322	46.64
784.714	46.64
785.107	46.64
785.499	46.64
785.891	46.6
786.284	46.61
786.676	46.63
787.068	46.6
787.46	46.61
787.852	46.6
788.245	46.58
788.636	46.57
789.028	46.56
789.42	46.55
789.812	46.56
790.204	46.57
790.595	46.57
790.987	46.56
791.378	46.6
791.77	46.6
792.161	46.59
792.553	46.62
792.944	46.61
793.335	46.64
793.726	46.65
794.117	46.66
794.508	46.65
794.899	46.64
795.29	46.65
795.681	46.6
796.072	46.63
796.463	46.66
796.853	46.65
797.244	46.68
797.634	46.66
798.025	46.68
798.415	46.68
798.806	46.68
799.196	46.7
799.586	46.69
799.976	46.72
800.366	46.7
800.756	46.69
801.146	46.71
801.536	46.73
801.926	46.71
802.316	46.7
802.706	46.7
803.095	46.72
803.485	46.72
803.874	46.72
804.264	46.71
804.653	46.71
805.043	46.71
805.432	46.69
805.821	46.68
806.21	46.74
806.599	46.75
806.988	46.74
807.377	46.74
807.766	46.74
808.155	46.75
808.544	46.77
808.933	46.76
809.321	46.75
809.71	46.73
810.098	46.73
810.487	46.68
810.875	46.66
811.264	46.66
811.652	46.68
812.04	46.68
812.428	46.66
812.816	46.64
813.204	46.64
813.592	46.62
813.98	46.66
814.368	46.67
814.756	46.68
815.144	46.68
815.531	46.68
815.919	46.67
816.306	46.67
816.694	46.67
817.081	46.69
817.469	46.72
817.856	46.74
818.243	46.71
818.63	46.68
819.017	46.68
819.404	46.66
819.791	46.65
820.178	46.66
820.565	46.63
820.952	46.62
821.339	46.61
821.725	46.62
822.112	46.65
822.498	46.68
822.885	46.7
823.271	46.69
823.657	46.69
824.044	46.7
824.43	46.72
824.816	46.75
825.202	46.75
825.588	46.74
825.974	46.71
826.36	46.69
826.746	46.67
827.132	46.67
827.517	46.69
827.903	46.73
828.289	46.73
828.674	46.73
829.06	46.72
829.445	46.72
829.83	46.72
830.216	46.74
830.601	46.72
830.986	46.74
831.371	46.74
831.756	46.74
832.141	46.72
832.526	46.71
832.911	46.67
833.295	46.67
833.68	46.69
834.065	46.71
834.449	46.69
834.834	46.71
835.218	46.71
835.603	46.72
835.987	46.7
836.371	46.71
836.755	46.7
837.139	46.72
837.524	46.74
837.908	46.77
838.291	46.79
838.675	46.81
839.059	46.81
839.443	46.8
839.827	46.8
840.21	46.81
840.594	46.82
840.977	46.81
841.361	46.83
841.744	46.81
842.127	46.78
842.511	46.76
842.894	46.74
843.277	46.74
843.66	46.74
844.043	46.77
844.426	46.78
844.809	46.79
845.191	46.82
845.574	46.8
845.957	46.82
846.339	46.83
846.722	46.85
847.104	46.89
847.487	46.9
847.869	46.91
848.252	46.89
848.634	46.88
849.016	46.89
849.398	46.89
849.78	46.89
850.162	46.89
850.544	46.9
850.926	46.91
851.307	46.89
851.689	46.9
852.071	46.91
852.452	46.92
852.834	46.92
853.215	46.92
853.597	46.93
853.978	46.92
854.359	46.93
854.741	46.94
855.122	46.93
855.503	46.91
855.884	46.88
856.265	46.87
856.646	46.85
857.026	46.87
857.407	46.87
857.788	46.86
858.169	46.89
858.549	46.87
858.93	46.85
859.31	46.83
859.69	46.83
860.071	46.87
860.451	46.86
860.831	46.87
861.211	46.84
861.591	46.82
861.971	46.82
862.351	46.82
862.731	46.82
863.111	46.82
863.491	46.83
863.87	46.84
864.25	46.81
864.629	46.82
865.009	46.83
865.388	46.84
865.768	46.84
866.147	46.83
866.526	46.81
866.905	46.83
867.284	46.85
867.663	46.87
868.042	46.87
868.421	46.9
868.8	46.91
869.179	46.9
869.558	46.91
869.936	46.92
870.315	46.93
870.693	46.96
871.072	46.95
871.45	46.95
871.828	46.94
872.207	46.95
872.585	46.93
872.963	46.94
873.341	46.94
873.719	46.94
874.097	46.94
874.475	46.95
874.853	46.94
875.23	46.95
875.608	46.95
875.986	46.98
876.363	46.97
876.741	46.99
877.118	46.99
877.495	47
877.873	47.01
878.25	47.05
878.627	47.06
879.004	47.06
879.381	47.05
879.758	47.02
880.135	46.98
880.512	46.97
880.889	46.97
881.265	46.94
881.642	46.93
882.019	46.93
882.395	46.89
882.772	46.86
883.148	46.84
883.524	46.84
883.901	46.87
884.277	46.87
884.653	46.86
885.029	46.85
885.405	46.88
885.781	46.88
886.157	46.89
886.532	46.9
886.908	46.9
887.284	46.91
887.659	46.88
888.035	46.87
888.411	46.87
888.786	46.9
889.161	46.9
889.537	46.9
889.912	46.88
890.287	46.87
890.662	46.84
891.037	46.84
891.412	46.81
891.787	46.82
892.162	46.82
892.536	46.81
892.911	46.79
893.286	46.78
893.66	46.77
894.035	46.78
894.409	46.77
894.784	46.79
895.158	46.79
895.532	46.83
895.906	46.83
896.281	46.82
896.655	46.83
897.029	46.85
897.402	46.84
897.776	46.87
898.15	46.87
898.524	46.9
898.898	46.9
899.271	46.9
899.645	46.89
900.018	46.92
900.392	46.93
900.765	46.93
901.138	46.9
901.511	46.92
901.884	46.89
902.258	46.89
902.631	46.87
903.003	46.9
903.376	46.89
903.749	46.9
904.122	46.9
904.495	46.9
904.867	46.9
905.24	46.94
905.612	46.96
905.985	46.98
906.357	46.97
906.729	46.99
907.102	46.96
907.474	46.99
907.846	46.99
908.218	46.99
908.59	47.01
908.962	47.01
909.334	46.98
909.705	46.96
910.077	46.96
910.449	46.97
910.82	46.95
911.192	46.95
911.563	46.92
911.935	46.91
912.306	46.89
912.677	46.86
913.048	46.87
913.419	46.89
913.79	46.9
914.161	46.9
914.532	46.89
914.903	46.91
915.274	46.9
915.645	46.92
916.015	46.9
916.386	46.91
916.756	46.93
917.127	46.93
917.497	46.91
917.868	46.9
918.238	46.9
918.608	46.88
918.978	46.86
919.348	46.87
919.718	46.87
920.088	46.9
920.458	46.91
920.828	46.87
921.198	46.86
921.567	46.88
921.937	46.89
922.306	46.89
922.676	46.89
923.045	46.91
923.415	46.87
923.784	46.85
924.153	46.84
924.522	46.86
924.891	46.88
925.26	46.89
925.629	46.89
925.998	46.88
926.367	46.88
926.736	46.9
927.104	46.9
927.473	46.89
927.842	46.9
928.21	46.92
928.578	46.88
928.947	46.89
929.315	46.84
929.683	46.82
930.051	46.79
930.42	46.79
930.788	46.77
931.156	46.73
931.523	46.75
931.891	46.76
932.259	46.76
932.627	46.75
932.994	46.74
933.362	46.76
933.729	46.76
934.097	46.76
934.464	46.79
934.831	46.78
935.199	46.83
935.566	46.84
935.933	46.76
936.3	46.74
936.667	46.76
937.034	46.82
937.401	46.83
937.767	46.85
938.134	46.85
938.501	46.83
938.867	46.88
939.234	46.87
939.6	46.85
939.967	46.96
940.333	46.94
940.699	46.97
941.065	46.88
941.431	46.87
941.798	46.83
942.163	46.82
942.529	46.8
942.895	46.77
943.261	46.73
943.627	46.73
943.992	46.69
944.358	46.63
944.723	46.58
945.089	46.57
945.454	46.59
945.82	46.58
946.185	46.59
946.55	46.54
946.915	46.53
947.28	46.48
947.645	46.49
948.01	46.51
948.375	46.56
948.74	46.53
949.104	46.6
949.469	46.53
949.834	46.53
950.198	46.51
950.562	46.49
950.927	46.46
951.291	46.38
951.655	46.31
952.02	46.26
952.384	46.2
952.748	46.2
953.112	46.16
953.476	46.14
953.839	46.1
954.203	46.09
954.567	46.06
954.931	46.07
955.294	46.13
955.658	46.23
956.021	46.25
956.385	46.24
956.748	46.22
957.111	46.18
957.474	46.22
957.837	46.22
958.2	46.23
958.563	46.23
958.926	46.2
959.289	46.19
959.652	46.11
960.015	46.09
960.377	46.09
960.74	46.12
961.102	46.12
961.465	46.17
961.827	46.25
962.189	46.27
962.552	46.3
962.914	46.31
963.276	46.31
963.638	46.31
964	46.27
964.362	46.26
964.724	46.2
965.085	46.19
965.447	46.14
965.809	46.07
966.17	46.05
966.532	46.04
966.893	46.04
967.255	46.01
967.616	46.02
967.977	46.08
968.338	46.07
968.699	46.13
969.061	46.15
969.421	46.16
969.782	46.14
970.143	46.14
970.504	46.12
970.865	46.13
971.225	46.15
971.586	46.11
971.946	46.07
972.307	46.11
972.667	46.04
973.027	45.99
973.388	45.94
973.748	45.95
974.108	45.96
974.468	45.99
974.828	46.05
975.188	46.09
975.548	46.11
975.907	46.13
976.267	46.15
976.627	46.22
976.986	46.22
977.346	46.22
977.705	46.19
978.064	46.18
978.424	46.19
978.783	46.09
979.142	46.07
979.501	46.04
979.86	46.07
980.219	46.04
980.578	45.95
980.937	46.03
981.296	46.02
981.654	46.08
982.013	46.05
982.371	46.01
982.73	46.03
983.088	45.99
983.447	46
983.805	45.99
984.163	45.98
984.521	46
984.879	45.9
985.237	45.94
985.595	45.96
985.953	45.97
986.311	45.95
986.669	46
987.026	45.97
987.384	45.97
987.741	45.96
988.099	45.99
988.456	45.95
988.814	46.02
989.171	46.01
989.528	45.99
989.885	46.02
990.242	46.03
990.599	46
990.956	46.09
991.313	46.14
991.67	46.08
992.027	46.24
992.383	46.29
992.74	46.32
993.096	46.35
993.453	46.4
993.809	46.3
994.165	46.35
994.522	46.37
994.878	46.38
995.234	46.37
995.59	46.39
995.946	46.21
996.302	46.25
996.658	46.25
997.013	46.2
997.369	46.17
997.725	46.27
998.08	46.25
998.436	46.29
998.791	46.21
999.147	46.13
999.502	46.22
999.857	46.2
1000.212	46.16
1000.567	46.09
1000.922	46.04
1001.277	46
1001.632	45.91
1001.987	45.95
1002.342	45.8
1002.696	45.83
1003.051	46.01
1003.406	46.05
1003.76	45.98
1004.114	45.89
1004.469	45.99
1004.823	46.41
1005.177	46.44
1005.531	46.5
1005.885	46.43
1006.239	46.54
1006.593	46.58
1006.947	46.49
1007.301	46.2
1007.655	46.31
1008.008	46.46
1008.362	46.42
1008.715	46.19
1009.069	46.24
1009.422	46.2
1009.776	46.2
1010.129	46.23
1010.482	46.25
1010.835	46.2
1011.188	46.39
1011.541	46.3
1011.894	46.32
1012.247	46.31
1012.6	46.11
1012.952	45.96
1013.305	46.14
1013.657	46.27
1014.01	46.25
1014.362	46.2
1014.715	46.41
1015.067	46.58
1015.419	46.79
1015.771	46.67
1016.123	46.71
1016.475	46.9
1016.827	46.99
1017.179	46.98
1017.531	46.85
1017.883	46.84
1018.234	46.98
1018.586	47.03
1018.938	47.08
1019.289	46.92
1019.64	47.05
1019.992	46.94
1020.343	46.94
1020.694	47.06
1021.045	46.96
1021.396	47.06
1021.747	47.06
1022.098	47.02
1022.449	46.71
1022.8	46.61
1023.151	46.74
1023.501	46.7
1023.852	46.86
1024.202	46.66
1024.553	46.52
1024.903	46.67
1025.253	46.85
1025.604	47.02
1025.954	46.94
1026.304	46.99
1026.654	46.91
1027.004	46.77
1027.354	46.58
1027.703	46.37
1028.053	46.7
1028.403	46.94
1028.753	46.51
1029.102	46.24
1029.452	45.96
1029.801	45.92
1030.15	45.9
1030.499	45.79
897.758	1248.43
901.051	1262.37
904.343	1254.32
907.636	1278.93
910.928	1243.52
914.22	1243.63
917.511	1227.33
920.803	1176.62
924.094	1168.24
927.384	1138.25
930.675	1096.16
933.965	1090.4
937.255	1023.67
940.544	985.54
943.834	938.89
947.123	931.42
950.411	878.39
953.7	860.16
956.988	815.53
960.276	783.04
963.563	771.92
966.851	746.22
970.138	740.12
973.424	718.18
976.711	721.24
979.997	684.76
983.283	682.37
986.568	667.53
989.853	647.53
993.138	634.12
996.423	610.35
999.708	591.67
1002.992	584.81
1006.275	558.47
1009.559	553.62
1012.842	533.19
1016.125	519.41
1019.408	510.21
1022.69	502.36
1025.972	492.12
1029.254	481.17
1032.536	473.5
1035.817	464.49
1039.098	458.78
1042.379	450.54
1045.659	444.55
1048.939	434.86
1052.219	425.58
1055.498	418.57
1058.778	409.17
1062.057	400.56
1065.335	396.5
1068.614	391.53
1071.892	387.05
1075.17	374.04
1078.447	366.3
1081.724	363.88
1085.001	360.97
1088.278	353.56
1091.554	346.83
1094.83	347.3
1098.106	344.46
1101.382	341.41
1104.657	339.66
1107.932	334.35
1111.206	336.14
1114.481	327.95
1117.755	325.07
1121.029	322.2
1124.302	322.86
1127.575	315.29
1130.848	312.11
1134.121	308.75
1137.393	306.85
1140.665	299.73
1143.937	297.52
1147.208	296.65
1150.48	295.74
1153.75	292.19
1157.021	288.11
1160.291	286.94
1163.561	285.76
1166.831	284.61
1170.101	282.75
1173.37	282
1176.639	282.93
1179.907	280.24
1183.176	276.65
1186.444	276.94
1189.711	276.13
1192.979	275.25
1196.246	274.77
1199.513	274.71
1202.78	273.51
1206.046	272.97
1209.312	271.24
1212.578	271.1
1215.843	274.04
1219.108	272.74
1222.373	277.78
1225.638	279.83
1228.902	283.7
1232.166	283.8
1235.43	286.55
1238.693	290.23
1241.956	292.26
1245.219	296.39
1248.482	296.33
1251.744	295.67
1255.006	296.7
1258.268	288.93
1261.529	286.48
1264.79	285.65
1268.051	283.36
1271.312	279.11
1274.572	276.18
1277.832	272.74
1281.092	268.48
1284.351	266.79
1287.61	266.91
1290.869	262.7
1294.128	261.82
1297.386	261.2
1300.644	257.12
1303.902	258.56
1307.159	257.79
1310.416	257.66
1313.673	258.12
1316.93	260.12
1320.186	260.07
1323.442	260.65
1326.697	265.09
1329.953	265.89
1333.208	267.57
1336.463	271.24
1339.717	271.06
1342.972	274.55
1346.226	276.55
1349.479	276.99
1352.733	278.99
1355.986	280.64
1359.238	280.61
1362.491	282.23
1365.743	285.3
1368.995	284.85
1372.247	283.52
1375.498	283.89
1378.749	286.69
1382	283.89
1385.251	284.37
1388.501	282.83
1391.751	283.51
1395	282.53
1398.25	280.73
1401.499	278.74
1404.748	278.4
1407.996	277.86
1411.244	276.34
1414.492	274.28
1417.74	271.99
1420.987	268.57
1424.234	268.1
1427.481	264.98
1430.728	264.57
1433.974	261.59
1437.22	259.5
1440.465	259.26
1443.711	256.59
1446.956	254.43
1450.201	251.38
1453.445	249.05
1456.689	248.5
1459.933	244.72
1463.177	242.36
1466.42	238.28
1469.663	235.77
1472.906	234.59
1476.148	228.47
1479.391	225.83
1482.633	224.33
1485.874	221.24
1489.115	219.94
1492.356	217.18
1495.597	216.78
1498.838	214.27
1502.078	213.52
1505.318	212.35
1508.557	212.18
1511.797	211.69
1515.036	210.57
1518.274	209.62
1521.513	207.76
1524.751	207.6
1527.989	206.79
1531.227	205.64
1534.464	205.91
1537.701	204.2
1540.938	203.93
1544.174	201.69
1547.41	201.49
1550.646	200.14
1553.882	200.26
1557.117	197.91
1560.352	196.84
1563.587	196.31
1566.821	194.68
1570.055	193.03
1573.289	191.6
1576.523	191.35
1579.756	189.43
1582.989	188.52
1586.222	188.63
1589.454	187.29
1592.686	188.46
1595.918	187.68
1599.15	186.97
1602.381	187.62
1605.612	187.12
1608.843	187.93
1612.073	187.19
1615.303	188.61
1618.533	188.69
1621.762	187.76
1624.992	188.37
1628.221	187.99
1631.449	187.72
1634.678	187.47
1637.906	188.31
1641.134	188.3
1644.361	187.9
1647.588	188.8
1650.815	187.72
1654.042	186.85
1657.269	188.41
1660.495	188.35
1663.72	188.18
1666.946	188.6
1670.171	189.01
1673.396	188.49
1676.621	188.58
1679.845	189.31
1683.069	189.05
1686.293	190.56
1689.517	191.84
1692.74	191.49
1695.963	191.6
1699.185	193.39
1702.408	193.45
1705.63	194.41
1708.852	194.84
1712.073	195.21
1715.294	195.39
1718.515	196.7
1721.736	196.06
1724.956	196.4
1728.176	196.54
1731.396	198.4
1734.616	197.48
1737.835	198.71
1741.054	197.13
1744.272	197.66
1747.491	199.65
1750.709	199.83
1753.927	199.49
1757.144	199.36
1760.361	200.15
1763.578	200.87
1766.795	200.16
1770.011	201.57
1773.227	201.26
1776.443	203.97
1779.658	204.84
1782.874	203.8
1786.089	204.95
1789.303	205.84
1792.518	208.19
1795.732	208.44
1798.945	209.78
1802.159	210.73
1805.372	211.32
1808.585	215.07
1811.797	215.51
1815.01	215.62
1818.222	217.96
1821.434	219.28
1824.645	219.96
1827.856	223.14
1831.067	224.65
1834.278	224.13
1837.488	225.65
1840.698	227.27
1843.908	224.94
1847.117	226.09
1850.326	227.59
1853.535	226.69
1856.744	230.03
1859.952	229.71
1863.16	228.13
1866.368	227.41
1869.575	230.48
1872.782	226.07
1875.989	225.31
1879.196	224.51
1882.402	222.86
1885.608	223.39
1888.814	223.77
1892.019	222
1895.224	220.91
1898.429	220.01
1901.634	220.33
1904.838	219.83
1908.042	222.23
1911.246	222.8
1914.449	224.05
1917.652	224.21
1920.855	223.88
1924.058	223.74
1927.26	222.71
1930.462	223.99
1933.664	226.25
1936.865	224.17
1940.066	223.59
1943.267	223.05
1946.467	221.97
1949.668	223.44
1952.868	225.83
1956.067	225.79
1959.267	226.41
1962.466	227.29
1965.665	226.72
1968.863	227.27
1972.061	231.07
1975.259	233.29
1978.457	235.11
1981.654	237.22
1984.852	237.46
1988.048	236.97
1991.245	238.94
1994.441	242.18
1997.637	244.03
2000.833	248.44
2004.028	251.56
2007.223	252.86
2010.418	255.29
2013.613	259.79
2016.807	262.89
2020.001	264.95
2023.194	269.46
2026.388	275.18
2029.581	281.22
2032.774	283.51
2035.966	289.81
2039.158	290.55
2042.35	296.49
2045.542	297.82
2048.733	302.03
2051.924	306.65
2055.115	312.46
2058.306	312.77
2061.496	316.09
2064.686	315.8
2067.875	321.64
2071.065	321.25
2074.254	319.61
2077.442	323.3
2080.631	325.46
2083.819	328.58
2087.007	328.93
2090.195	332.35
2093.382	335.12
2096.569	333.27
2099.756	339.05
2102.942	339.73
2106.128	342.78
2109.314	351.13
2112.5	349.47
2115.685	357.22
2118.87	357.67
2122.055	363.75
2125.239	366.8
2128.424	371.93
2131.608	374.5
2134.791	378.38
2137.974	380.11
2141.157	381.3
2144.34	382.06
2147.523	387.64
2150.705	384.71
2153.887	388.26
2157.068	389.65
2160.25	385.65
2163.431	387.11
2166.611	391.59
2169.792	399.12
2172.972	402.84
2176.152	405.19
2179.331	409.99
2182.511	417.26
2185.69	420.96
2188.868	429.63
2192.047	430.57
2195.225	443.28
2198.403	453.91
2201.58	461.97
2204.758	469.13
2207.935	478.75
2211.111	489.02
2214.288	494.76
2217.464	494.66
2220.64	505.66
2223.815	512.01
2226.991	532.04
2230.166	532.57
2233.34	541.6
2236.515	551.8
2239.689	552.33
2242.863	555.91
2246.036	571.37
2249.209	567.42
2252.382	578.01
2255.555	593.07
2258.727	595.08
2261.9	599.01
2265.071	605.28
2268.243	615.89
2271.414	621.35
2274.585	635.12
2277.756	641.92
2280.926	646.8
2284.096	661.31
2287.266	675.45
2290.436	679.46
2293.605	694.12
2296.774	714.84
2299.942	736.36
2303.111	741.03
2306.279	755.86
2309.447	767.19
2312.614	786.16
2315.781	806.98
2318.948	843.29
2322.115	831.94
2325.281	876.57
2328.447	860.21
2331.613	895.39
2334.779	884.73
2337.944	922.04
2341.109	933.7
2344.274	959.63
2347.438	991.38
2350.602	989.67
2353.766	1021.99
2356.929	1034.88
2360.092	1029.23
2363.255	1102.24
2366.418	1098.94
2369.58	1122.74
2372.742	1189.98
2375.904	1220.27
2379.066	1211.17
2382.227	1193.83
2385.388	1295.26
2388.548	1294.84
2391.709	1312.26
2394.869	1457.51
2398.029	1400.12
2401.188	1439.42
2404.347	1427.77
2407.506	1404.46
2410.665	1446.83
2413.823	1530.32
2416.981	1617.86
2420.139	1566.95
2423.296	1545.73
2426.453	1615.95
2429.61	1556.28
2432.767	1622.51
2435.923	1602.23
2439.079	1759.36
2442.235	1779.98
2445.391	1762.34
2448.546	1749.68
2451.701	1697.5
2454.855	1694.89
2458.009	1801.76
2461.163	1874.49
2464.317	1943.67
2467.471	1993.19
2470.624	2002.52
2473.777	1944.44
2476.929	1898.57
2480.082	1840.1
2483.234	1824.15
2486.385	1921.98
2489.537	1928.04
2492.688	2000.43
2495.839	1942.89
2498.989	1901.01
2502.14	1914.08
2505.29	1921.04
2508.439	1957.43
2511.589	1950.72
2514.738	2128.38
2517.887	2080.07
2521.035	2188.85
2524.183	2219.13
2527.331	2234.79
2530.479	2224.57
2533.627	2240.4
