Data from N_2_DEC_CT_2N_Splice17_13-31-28-898.txt Node
Date: Sat Mar 07 13:31:28 EST 2020
User: sa697716
Spectrometer: NQ5500242
Trigger mode: 0
Integration Time (sec): 1.450000E-1
Scans to average: 20
Nonlinearity correction enabled: false
Boxcar width: 5
Storing dark spectrum: false
XAxis mode: Wavelengths
Number of Pixels in Spectrum: 512
>>>>>Begin Spectral Data<<<<<
187.83	117.62
188.298	138.51
188.766	120.44
189.233	102.81
189.701	116.35
190.169	140.36
190.636	150.23
191.104	243.51
191.571	166.13
192.039	-29.22
192.506	163.89
192.974	-2.03
193.441	68.43
193.908	19.83
194.375	56.26
194.842	55.01
195.31	133.25
195.777	343.76
196.244	84.35
196.711	68.34
197.177	68.79
197.644	68.35
198.111	67.61
198.578	67.79
199.045	67.46
199.511	67.28
199.978	67.37
200.445	67.41
200.911	67.37
201.378	67.66
201.844	67.64
202.31	67.36
202.777	67.16
203.243	67.21
203.709	66.79
204.176	66.41
204.642	66.05
205.108	65.92
205.574	65.62
206.04	64.99
206.506	64.27
206.972	64.01
207.438	63.62
207.903	63.17
208.369	62.4
208.835	61.72
209.301	61.26
209.766	60.39
210.232	59.32
210.697	58.3
211.163	57.6
211.628	56.85
212.094	56.02
212.559	55.32
213.024	54.57
213.49	54.1
213.955	53.43
214.42	52.67
214.885	51.71
215.35	50.63
215.815	49.31
216.28	47.38
216.745	45.52
217.21	43.63
217.675	41.82
218.14	40.38
218.604	38.96
219.069	37.96
219.534	37.13
219.998	36.4
220.463	35.83
220.927	35.22
221.392	34.84
221.856	34.47
222.32	34.11
222.785	33.84
223.249	33.56
223.713	33.29
224.177	33.02
224.642	32.74
225.106	32.45
225.57	32.15
226.034	31.96
226.497	31.7
226.961	31.46
227.425	31.23
227.889	30.98
228.353	30.72
228.816	30.49
229.28	30.24
229.744	29.99
230.207	29.74
230.671	29.51
231.134	29.26
231.597	29.04
232.061	28.81
232.524	28.57
232.987	28.35
233.45	28.14
233.914	27.92
234.377	27.71
234.84	27.51
235.303	27.32
235.766	27.14
236.229	26.94
236.691	26.76
237.154	26.56
237.617	26.4
238.08	26.22
238.542	26.03
239.005	25.87
239.468	25.69
239.93	25.51
240.393	25.36
240.855	25.16
241.317	24.99
241.78	24.81
242.242	24.64
242.704	24.49
243.166	24.33
243.629	24.17
244.091	24.02
244.553	23.87
245.015	23.71
245.477	23.56
245.939	23.41
246.4	23.27
246.862	23.13
247.324	22.99
247.786	22.85
248.247	22.69
248.709	22.55
249.17	22.42
249.632	22.31
250.093	22.2
250.555	22.08
251.016	21.98
251.477	21.86
251.939	21.77
252.4	21.68
252.861	21.57
253.322	21.48
253.783	21.4
254.244	21.31
254.705	21.2
255.166	21.11
255.627	21.02
256.088	20.94
256.549	20.87
257.009	20.76
257.47	20.66
257.931	20.58
258.391	20.48
258.852	20.39
259.312	20.31
259.773	20.24
260.233	20.17
260.694	20.1
261.154	20.02
261.614	19.95
262.074	19.9
262.534	19.85
262.994	19.81
263.455	19.78
263.915	19.76
264.374	19.73
264.834	19.71
265.294	19.68
265.754	19.67
266.214	19.67
266.673	19.67
267.133	19.67
267.593	19.65
268.052	19.65
268.512	19.64
268.971	19.63
269.431	19.64
269.89	19.63
270.349	19.63
270.809	19.62
271.268	19.61
271.727	19.59
272.186	19.57
272.645	19.58
273.104	19.55
273.563	19.54
274.022	19.51
274.481	19.49
274.94	19.46
275.399	19.42
275.857	19.4
276.316	19.37
276.775	19.34
277.233	19.32
277.692	19.28
278.15	19.25
278.609	19.22
279.067	19.21
279.525	19.17
279.984	19.13
280.442	19.1
280.9	19.07
281.358	19.04
281.816	19
282.274	18.96
282.732	18.94
283.19	18.89
283.648	18.84
284.106	18.8
284.564	18.76
285.021	18.73
285.479	18.7
285.937	18.64
286.394	18.62
286.852	18.58
287.309	18.54
287.767	18.49
288.224	18.45
288.682	18.42
289.139	18.37
289.596	18.33
290.053	18.28
290.511	18.24
290.968	18.21
291.425	18.16
291.882	18.13
292.339	18.08
292.796	18.05
293.252	18.03
293.709	18
294.166	17.98
294.623	17.94
295.079	17.9
295.536	17.87
295.992	17.84
296.449	17.8
296.905	17.77
297.362	17.74
297.818	17.71
298.274	17.68
298.731	17.63
299.187	17.59
299.643	17.55
300.099	17.53
300.555	17.49
301.011	17.46
301.467	17.42
301.923	17.38
302.379	17.35
302.835	17.32
303.291	17.28
303.746	17.25
304.202	17.22
304.658	17.19
305.113	17.15
305.569	17.12
306.024	17.08
306.479	17.04
306.935	17.01
307.39	16.98
307.845	16.94
308.301	16.9
308.756	16.88
309.211	16.84
309.666	16.81
310.121	16.78
310.576	16.75
311.031	16.72
311.486	16.7
311.94	16.66
312.395	16.64
312.85	16.62
313.305	16.59
313.759	16.57
314.214	16.55
314.668	16.52
315.123	16.47
315.577	16.43
316.032	16.41
316.486	16.37
316.94	16.33
317.394	16.28
317.849	16.23
318.303	16.18
318.757	16.12
319.211	16.08
319.665	16.04
320.119	16.02
320.572	15.98
321.026	15.94
321.48	15.91
321.934	15.87
322.387	15.84
322.841	15.81
323.295	15.8
323.748	15.77
324.202	15.73
324.655	15.69
325.108	15.65
325.562	15.62
326.015	15.59
326.468	15.55
326.921	15.52
327.374	15.49
327.827	15.47
328.28	15.44
328.733	15.42
329.186	15.4
329.639	15.38
330.092	15.36
330.545	15.33
330.997	15.3
331.45	15.29
331.903	15.28
332.355	15.27
332.808	15.26
333.26	15.24
333.713	15.21
334.165	15.18
334.617	15.18
335.069	15.15
335.522	15.14
335.974	15.12
336.426	15.11
336.878	15.09
337.33	15.07
337.782	15.04
338.234	15.02
338.686	15.01
339.137	14.99
339.589	14.96
340.041	14.93
340.493	14.91
340.944	14.88
341.396	14.84
341.847	14.8
342.299	14.76
342.75	14.71
343.201	14.68
343.653	14.65
344.104	14.61
344.555	14.57
345.006	14.54
345.457	14.5
345.908	14.48
346.359	14.46
346.81	14.42
347.261	14.4
347.712	14.38
348.163	14.36
348.613	14.35
349.064	14.33
349.515	14.31
349.965	14.29
350.416	14.28
350.866	14.26
351.317	14.24
351.767	14.24
352.217	14.23
352.668	14.22
353.118	14.21
353.568	14.19
354.018	14.19
354.468	14.19
354.918	14.2
355.368	14.19
355.818	14.19
356.268	14.17
356.718	14.16
357.168	14.15
357.617	14.14
358.067	14.14
358.517	14.13
358.966	14.12
359.416	14.11
359.865	14.1
360.315	14.1
360.764	14.09
361.213	14.09
361.663	14.08
362.112	14.07
362.561	14.06
363.01	14.05
363.459	14.03
363.908	14
364.357	14
364.806	13.98
365.255	13.97
365.703	13.96
366.152	13.95
366.601	13.95
367.05	13.94
367.498	13.92
367.947	13.91
368.395	13.9
368.844	13.89
369.292	13.86
369.74	13.84
370.189	13.83
370.637	13.81
371.085	13.79
371.533	13.76
371.981	13.75
372.429	13.74
372.877	13.71
373.325	13.68
373.773	13.65
374.221	13.62
374.669	13.6
375.116	13.58
375.564	13.56
376.012	13.55
376.459	13.53
376.907	13.52
377.354	13.51
377.801	13.51
378.249	13.51
378.696	13.51
379.143	13.51
379.591	13.5
380.038	13.49
380.485	13.48
380.932	13.46
381.379	13.47
381.826	13.45
382.273	13.44
382.72	13.41
383.166	13.38
383.613	13.36
384.06	13.34
384.506	13.32
384.953	13.31
385.4	13.3
385.846	13.3
386.292	13.29
386.739	13.28
387.185	13.27
387.631	13.27
388.078	13.26
388.524	13.26
388.97	13.26
389.416	13.27
389.862	13.28
390.308	13.28
390.754	13.28
391.2	13.28
391.645	13.28
392.091	13.31
392.537	13.33
392.983	13.35
393.428	13.36
393.874	13.36
394.319	13.37
394.765	13.38
395.21	13.4
395.655	13.41
396.101	13.44
396.546	13.45
396.991	13.47
397.436	13.49
397.881	13.52
398.326	13.55
398.771	13.61
399.216	13.65
399.661	13.69
400.106	13.73
400.551	13.75
400.995	13.77
401.44	13.81
401.885	13.83
402.329	13.86
402.774	13.9
403.218	13.94
403.663	13.96
404.107	13.98
404.551	14
404.995	14.03
405.44	14.06
405.884	14.1
406.328	14.13
406.772	14.15
407.216	14.2
407.66	14.22
408.104	14.23
408.547	14.26
408.991	14.3
409.435	14.34
409.879	14.38
410.322	14.42
410.766	14.46
411.209	14.51
411.653	14.57
412.096	14.6
412.54	14.65
412.983	14.7
413.426	14.76
413.869	14.81
414.312	14.87
414.756	14.93
415.199	14.97
415.642	15.01
416.085	15.05
416.527	15.07
416.97	15.08
417.413	15.11
417.856	15.13
418.298	15.15
418.741	15.18
419.184	15.19
419.626	15.2
420.069	15.23
420.511	15.25
420.953	15.27
421.396	15.32
421.838	15.38
422.28	15.41
422.722	15.47
423.164	15.48
423.606	15.48
424.048	15.5
424.49	15.53
424.932	15.54
425.374	15.53
425.816	15.5
426.258	15.48
426.699	15.47
427.141	15.47
427.582	15.47
428.024	15.49
428.465	15.5
428.907	15.49
429.348	15.47
429.789	15.48
430.231	15.53
430.672	15.57
431.113	15.6
431.554	15.64
431.995	15.65
432.436	15.65
432.877	15.66
433.318	15.69
433.759	15.72
434.2	15.78
434.64	15.83
435.081	15.84
435.522	15.84
435.962	15.86
436.403	15.89
436.843	15.92
437.284	15.93
437.724	15.96
438.164	15.96
438.604	16
439.045	16.02
439.485	16.01
439.925	16
440.365	16.03
440.805	16.05
441.245	16.04
441.685	16.07
442.125	16.12
442.564	16.14
443.004	16.17
443.444	16.19
443.883	16.21
444.323	16.23
444.762	16.3
445.202	16.33
445.641	16.38
446.081	16.46
446.52	16.48
446.959	16.53
447.398	16.58
447.837	16.62
448.276	16.65
448.716	16.69
449.154	16.74
449.593	16.76
450.032	16.79
450.471	16.79
450.91	16.78
451.349	16.81
451.787	16.79
452.226	16.78
452.664	16.77
453.103	16.77
453.541	16.76
453.98	16.77
454.418	16.75
454.856	16.74
455.295	16.74
455.733	16.71
456.171	16.71
456.609	16.71
457.047	16.7
457.485	16.69
457.923	16.68
458.361	16.68
458.798	16.67
459.236	16.65
459.674	16.65
460.111	16.64
460.549	16.65
460.987	16.65
461.424	16.66
461.862	16.66
462.299	16.66
462.736	16.67
463.173	16.65
463.611	16.63
464.048	16.64
464.485	16.64
464.922	16.64
465.359	16.64
465.796	16.63
466.233	16.62
466.67	16.61
467.106	16.59
467.543	16.56
467.98	16.55
468.416	16.54
468.853	16.54
469.29	16.5
469.726	16.49
470.162	16.46
470.599	16.44
471.035	16.41
471.471	16.4
471.907	16.39
472.344	16.41
472.78	16.41
473.216	16.39
473.652	16.39
474.088	16.37
474.523	16.38
474.959	16.38
475.395	16.35
475.831	16.35
476.266	16.35
476.702	16.33
477.138	16.31
477.573	16.3
478.008	16.29
478.444	16.28
478.879	16.29
479.314	16.27
479.75	16.25
480.185	16.24
480.62	16.23
481.055	16.21
481.49	16.2
481.925	16.19
482.36	16.19
482.795	16.18
483.229	16.19
483.664	16.19
484.099	16.19
484.534	16.2
484.968	16.22
485.403	16.24
485.837	16.27
486.271	16.3
486.706	16.33
487.14	16.35
487.574	16.39
488.009	16.42
488.443	16.45
488.877	16.49
489.311	16.54
489.745	16.58
490.179	16.64
490.613	16.7
491.046	16.75
491.48	16.82
491.914	16.88
492.348	16.95
492.781	17.02
493.215	17.11
493.648	17.19
494.082	17.28
494.515	17.36
494.948	17.45
495.382	17.55
495.815	17.66
496.248	17.79
496.681	17.9
497.114	18.01
497.547	18.13
497.98	18.25
498.413	18.39
498.846	18.52
499.279	18.67
499.711	18.8
500.144	18.94
500.577	19.08
501.009	19.22
501.442	19.36
501.874	19.53
502.306	19.7
502.739	19.89
503.171	20.06
503.603	20.24
504.036	20.42
504.468	20.61
504.9	20.79
505.332	20.98
505.764	21.18
506.196	21.4
506.627	21.61
507.059	21.82
507.491	22.03
507.923	22.25
508.354	22.49
508.786	22.74
509.217	23.01
509.649	23.27
510.08	23.53
510.512	23.77
510.943	24.03
511.374	24.29
511.805	24.57
512.237	24.84
512.668	25.11
513.099	25.37
513.53	25.64
513.961	25.91
514.391	26.18
514.822	26.46
515.253	26.75
515.684	27.01
516.114	27.29
516.545	27.57
516.975	27.84
517.406	28.11
517.836	28.37
518.267	28.64
518.697	28.88
519.127	29.14
519.558	29.38
519.988	29.63
520.418	29.88
520.848	30.12
521.278	30.33
521.708	30.62
522.138	30.84
522.567	31.05
522.997	31.24
523.427	31.48
523.857	31.69
524.286	31.88
524.716	32.08
525.145	32.27
525.575	32.45
526.004	32.63
526.433	32.73
526.863	32.91
527.292	33.09
527.721	33.23
528.15	33.35
528.579	33.48
529.008	33.63
529.437	33.75
529.866	33.86
530.295	33.98
530.724	34.1
531.152	34.2
531.581	34.29
532.01	34.41
532.438	34.53
532.867	34.63
533.295	34.72
533.723	34.79
534.152	34.89
534.58	34.99
535.008	35.05
535.436	35.14
535.865	35.22
536.293	35.29
536.721	35.34
537.149	35.4
537.576	35.47
538.004	35.53
538.432	35.59
538.86	35.64
539.287	35.66
539.715	35.73
540.143	35.76
540.57	35.79
540.998	35.83
541.425	35.86
541.852	35.89
542.28	35.93
542.707	35.96
543.134	35.98
543.561	36.02
543.988	36.06
544.415	36.08
544.842	36.11
545.269	36.15
545.696	36.19
546.123	36.22
546.549	36.26
546.976	36.29
547.403	36.32
547.829	36.34
548.256	36.38
548.682	36.41
549.108	36.44
549.535	36.46
549.961	36.47
550.387	36.49
550.813	36.49
551.24	36.5
551.666	36.49
552.092	36.5
552.518	36.5
552.943	36.49
553.369	36.48
553.795	36.49
554.221	36.47
554.646	36.46
555.072	36.43
555.498	36.41
555.923	36.38
556.349	36.35
556.774	36.32
557.199	36.29
557.625	36.26
558.05	36.21
558.475	36.15
558.9	36.11
559.325	36.08
559.75	36.03
560.175	36
560.6	35.91
561.025	35.84
561.449	35.77
561.874	35.69
562.299	35.59
562.723	35.49
563.148	35.4
563.572	35.29
563.997	35.18
564.421	35.07
564.846	34.95
565.27	34.83
565.694	34.71
566.118	34.6
566.542	34.49
566.966	34.38
567.39	34.27
567.814	34.15
568.238	34.02
568.662	33.89
569.086	33.78
569.509	33.66
569.933	33.56
570.357	33.44
570.78	33.31
571.204	33.18
571.627	33.09
572.05	32.98
572.474	32.89
572.897	32.79
573.32	32.7
573.743	32.6
574.166	32.51
574.589	32.41
575.012	32.32
575.435	32.23
575.858	32.15
576.281	32.04
576.704	31.95
577.126	31.84
577.549	31.76
577.972	31.68
578.394	31.59
578.817	31.5
579.239	31.44
579.661	31.37
580.084	31.28
580.506	31.2
580.928	31.14
581.35	31.07
581.772	31
582.194	30.94
582.616	30.87
583.038	30.8
583.46	30.74
583.882	30.67
584.303	30.6
584.725	30.55
585.147	30.5
585.568	30.43
585.99	30.37
586.411	30.32
586.833	30.27
587.254	30.22
587.675	30.16
588.096	30.1
588.518	30.05
588.939	30
589.36	29.91
589.781	29.86
590.202	29.82
590.623	29.79
591.043	29.74
591.464	29.69
591.885	29.64
592.305	29.59
592.726	29.55
593.147	29.51
593.567	29.46
593.987	29.43
594.408	29.39
594.828	29.34
595.248	29.31
595.669	29.27
596.089	29.21
596.509	29.19
596.929	29.15
597.349	29.11
597.769	29.06
598.189	29.02
598.608	28.99
599.028	28.95
599.448	28.92
599.867	28.86
600.287	28.82
600.706	28.79
601.126	28.73
601.545	28.68
601.965	28.64
602.384	28.61
602.803	28.56
603.222	28.51
603.641	28.46
604.061	28.4
604.48	28.35
604.898	28.29
605.317	28.24
605.736	28.2
606.155	28.14
606.574	28.08
606.992	28.03
607.411	27.97
607.829	27.89
608.248	27.81
608.666	27.76
609.085	27.69
609.503	27.63
609.921	27.58
610.339	27.5
610.758	27.44
611.176	27.37
611.594	27.29
612.012	27.21
612.43	27.16
612.847	27.09
613.265	27.01
613.683	26.95
614.101	26.87
614.518	26.78
614.936	26.71
615.353	26.62
615.771	26.56
616.188	26.5
616.606	26.45
617.023	26.38
617.44	26.34
617.857	26.31
618.274	26.26
618.691	26.21
619.108	26.16
619.525	26.1
619.942	26.07
620.359	26.03
620.776	25.99
621.192	25.97
621.609	25.95
622.026	25.92
622.442	25.88
622.859	25.85
623.275	25.82
623.691	25.81
624.108	25.79
624.524	25.78
624.94	25.77
625.356	25.76
625.772	25.73
626.188	25.72
626.604	25.71
627.02	25.69
627.436	25.69
627.852	25.68
628.268	25.67
628.683	25.67
629.099	25.66
629.514	25.63
629.93	25.6
630.345	25.57
630.761	25.53
631.176	25.49
631.591	25.45
632.007	25.4
632.422	25.34
632.837	25.28
633.252	25.2
633.667	25.12
634.082	25.02
634.497	24.94
634.911	24.83
635.326	24.72
635.741	24.59
636.155	24.45
636.57	24.3
636.984	24.15
637.399	23.99
637.813	23.83
638.228	23.66
638.642	23.49
639.056	23.29
639.47	23.12
639.884	22.92
640.298	22.72
640.712	22.54
641.126	22.34
641.54	22.14
641.954	21.92
642.368	21.73
642.781	21.53
643.195	21.36
643.609	21.17
644.022	20.98
644.436	20.81
644.849	20.65
645.262	20.48
645.676	20.34
646.089	20.22
646.502	20.09
646.915	19.99
647.328	19.88
647.741	19.76
648.154	19.68
648.567	19.6
648.98	19.51
649.393	19.46
649.805	19.4
650.218	19.33
650.631	19.29
651.043	19.25
651.456	19.19
651.868	19.14
652.28	19.1
652.693	19.06
653.105	19.01
653.517	18.98
653.929	18.94
654.341	18.87
654.753	18.81
655.165	18.74
655.577	18.67
655.989	18.6
656.401	18.52
656.813	18.45
657.224	18.33
657.636	18.23
658.047	18.11
658.459	17.99
658.87	17.88
659.282	17.75
659.693	17.64
660.104	17.51
660.515	17.37
660.926	17.25
661.338	17.1
661.749	16.98
662.159	16.86
662.57	16.74
662.981	16.63
663.392	16.51
663.803	16.41
664.213	16.28
664.624	16.18
665.035	16.1
665.445	16
665.855	15.9
666.266	15.82
666.676	15.75
667.086	15.65
667.497	15.57
667.907	15.5
668.317	15.44
668.727	15.37
669.137	15.31
669.547	15.24
669.956	15.19
670.366	15.16
670.776	15.12
671.186	15.08
671.595	15.06
672.005	15.03
672.414	15.02
672.824	14.98
673.233	14.99
673.642	14.98
674.052	14.99
674.461	15
674.87	15
675.279	15.02
675.688	15.04
676.097	15.06
676.506	15.09
676.915	15.12
677.323	15.18
677.732	15.24
678.141	15.31
678.549	15.38
678.958	15.48
679.366	15.6
679.775	15.71
680.183	15.85
680.592	16.02
681	16.21
681.408	16.4
681.816	16.62
682.224	16.86
682.632	17.13
683.04	17.41
683.448	17.73
683.856	18.06
684.264	18.44
684.671	18.84
685.079	19.25
685.487	19.7
685.894	20.2
686.302	20.69
686.709	21.21
687.116	21.77
687.524	22.35
687.931	22.95
688.338	23.56
688.745	24.19
689.152	24.81
689.559	25.47
689.966	26.14
690.373	26.79
690.78	27.45
691.187	28.13
691.593	28.8
692	29.47
692.407	30.1
692.813	30.76
693.22	31.4
693.626	32.04
694.032	32.66
694.439	33.26
694.845	33.85
695.251	34.44
695.657	34.98
696.063	35.52
696.469	36.04
696.875	36.57
697.281	37.07
697.687	37.58
698.093	38.07
698.498	38.53
698.904	38.99
699.31	39.43
699.715	39.85
700.12	40.27
700.526	40.7
700.931	41.1
701.337	41.49
701.742	41.83
702.147	42.19
702.552	42.55
702.957	42.88
703.362	43.17
703.767	43.5
704.172	43.81
704.577	44.1
704.981	44.37
705.386	44.62
705.791	44.88
706.195	45.17
706.6	45.43
707.004	45.65
707.408	45.89
707.813	46.15
708.217	46.36
708.621	46.6
709.025	46.79
709.43	46.99
709.834	47.23
710.237	47.43
710.641	47.61
711.045	47.8
711.449	48.01
711.853	48.21
712.256	48.37
712.66	48.55
713.064	48.72
713.467	48.9
713.87	49.08
714.274	49.22
714.677	49.38
715.08	49.52
715.484	49.66
715.887	49.8
716.29	49.9
716.693	50.08
717.096	50.21
717.499	50.33
717.901	50.46
718.304	50.57
718.707	50.67
719.109	50.8
719.512	50.92
719.915	51.04
720.317	51.12
720.719	51.25
721.122	51.31
721.524	51.38
721.926	51.48
722.328	51.58
722.731	51.68
723.133	51.79
723.535	51.87
723.937	51.97
724.338	52.04
724.74	52.13
725.142	52.29
725.544	52.38
725.945	52.48
726.347	52.53
726.748	52.59
727.15	52.64
727.551	52.71
727.952	52.76
728.354	52.82
728.755	52.86
729.156	52.9
729.557	52.86
729.958	52.9
730.359	52.91
730.76	52.95
731.161	53.01
731.562	53.07
731.962	53.06
732.363	53.1
732.763	53.1
733.164	53.13
733.564	53.15
733.965	53.18
734.365	53.24
734.766	53.28
735.166	53.32
735.566	53.35
735.966	53.37
736.366	53.43
736.766	53.44
737.166	53.5
737.566	53.55
737.966	53.63
738.365	53.63
738.765	53.65
739.165	53.67
739.564	53.69
739.964	53.69
740.363	53.69
740.763	53.69
741.162	53.72
741.561	53.7
741.96	53.68
742.36	53.64
742.759	53.66
743.158	53.65
743.557	53.66
743.955	53.68
744.354	53.69
744.753	53.73
745.152	53.76
745.55	53.79
745.949	53.82
746.348	53.88
746.746	53.89
747.144	53.92
747.543	53.92
747.941	53.97
748.339	53.97
748.737	53.97
749.136	53.95
749.534	53.94
749.932	53.9
750.33	53.88
750.727	53.85
751.125	53.86
751.523	53.83
751.921	53.85
752.318	53.82
752.716	53.81
753.113	53.81
753.511	53.83
753.908	53.83
754.305	53.87
754.703	53.89
755.1	53.92
755.497	53.92
755.894	53.93
756.291	53.92
756.688	53.93
757.085	53.93
757.482	53.92
757.878	53.93
758.275	53.92
758.672	53.89
759.068	53.91
759.465	53.89
759.861	53.89
760.258	53.89
760.654	53.9
761.05	53.93
761.447	53.94
761.843	53.95
762.239	53.96
762.635	53.96
763.031	53.97
763.427	53.94
763.822	53.95
764.218	53.93
764.614	53.96
765.01	53.94
765.405	53.92
765.801	53.88
766.196	53.87
766.592	53.86
766.987	53.86
767.382	53.86
767.778	53.87
768.173	53.87
768.568	53.86
768.963	53.84
769.358	53.86
769.753	53.83
770.148	53.84
770.542	53.84
770.937	53.85
771.332	53.84
771.726	53.85
772.121	53.84
772.515	53.83
772.91	53.83
773.304	53.83
773.699	53.81
774.093	53.8
774.487	53.8
774.881	53.84
775.275	53.83
775.669	53.83
776.063	53.83
776.457	53.86
776.851	53.85
777.245	53.85
777.638	53.86
778.032	53.89
778.425	53.97
778.819	53.99
779.212	53.99
779.606	54.01
779.999	54.02
780.392	54.05
780.786	54.04
781.179	54.08
781.572	54.1
781.965	54.11
782.358	54.1
782.751	54.08
783.143	54.08
783.536	54.07
783.929	54.05
784.322	54.06
784.714	54.05
785.107	54.07
785.499	54.07
785.891	54.08
786.284	54.09
786.676	54.12
787.068	54.11
787.46	54.12
787.852	54.13
788.245	54.17
788.636	54.18
789.028	54.21
789.42	54.21
789.812	54.23
790.204	54.24
790.595	54.26
790.987	54.27
791.378	54.32
791.77	54.31
792.161	54.32
792.553	54.32
792.944	54.29
793.335	54.29
793.726	54.29
794.117	54.27
794.508	54.26
794.899	54.26
795.29	54.26
795.681	54.23
796.072	54.23
796.463	54.24
796.853	54.23
797.244	54.28
797.634	54.26
798.025	54.3
798.415	54.3
798.806	54.29
799.196	54.29
799.586	54.31
799.976	54.32
800.366	54.34
800.756	54.36
801.146	54.38
801.536	54.4
801.926	54.39
802.316	54.36
802.706	54.38
803.095	54.42
803.485	54.42
803.874	54.4
804.264	54.38
804.653	54.4
805.043	54.41
805.432	54.39
805.821	54.4
806.21	54.44
806.599	54.47
806.988	54.45
807.377	54.43
807.766	54.45
808.155	54.45
808.544	54.45
808.933	54.43
809.321	54.43
809.71	54.45
810.098	54.42
810.487	54.38
810.875	54.38
811.264	54.41
811.652	54.42
812.04	54.42
812.428	54.45
812.816	54.46
813.204	54.47
813.592	54.46
813.98	54.48
814.368	54.52
814.756	54.54
815.144	54.53
815.531	54.52
815.919	54.52
816.306	54.52
816.694	54.51
817.081	54.49
817.469	54.51
817.856	54.53
818.243	54.5
818.63	54.49
819.017	54.49
819.404	54.48
819.791	54.48
820.178	54.51
820.565	54.48
820.952	54.48
821.339	54.51
821.725	54.5
822.112	54.5
822.498	54.52
822.885	54.55
823.271	54.53
823.657	54.52
824.044	54.53
824.43	54.53
824.816	54.56
825.202	54.57
825.588	54.56
825.974	54.58
826.36	54.57
826.746	54.57
827.132	54.54
827.517	54.56
827.903	54.62
828.289	54.61
828.674	54.62
829.06	54.61
829.445	54.6
829.83	54.62
830.216	54.59
830.601	54.59
830.986	54.59
831.371	54.59
831.756	54.6
832.141	54.56
832.526	54.59
832.911	54.55
833.295	54.57
833.68	54.59
834.065	54.6
834.449	54.61
834.834	54.6
835.218	54.6
835.603	54.59
835.987	54.57
836.371	54.56
836.755	54.52
837.139	54.53
837.524	54.53
837.908	54.53
838.291	54.53
838.675	54.52
839.059	54.54
839.443	54.52
839.827	54.52
840.21	54.51
840.594	54.52
840.977	54.52
841.361	54.53
841.744	54.48
842.127	54.45
842.511	54.41
842.894	54.43
843.277	54.4
843.66	54.37
844.043	54.39
844.426	54.41
844.809	54.4
845.191	54.41
845.574	54.41
845.957	54.43
846.339	54.44
846.722	54.45
847.104	54.45
847.487	54.45
847.869	54.48
848.252	54.46
848.634	54.45
849.016	54.49
849.398	54.5
849.78	54.49
850.162	54.5
850.544	54.49
850.926	54.49
851.307	54.47
851.689	54.48
852.071	54.5
852.452	54.51
852.834	54.55
853.215	54.53
853.597	54.53
853.978	54.53
854.359	54.53
854.741	54.55
855.122	54.55
855.503	54.55
855.884	54.54
856.265	54.54
856.646	54.53
857.026	54.52
857.407	54.53
857.788	54.52
858.169	54.56
858.549	54.56
858.93	54.56
859.31	54.59
859.69	54.61
860.071	54.66
860.451	54.66
860.831	54.67
861.211	54.62
861.591	54.62
861.971	54.6
862.351	54.59
862.731	54.61
863.111	54.59
863.491	54.59
863.87	54.58
864.25	54.55
864.629	54.58
865.009	54.58
865.388	54.6
865.768	54.6
866.147	54.64
866.526	54.65
866.905	54.66
867.284	54.69
867.663	54.68
868.042	54.7
868.421	54.72
868.8	54.72
869.179	54.74
869.558	54.75
869.936	54.75
870.315	54.74
870.693	54.75
871.072	54.75
871.45	54.75
871.828	54.76
872.207	54.77
872.585	54.75
872.963	54.75
873.341	54.75
873.719	54.77
874.097	54.75
874.475	54.76
874.853	54.77
875.23	54.77
875.608	54.81
875.986	54.83
876.363	54.83
876.741	54.83
877.118	54.83
877.495	54.83
877.873	54.85
878.25	54.89
878.627	54.91
879.004	54.9
879.381	54.92
879.758	54.88
880.135	54.87
880.512	54.86
880.889	54.87
881.265	54.85
881.642	54.85
882.019	54.83
882.395	54.78
882.772	54.74
883.148	54.7
883.524	54.68
883.901	54.68
884.277	54.65
884.653	54.63
885.029	54.6
885.405	54.61
885.781	54.6
886.157	54.59
886.532	54.6
886.908	54.61
887.284	54.62
887.659	54.59
888.035	54.58
888.411	54.58
888.786	54.59
889.161	54.59
889.537	54.58
889.912	54.59
890.287	54.6
890.662	54.58
891.037	54.6
891.412	54.59
891.787	54.57
892.162	54.54
892.536	54.56
892.911	54.55
893.286	54.56
893.66	54.56
894.035	54.53
894.409	54.51
894.784	54.52
895.158	54.5
895.532	54.52
895.906	54.53
896.281	54.55
896.655	54.53
897.029	54.53
897.402	54.52
897.776	54.53
898.15	54.53
898.524	54.57
898.898	54.57
899.271	54.57
899.645	54.57
900.018	54.6
900.392	54.62
900.765	54.65
901.138	54.65
901.511	54.66
901.884	54.68
902.258	54.71
902.631	54.69
903.003	54.74
903.376	54.76
903.749	54.74
904.122	54.73
904.495	54.75
904.867	54.74
905.24	54.76
905.612	54.79
905.985	54.78
906.357	54.75
906.729	54.75
907.102	54.72
907.474	54.75
907.846	54.77
908.218	54.77
908.59	54.78
908.962	54.79
909.334	54.79
909.705	54.78
910.077	54.8
910.449	54.81
910.82	54.84
911.192	54.85
911.563	54.82
911.935	54.82
912.306	54.83
912.677	54.86
913.048	54.86
913.419	54.86
913.79	54.86
914.161	54.83
914.532	54.86
914.903	54.88
915.274	54.89
915.645	54.9
916.015	54.92
916.386	54.92
916.756	54.89
917.127	54.91
917.497	54.9
917.868	54.9
918.238	54.93
918.608	54.92
918.978	54.9
919.348	54.9
919.718	54.88
920.088	54.91
920.458	54.91
920.828	54.93
921.198	54.88
921.567	54.91
921.937	54.92
922.306	54.91
922.676	54.91
923.045	54.93
923.415	54.92
923.784	54.93
924.153	54.93
924.522	54.93
924.891	54.91
925.26	54.97
925.629	54.94
925.998	54.92
926.367	54.92
926.736	54.9
927.104	54.9
927.473	54.9
927.842	54.86
928.21	54.86
928.578	54.83
928.947	54.83
929.315	54.78
929.683	54.77
930.051	54.73
930.42	54.7
930.788	54.69
931.156	54.65
931.523	54.62
931.891	54.67
932.259	54.62
932.627	54.63
932.994	54.61
933.362	54.61
933.729	54.64
934.097	54.69
934.464	54.67
934.831	54.67
935.199	54.7
935.566	54.7
935.933	54.63
936.3	54.65
936.667	54.62
937.034	54.63
937.401	54.65
937.767	54.71
938.134	54.7
938.501	54.75
938.867	54.82
939.234	54.81
939.6	54.83
939.967	54.87
940.333	54.87
940.699	54.96
941.065	54.95
941.431	54.96
941.798	54.87
942.163	54.89
942.529	54.88
942.895	54.85
943.261	54.86
943.627	54.83
943.992	54.88
944.358	54.89
944.723	54.83
945.089	54.79
945.454	54.83
945.82	54.84
946.185	54.84
946.55	54.84
946.915	54.82
947.28	54.8
947.645	54.83
948.01	54.82
948.375	54.83
948.74	54.85
949.104	55
949.469	54.94
949.834	54.91
950.198	54.86
950.562	54.79
950.927	54.78
951.291	54.69
951.655	54.59
952.02	54.54
952.384	54.47
952.748	54.43
953.112	54.32
953.476	54.28
953.839	54.22
954.203	54.17
954.567	54.17
954.931	54.12
955.294	54.1
955.658	54.21
956.021	54.21
956.385	54.2
956.748	54.16
957.111	54.08
957.474	54.08
957.837	54.01
958.2	54.02
958.563	53.97
958.926	54
959.289	53.99
959.652	53.9
960.015	53.87
960.377	53.88
960.74	53.9
961.102	53.9
961.465	53.94
961.827	54.08
962.189	54.08
962.552	54.12
962.914	54.08
963.276	54.14
963.638	54.14
964	54.15
964.362	54.16
964.724	54.17
965.085	54.18
965.447	54.13
965.809	54.04
966.17	54.05
966.532	53.99
966.893	54
967.255	53.98
967.616	53.99
967.977	53.95
968.338	53.92
968.699	53.94
969.061	53.9
969.421	53.92
969.782	53.93
970.143	53.92
970.504	53.97
970.865	54.01
971.225	53.97
971.586	53.97
971.946	53.97
972.307	53.95
972.667	53.96
973.027	54.01
973.388	53.99
973.748	54.01
974.108	54.13
974.468	54.13
974.828	54.11
975.188	54.09
975.548	54.06
975.907	54.1
976.267	54.09
976.627	54.03
976.986	54
977.346	53.97
977.705	53.96
978.064	53.86
978.424	53.86
978.783	53.83
979.142	53.91
979.501	53.91
979.86	53.89
980.219	53.94
980.578	53.99
980.937	54.03
981.296	54.06
981.654	54.02
982.013	54.05
982.371	54.04
982.73	54.09
983.088	54.07
983.447	54.07
983.805	54.09
984.163	54.07
984.521	53.97
984.879	53.86
985.237	53.82
985.595	53.92
985.953	53.86
986.311	53.88
986.669	53.89
987.026	53.84
987.384	53.89
987.741	53.84
988.099	53.89
988.456	53.94
988.814	54.04
989.171	54.1
989.528	54.08
989.885	54.12
990.242	54.07
990.599	54.05
990.956	54.12
991.313	54.05
991.67	54.06
992.027	54.16
992.383	54.27
992.74	54.29
993.096	54.33
993.453	54.29
993.809	54.3
994.165	54.42
994.522	54.53
994.878	54.61
995.234	54.63
995.59	54.66
995.946	54.63
996.302	54.61
996.658	54.65
997.013	54.63
997.369	54.67
997.725	54.78
998.08	54.78
998.436	54.66
998.791	54.73
999.147	54.78
999.502	54.89
999.857	54.85
1000.212	54.87
1000.567	54.87
1000.922	54.84
1001.277	54.81
1001.632	54.67
1001.987	54.59
1002.342	54.58
1002.696	54.46
1003.051	54.66
1003.406	54.74
1003.76	54.81
1004.114	54.68
1004.469	54.75
1004.823	55.14
1005.177	55.25
1005.531	55.46
1005.885	55.65
1006.239	55.82
1006.593	56
1006.947	55.98
1007.301	55.9
1007.655	55.78
1008.008	56.06
1008.362	56.2
1008.715	56.01
1009.069	56.04
1009.422	56
1009.776	55.94
1010.129	55.96
1010.482	55.91
1010.835	55.94
1011.188	55.93
1011.541	56.14
1011.894	56.06
1012.247	55.95
1012.6	55.96
1012.952	55.79
1013.305	55.91
1013.657	56.05
1014.01	56.05
1014.362	56.1
1014.715	56.23
1015.067	56.51
1015.419	56.65
1015.771	56.66
1016.123	56.7
1016.475	56.83
1016.827	57.12
1017.179	57.06
1017.531	57.05
1017.883	57.22
1018.234	57.31
1018.586	57.36
1018.938	57.4
1019.289	57.12
1019.64	57.21
1019.992	57.3
1020.343	57.21
1020.694	57.39
1021.045	57.57
1021.396	57.71
1021.747	57.89
1022.098	57.78
1022.449	57.69
1022.8	57.68
1023.151	58.06
1023.501	58.3
1023.852	58.36
1024.202	58.28
1024.553	58.06
1024.903	58.24
1025.253	58.31
1025.604	58.08
1025.954	58.02
1026.304	58.17
1026.654	58.42
1027.004	58.34
1027.354	58.19
1027.703	58.09
1028.053	58.31
1028.403	58.63
1028.753	58.25
1029.102	58.36
1029.452	58.65
1029.801	59.1
1030.15	58.98
1030.499	58.64
897.758	1437.11
901.051	1444.73
904.343	1441.68
907.636	1466.26
910.928	1427.19
914.22	1426.3
917.511	1407.86
920.803	1349.92
924.094	1342.56
927.384	1313.05
930.675	1257.67
933.965	1252.63
937.255	1179.34
940.544	1132.25
943.834	1076.24
947.123	1070.24
950.411	1005.88
953.7	985.29
956.988	928.73
960.276	893.27
963.563	880.77
966.851	848.58
970.138	840.1
973.424	813.81
976.711	818.07
979.997	779.34
983.283	772.54
986.568	757.95
989.853	734.14
993.138	723.4
996.423	695
999.708	673.95
1002.992	666.38
1006.275	638.8
1009.559	631.61
1012.842	610.5
1016.125	591.85
1019.408	581.7
1022.69	575.03
1025.972	562.83
1029.254	549.5
1032.536	540.53
1035.817	530.24
1039.098	522.41
1042.379	510.52
1045.659	506.21
1048.939	491.66
1052.219	484.88
1055.498	476.88
1058.778	464.83
1062.057	455.35
1065.335	449.54
1068.614	444.67
1071.892	439.02
1075.17	426.16
1078.447	417.72
1081.724	414.75
1085.001	412.28
1088.278	403.05
1091.554	395.04
1094.83	396.19
1098.106	393.09
1101.382	389.25
1104.657	386.32
1107.932	380.58
1111.206	381.98
1114.481	372.87
1117.755	369.01
1121.029	365.63
1124.302	365.45
1127.575	358.82
1130.848	353.46
1134.121	350.1
1137.393	348.45
1140.665	340.13
1143.937	338.67
1147.208	336.25
1150.48	336.19
1153.75	331.8
1157.021	327.21
1160.291	327.25
1163.561	323.36
1166.831	323.88
1170.101	320.88
1173.37	320.83
1176.639	322.32
1179.907	319.14
1183.176	315.46
1186.444	314.11
1189.711	313.89
1192.979	313.37
1196.246	310.89
1199.513	312.34
1202.78	310.16
1206.046	310.49
1209.312	306.56
1212.578	306.95
1215.843	308.71
1219.108	307.7
1222.373	314.58
1225.638	316.58
1228.902	320.96
1232.166	320.51
1235.43	323.71
1238.693	327.38
1241.956	328.82
1245.219	334.97
1248.482	335.01
1251.744	334.95
1255.006	335.74
1258.268	327.96
1261.529	324.8
1264.79	322.42
1268.051	321.45
1271.312	316.85
1274.572	312.73
1277.832	309.93
1281.092	304.67
1284.351	302.33
1287.61	301.97
1290.869	298.06
1294.128	295.84
1297.386	296.17
1300.644	292.81
1303.902	294.48
1307.159	293.01
1310.416	293.61
1313.673	293.3
1316.93	296.65
1320.186	296.52
1323.442	297.33
1326.697	302.22
1329.953	303.69
1333.208	304.12
1336.463	307.63
1339.717	307.12
1342.972	311.63
1346.226	314.59
1349.479	315.2
1352.733	315.64
1355.986	316.76
1359.238	316.94
1362.491	318.53
1365.743	321.18
1368.995	322.46
1372.247	321.51
1375.498	321.99
1378.749	324.17
1382	319.1
1385.251	320.66
1388.501	319.28
1391.751	321.57
1395	319.7
1398.25	317.12
1401.499	314.93
1404.748	313.89
1407.996	311.4
1411.244	309.84
1414.492	307.83
1417.74	306.45
1420.987	302.18
1424.234	302
1427.481	297.11
1430.728	297.82
1433.974	294.51
1437.22	292.5
1440.465	291.78
1443.711	290.01
1446.956	288.12
1450.201	284.72
1453.445	282.16
1456.689	281.15
1459.933	276.53
1463.177	274.48
1466.42	269.79
1469.663	266.92
1472.906	265.09
1476.148	258.47
1479.391	254.87
1482.633	252.55
1485.874	248.49
1489.115	246.86
1492.356	243.85
1495.597	243.44
1498.838	240.11
1502.078	238.65
1505.318	237.51
1508.557	237.52
1511.797	236.99
1515.036	236.44
1518.274	235.19
1521.513	233.03
1524.751	232.61
1527.989	232.01
1531.227	230.49
1534.464	231.11
1537.701	229.14
1540.938	228.8
1544.174	225.82
1547.41	225.68
1550.646	223.98
1553.882	224.54
1557.117	221.85
1560.352	220.23
1563.587	219.15
1566.821	217.9
1570.055	215.39
1573.289	213.94
1576.523	213.56
1579.756	211.76
1582.989	210.31
1586.222	210.75
1589.454	208.46
1592.686	210.51
1595.918	209.54
1599.15	208.83
1602.381	209.3
1605.612	209.14
1608.843	210.4
1612.073	210.01
1615.303	211.25
1618.533	211.49
1621.762	210.63
1624.992	211.49
1628.221	210.8
1631.449	210.79
1634.678	210.32
1637.906	211.27
1641.134	211.12
1644.361	210.27
1647.588	210.91
1650.815	210.11
1654.042	209.36
1657.269	210.96
1660.495	210.91
1663.72	210.25
1666.946	211.02
1670.171	211.63
1673.396	210.84
1676.621	211.54
1679.845	211.72
1683.069	211.73
1686.293	213.15
1689.517	214.15
1692.74	213.48
1695.963	214.42
1699.185	216.51
1702.408	216.39
1705.63	217.38
1708.852	218.2
1712.073	218.4
1715.294	218.99
1718.515	220.43
1721.736	219.83
1724.956	220.89
1728.176	220.57
1731.396	222.75
1734.616	221.52
1737.835	222.65
1741.054	221.2
1744.272	221.47
1747.491	223.7
1750.709	224.54
1753.927	224.18
1757.144	223.89
1760.361	224.55
1763.578	225.46
1766.795	224.11
1770.011	226.35
1773.227	226.18
1776.443	228.88
1779.658	230.24
1782.874	229.5
1786.089	230.09
1789.303	230.81
1792.518	233.24
1795.732	232.98
1798.945	235.56
1802.159	235.86
1805.372	236.07
1808.585	240.46
1811.797	240.85
1815.01	241.03
1818.222	242.92
1821.434	244.46
1824.645	246.11
1827.856	249.93
1831.067	252.16
1834.278	250.74
1837.488	252.87
1840.698	254.76
1843.908	252.03
1847.117	253.97
1850.326	255.65
1853.535	254.99
1856.744	258.77
1859.952	258.25
1863.16	256.98
1866.368	255.58
1869.575	259.17
1872.782	254.48
1875.989	254.29
1879.196	253.81
1882.402	251.98
1885.608	252.63
1888.814	253.12
1892.019	252.71
1895.224	251.56
1898.429	250.42
1901.634	251.44
1904.838	251.33
1908.042	254.65
1911.246	255.01
1914.449	256.33
1917.652	256.46
1920.855	256.35
1924.058	255.9
1927.26	254.03
1930.462	254.91
1933.664	257.97
1936.865	256.48
1940.066	255.73
1943.267	254.27
1946.467	253.88
1949.668	256.01
1952.868	258.88
1956.067	258.59
1959.267	259.94
1962.466	260.95
1965.665	259.51
1968.863	259.91
1972.061	263.66
1975.259	265.95
1978.457	268.91
1981.654	271.98
1984.852	271.57
1988.048	270.96
1991.245	273.53
1994.441	276.11
1997.637	278.12
2000.833	283.86
2004.028	287.47
2007.223	287.46
2010.418	290.84
2013.613	294.89
2016.807	296.74
2020.001	300.1
2023.194	304.56
2026.388	311.02
2029.581	317.55
2032.774	320.4
2035.966	326.98
2039.158	327.19
2042.35	334.68
2045.542	336.38
2048.733	342.04
2051.924	346.62
2055.115	351.93
2058.306	352.72
2061.496	356.9
2064.686	356.81
2067.875	363.34
2071.065	365.28
2074.254	363.39
2077.442	367.62
2080.631	369.04
2083.819	372.69
2087.007	373.16
2090.195	377.33
2093.382	380.81
2096.569	377.63
2099.756	384.12
2102.942	384.12
2106.128	387.9
2109.314	396.75
2112.5	395.05
2115.685	404.78
2118.87	405.51
2122.055	413.23
2125.239	416.58
2128.424	421.23
2131.608	424.86
2134.791	430.86
2137.974	432.38
2141.157	432.46
2144.34	433.43
2147.523	440.52
2150.705	436.41
2153.887	440.5
2157.068	441.71
2160.25	437.48
2163.431	440.98
2166.611	445
2169.792	453.64
2172.972	458.02
2176.152	461.98
2179.331	468.13
2182.511	475.8
2185.69	480.79
2188.868	491.21
2192.047	491.61
2195.225	506.64
2198.403	517.59
2201.58	528.27
2204.758	536.67
2207.935	549.62
2211.111	558.93
2214.288	564.54
2217.464	566.08
2220.64	575.51
2223.815	581.55
2226.991	606.51
2230.166	606.06
2233.34	617.54
2236.515	629.4
2239.689	629.5
2242.863	632.26
2246.036	650.28
2249.209	644.66
2252.382	656.64
2255.555	675.33
2258.727	678.12
2261.9	679.41
2265.071	687.82
2268.243	698.44
2271.414	703.04
2274.585	720.01
2277.756	727.05
2280.926	732.03
2284.096	751.18
2287.266	766.91
2290.436	771.51
2293.605	791.69
2296.774	815.76
2299.942	841.44
2303.111	845.73
2306.279	865.78
2309.447	877.72
2312.614	899.68
2315.781	923
2318.948	966.5
2322.115	952.02
2325.281	1003.59
2328.447	979.57
2331.613	1023.86
2334.779	1011.47
2337.944	1054.23
2341.109	1064.62
2344.274	1093.33
2347.438	1133.12
2350.602	1131.68
2353.766	1167.09
2356.929	1183.76
2360.092	1178.71
2363.255	1263.16
2366.418	1255.12
2369.58	1282.35
2372.742	1362.41
2375.904	1397.37
2379.066	1385.44
2382.227	1358.77
2385.388	1479.35
2388.548	1475.51
2391.709	1495.18
2394.869	1664.13
2398.029	1596.01
2401.188	1646.39
2404.347	1633.73
2407.506	1605.78
2410.665	1651.1
2413.823	1753.65
2416.981	1857.96
2420.139	1793.93
2423.296	1775.87
2426.453	1851.42
2429.61	1782.92
2432.767	1865.35
2435.923	1841.33
2439.079	2018.15
2442.235	2045.35
2445.391	2027.06
2448.546	2011.19
2451.701	1951.99
2454.855	1947.23
2458.009	2077.56
2461.163	2154.19
2464.317	2233.74
2467.471	2291.04
2470.624	2293.99
2473.777	2222.57
2476.929	2169.04
2480.082	2106.23
2483.234	2081.77
2486.385	2188.94
2489.537	2201.49
2492.688	2273.17
2495.839	2220.12
2498.989	2167.89
2502.14	2179.73
2505.29	2201.5
2508.439	2244.47
2511.589	2235.88
2514.738	2438.49
2517.887	2379.64
2521.035	2522.32
2524.183	2546.87
2527.331	2560.42
2530.479	2549.48
2533.627	2568.74
