Data from N_2_DEC_NC_4N_Splice17_13-27-08-116.txt Node
Date: Sat Mar 07 13:27:08 EST 2020
User: sa697716
Spectrometer: NQ5500242
Trigger mode: 0
Integration Time (sec): 1.450000E-1
Scans to average: 20
Nonlinearity correction enabled: false
Boxcar width: 5
Storing dark spectrum: false
XAxis mode: Wavelengths
Number of Pixels in Spectrum: 512
>>>>>Begin Spectral Data<<<<<
187.83	184.67
188.298	206
188.766	169.08
189.233	142.11
189.701	164.73
190.169	198.63
190.636	214.9
191.104	330.83
191.571	376.31
192.039	52.96
192.506	-393.84
192.974	237.11
193.441	315.17
193.908	36.06
194.375	55.65
194.842	73.85
195.31	133.45
195.777	226.27
196.244	56.65
196.711	43.19
197.177	42.15
197.644	41.82
198.111	41.52
198.578	42.29
199.045	43.02
199.511	42.64
199.978	42.66
200.445	42.74
200.911	42.4
201.378	42.07
201.844	42.28
202.31	42.21
202.777	42.05
203.243	42.06
203.709	41.43
204.176	41.17
204.642	41.05
205.108	40.97
205.574	40.77
206.04	40.65
206.506	40.45
206.972	40.08
207.438	39.71
207.903	39.44
208.369	38.56
208.835	38.3
209.301	37.68
209.766	36.55
210.232	35.64
210.697	34.73
211.163	34.09
211.628	33.45
212.094	32.96
212.559	32.62
213.024	31.89
213.49	31.48
213.955	30.7
214.42	29.97
214.885	29.56
215.35	28.88
215.815	27.83
216.28	26.56
216.745	25.01
217.21	23.57
217.675	22.34
218.14	21.42
218.604	20.56
219.069	19.87
219.534	19.36
219.998	18.84
220.463	18.47
220.927	18.11
221.392	17.79
221.856	17.55
222.32	17.34
222.785	17.15
223.249	16.96
223.713	16.8
224.177	16.66
224.642	16.49
225.106	16.3
225.57	16.08
226.034	15.93
226.497	15.77
226.961	15.63
227.425	15.48
227.889	15.32
228.353	15.15
228.816	14.98
229.28	14.82
229.744	14.67
230.207	14.54
230.671	14.4
231.134	14.26
231.597	14.14
232.061	14.01
232.524	13.87
232.987	13.74
233.45	13.62
233.914	13.49
234.377	13.37
234.84	13.26
235.303	13.16
235.766	13.06
236.229	12.97
236.691	12.87
237.154	12.78
237.617	12.7
238.08	12.6
238.542	12.49
239.005	12.4
239.468	12.29
239.93	12.19
240.393	12.09
240.855	11.97
241.317	11.85
241.78	11.74
242.242	11.63
242.704	11.53
243.166	11.44
243.629	11.39
244.091	11.31
244.553	11.24
245.015	11.16
245.477	11.08
245.939	11.03
246.4	10.98
246.862	10.9
247.324	10.85
247.786	10.77
248.247	10.7
248.709	10.61
249.17	10.52
249.632	10.46
250.093	10.4
250.555	10.34
251.016	10.28
251.477	10.21
251.939	10.16
252.4	10.1
252.861	10.05
253.322	10
253.783	9.97
254.244	9.94
254.705	9.89
255.166	9.84
255.627	9.79
256.088	9.75
256.549	9.71
257.009	9.66
257.47	9.6
257.931	9.54
258.391	9.48
258.852	9.41
259.312	9.35
259.773	9.29
260.233	9.23
260.694	9.18
261.154	9.11
261.614	9.06
262.074	9.01
262.534	8.97
262.994	8.94
263.455	8.9
263.915	8.87
264.374	8.83
264.834	8.81
265.294	8.77
265.754	8.75
266.214	8.73
266.673	8.7
267.133	8.68
267.593	8.65
268.052	8.63
268.512	8.6
268.971	8.58
269.431	8.55
269.89	8.52
270.349	8.5
270.809	8.47
271.268	8.44
271.727	8.41
272.186	8.37
272.645	8.35
273.104	8.31
273.563	8.28
274.022	8.25
274.481	8.22
274.94	8.19
275.399	8.15
275.857	8.12
276.316	8.08
276.775	8.05
277.233	8.02
277.692	7.99
278.15	7.97
278.609	7.94
279.067	7.91
279.525	7.88
279.984	7.86
280.442	7.83
280.9	7.81
281.358	7.78
281.816	7.75
282.274	7.73
282.732	7.7
283.19	7.66
283.648	7.63
284.106	7.59
284.564	7.56
285.021	7.53
285.479	7.49
285.937	7.45
286.394	7.42
286.852	7.39
287.309	7.35
287.767	7.32
288.224	7.29
288.682	7.26
289.139	7.23
289.596	7.2
290.053	7.18
290.511	7.16
290.968	7.14
291.425	7.11
291.882	7.09
292.339	7.08
292.796	7.06
293.252	7.05
293.709	7.03
294.166	7.02
294.623	7
295.079	6.98
295.536	6.96
295.992	6.95
296.449	6.94
296.905	6.93
297.362	6.91
297.818	6.89
298.274	6.88
298.731	6.87
299.187	6.85
299.643	6.84
300.099	6.84
300.555	6.82
301.011	6.8
301.467	6.79
301.923	6.77
302.379	6.76
302.835	6.76
303.291	6.75
303.746	6.74
304.202	6.73
304.658	6.73
305.113	6.71
305.569	6.71
306.024	6.7
306.479	6.69
306.935	6.68
307.39	6.67
307.845	6.66
308.301	6.67
308.756	6.67
309.211	6.66
309.666	6.67
310.121	6.67
310.576	6.66
311.031	6.66
311.486	6.66
311.94	6.67
312.395	6.67
312.85	6.67
313.305	6.66
313.759	6.66
314.214	6.65
314.668	6.63
315.123	6.63
315.577	6.62
316.032	6.61
316.486	6.59
316.94	6.58
317.394	6.56
317.849	6.54
318.303	6.53
318.757	6.51
319.211	6.5
319.665	6.5
320.119	6.5
320.572	6.5
321.026	6.49
321.48	6.49
321.934	6.48
322.387	6.48
322.841	6.48
323.295	6.47
323.748	6.46
324.202	6.44
324.655	6.44
325.108	6.42
325.562	6.41
326.015	6.4
326.468	6.39
326.921	6.38
327.374	6.38
327.827	6.37
328.28	6.37
328.733	6.38
329.186	6.38
329.639	6.38
330.092	6.38
330.545	6.37
330.997	6.35
331.45	6.36
331.903	6.37
332.355	6.37
332.808	6.37
333.26	6.35
333.713	6.33
334.165	6.32
334.617	6.31
335.069	6.31
335.522	6.31
335.974	6.31
336.426	6.29
336.878	6.27
337.33	6.25
337.782	6.25
338.234	6.25
338.686	6.25
339.137	6.24
339.589	6.23
340.041	6.22
340.493	6.21
340.944	6.19
341.396	6.18
341.847	6.17
342.299	6.16
342.75	6.15
343.201	6.13
343.653	6.12
344.104	6.11
344.555	6.1
345.006	6.09
345.457	6.07
345.908	6.06
346.359	6.05
346.81	6.05
347.261	6.04
347.712	6.03
348.163	6.02
348.613	6.02
349.064	6.01
349.515	6
349.965	5.99
350.416	5.99
350.866	5.98
351.317	5.98
351.767	5.98
352.217	5.97
352.668	5.96
353.118	5.96
353.568	5.96
354.018	5.96
354.468	5.97
354.918	5.97
355.368	5.99
355.818	6
356.268	6
356.718	6.01
357.168	6
357.617	6.01
358.067	6.01
358.517	6.03
358.966	6.04
359.416	6.05
359.865	6.05
360.315	6.05
360.764	6.06
361.213	6.06
361.663	6.06
362.112	6.07
362.561	6.09
363.01	6.1
363.459	6.08
363.908	6.08
364.357	6.08
364.806	6.07
365.255	6.07
365.703	6.07
366.152	6.08
366.601	6.09
367.05	6.09
367.498	6.08
367.947	6.07
368.395	6.08
368.844	6.09
369.292	6.1
369.74	6.11
370.189	6.11
370.637	6.12
371.085	6.12
371.533	6.11
371.981	6.13
372.429	6.14
372.877	6.16
373.325	6.18
373.773	6.18
374.221	6.19
374.669	6.2
375.116	6.21
375.564	6.23
376.012	6.24
376.459	6.26
376.907	6.28
377.354	6.29
377.801	6.31
378.249	6.33
378.696	6.35
379.143	6.36
379.591	6.39
380.038	6.41
380.485	6.43
380.932	6.44
381.379	6.47
381.826	6.5
382.273	6.52
382.72	6.53
383.166	6.55
383.613	6.58
384.06	6.6
384.506	6.64
384.953	6.66
385.4	6.7
385.846	6.74
386.292	6.76
386.739	6.79
387.185	6.82
387.631	6.86
388.078	6.9
388.524	6.94
388.97	6.97
389.416	7
389.862	7.04
390.308	7.08
390.754	7.12
391.2	7.16
391.645	7.2
392.091	7.25
392.537	7.29
392.983	7.33
393.428	7.38
393.874	7.43
394.319	7.47
394.765	7.51
395.21	7.54
395.655	7.58
396.101	7.62
396.546	7.67
396.991	7.71
397.436	7.76
397.881	7.81
398.326	7.86
398.771	7.91
399.216	7.95
399.661	8
400.106	8.05
400.551	8.1
400.995	8.12
401.44	8.15
401.885	8.18
402.329	8.22
402.774	8.24
403.218	8.29
403.663	8.32
404.107	8.35
404.551	8.38
404.995	8.42
405.44	8.44
405.884	8.48
406.328	8.52
406.772	8.53
407.216	8.56
407.66	8.58
408.104	8.59
408.547	8.6
408.991	8.62
409.435	8.64
409.879	8.64
410.322	8.67
410.766	8.69
411.209	8.71
411.653	8.74
412.096	8.77
412.54	8.78
412.983	8.8
413.426	8.83
413.869	8.85
414.312	8.89
414.756	8.91
415.199	8.92
415.642	8.93
416.085	8.93
416.527	8.93
416.97	8.91
417.413	8.92
417.856	8.92
418.298	8.92
418.741	8.93
419.184	8.92
419.626	8.92
420.069	8.93
420.511	8.94
420.953	8.96
421.396	8.98
421.838	9.01
422.28	9.01
422.722	9.03
423.164	9.04
423.606	9.04
424.048	9.05
424.49	9.06
424.932	9.05
425.374	9.04
425.816	9.02
426.258	9.02
426.699	9.01
427.141	9.01
427.582	9.01
428.024	9.01
428.465	9
428.907	9
429.348	8.99
429.789	9.01
430.231	9.02
430.672	9.05
431.113	9.06
431.554	9.06
431.995	9.08
432.436	9.1
432.877	9.11
433.318	9.14
433.759	9.16
434.2	9.18
434.64	9.2
435.081	9.21
435.522	9.22
435.962	9.25
436.403	9.28
436.843	9.3
437.284	9.31
437.724	9.33
438.164	9.32
438.604	9.35
439.045	9.38
439.485	9.39
439.925	9.41
440.365	9.43
440.805	9.44
441.245	9.48
441.685	9.53
442.125	9.57
442.564	9.62
443.004	9.67
443.444	9.71
443.883	9.76
444.323	9.79
444.762	9.84
445.202	9.89
445.641	9.95
446.081	9.99
446.52	10.02
446.959	10.08
447.398	10.14
447.837	10.19
448.276	10.22
448.716	10.26
449.154	10.32
449.593	10.37
450.032	10.42
450.471	10.44
450.91	10.47
451.349	10.51
451.787	10.53
452.226	10.55
452.664	10.57
453.103	10.6
453.541	10.62
453.98	10.64
454.418	10.64
454.856	10.64
455.295	10.65
455.733	10.66
456.171	10.67
456.609	10.67
457.047	10.67
457.485	10.67
457.923	10.68
458.361	10.69
458.798	10.69
459.236	10.69
459.674	10.7
460.111	10.71
460.549	10.71
460.987	10.71
461.424	10.72
461.862	10.73
462.299	10.73
462.736	10.73
463.173	10.73
463.611	10.73
464.048	10.74
464.485	10.75
464.922	10.74
465.359	10.76
465.796	10.77
466.233	10.77
466.67	10.78
467.106	10.79
467.543	10.79
467.98	10.77
468.416	10.76
468.853	10.76
469.29	10.76
469.726	10.76
470.162	10.75
470.599	10.74
471.035	10.73
471.471	10.73
471.907	10.72
472.344	10.72
472.78	10.75
473.216	10.75
473.652	10.76
474.088	10.77
474.523	10.79
474.959	10.81
475.395	10.82
475.831	10.83
476.266	10.84
476.702	10.85
477.138	10.87
477.573	10.87
478.008	10.89
478.444	10.89
478.879	10.9
479.314	10.9
479.75	10.9
480.185	10.89
480.62	10.9
481.055	10.91
481.49	10.92
481.925	10.94
482.36	10.95
482.795	10.95
483.229	10.96
483.664	10.98
484.099	10.98
484.534	11
484.968	11.03
485.403	11.05
485.837	11.07
486.271	11.1
486.706	11.13
487.14	11.14
487.574	11.18
488.009	11.22
488.443	11.26
488.877	11.31
489.311	11.36
489.745	11.41
490.179	11.47
490.613	11.52
491.046	11.57
491.48	11.64
491.914	11.71
492.348	11.78
492.781	11.86
493.215	11.93
493.648	12
494.082	12.07
494.515	12.15
494.948	12.23
495.382	12.32
495.815	12.41
496.248	12.5
496.681	12.6
497.114	12.7
497.547	12.78
497.98	12.89
498.413	13.01
498.846	13.12
499.279	13.23
499.711	13.35
500.144	13.47
500.577	13.59
501.009	13.71
501.442	13.84
501.874	13.98
502.306	14.12
502.739	14.28
503.171	14.42
503.603	14.58
504.036	14.74
504.468	14.9
504.9	15.05
505.332	15.22
505.764	15.39
506.196	15.57
506.627	15.74
507.059	15.91
507.491	16.09
507.923	16.28
508.354	16.48
508.786	16.67
509.217	16.88
509.649	17.09
510.08	17.29
510.512	17.49
510.943	17.71
511.374	17.92
511.805	18.14
512.237	18.35
512.668	18.56
513.099	18.76
513.53	18.96
513.961	19.17
514.391	19.39
514.822	19.6
515.253	19.8
515.684	19.99
516.114	20.21
516.545	20.42
516.975	20.63
517.406	20.83
517.836	21.04
518.267	21.25
518.697	21.44
519.127	21.62
519.558	21.82
519.988	22.02
520.418	22.2
520.848	22.37
521.278	22.54
521.708	22.86
522.138	23.02
522.567	23.18
522.997	23.34
523.427	23.48
523.857	23.63
524.286	23.74
524.716	23.89
525.145	24.02
525.575	24.16
526.004	24.28
526.433	24.24
526.863	24.37
527.292	24.48
527.721	24.57
528.15	24.68
528.579	24.77
529.008	24.86
529.437	24.93
529.866	25.01
530.295	25.08
530.724	25.16
531.152	25.24
531.581	25.3
532.01	25.36
532.438	25.44
532.867	25.5
533.295	25.57
533.723	25.62
534.152	25.68
534.58	25.72
535.008	25.76
535.436	25.79
535.865	25.82
536.293	25.84
536.721	25.87
537.149	25.91
537.576	25.94
538.004	25.98
538.432	26
538.86	26.03
539.287	26.05
539.715	26.1
540.143	26.12
540.57	26.16
540.998	26.18
541.425	26.2
541.852	26.21
542.28	26.22
542.707	26.22
543.134	26.26
543.561	26.28
543.988	26.31
544.415	26.3
544.842	26.31
545.269	26.31
545.696	26.33
546.123	26.35
546.549	26.37
546.976	26.39
547.403	26.42
547.829	26.42
548.256	26.44
548.682	26.44
549.108	26.47
549.535	26.5
549.961	26.5
550.387	26.49
550.813	26.5
551.24	26.5
551.666	26.5
552.092	26.49
552.518	26.51
552.943	26.49
553.369	26.49
553.795	26.47
554.221	26.46
554.646	26.46
555.072	26.46
555.498	26.43
555.923	26.42
556.349	26.39
556.774	26.37
557.199	26.33
557.625	26.3
558.05	26.27
558.475	26.23
558.9	26.2
559.325	26.17
559.75	26.14
560.175	26.11
560.6	26.05
561.025	26.02
561.449	25.97
561.874	25.91
562.299	25.86
562.723	25.8
563.148	25.74
563.572	25.66
563.997	25.6
564.421	25.51
564.846	25.44
565.27	25.37
565.694	25.3
566.118	25.23
566.542	25.17
566.966	25.09
567.39	25.01
567.814	24.94
568.238	24.87
568.662	24.79
569.086	24.72
569.509	24.65
569.933	24.58
570.357	24.49
570.78	24.4
571.204	24.31
571.627	24.24
572.05	24.14
572.474	24.06
572.897	23.99
573.32	23.92
573.743	23.85
574.166	23.78
574.589	23.69
575.012	23.62
575.435	23.54
575.858	23.48
576.281	23.41
576.704	23.36
577.126	23.3
577.549	23.23
577.972	23.15
578.394	23.08
578.817	23.03
579.239	22.97
579.661	22.92
580.084	22.87
580.506	22.83
580.928	22.79
581.35	22.75
581.772	22.68
582.194	22.63
582.616	22.58
583.038	22.53
583.46	22.46
583.882	22.43
584.303	22.36
584.725	22.32
585.147	22.26
585.568	22.23
585.99	22.18
586.411	22.15
586.833	22.12
587.254	22.08
587.675	22.05
588.096	22.02
588.518	21.97
588.939	21.96
589.36	21.94
589.781	21.9
590.202	21.88
590.623	21.85
591.043	21.82
591.464	21.81
591.885	21.79
592.305	21.77
592.726	21.76
593.147	21.76
593.567	21.74
593.987	21.71
594.408	21.69
594.828	21.66
595.248	21.65
595.669	21.65
596.089	21.63
596.509	21.63
596.929	21.62
597.349	21.62
597.769	21.6
598.189	21.58
598.608	21.58
599.028	21.57
599.448	21.56
599.867	21.52
600.287	21.48
600.706	21.47
601.126	21.42
601.545	21.39
601.965	21.35
602.384	21.34
602.803	21.29
603.222	21.25
603.641	21.2
604.061	21.16
604.48	21.11
604.898	21.06
605.317	21.02
605.736	20.98
606.155	20.93
606.574	20.88
606.992	20.81
607.411	20.77
607.829	20.69
608.248	20.63
608.666	20.58
609.085	20.53
609.503	20.47
609.921	20.41
610.339	20.34
610.758	20.29
611.176	20.21
611.594	20.15
612.012	20.08
612.43	20.04
612.847	19.99
613.265	19.93
613.683	19.88
614.101	19.84
614.518	19.77
614.936	19.73
615.353	19.65
615.771	19.6
616.188	19.55
616.606	19.5
617.023	19.44
617.44	19.4
617.857	19.34
618.274	19.3
618.691	19.25
619.108	19.21
619.525	19.17
619.942	19.15
620.359	19.11
620.776	19.08
621.192	19.04
621.609	19.03
622.026	19
622.442	18.97
622.859	18.94
623.275	18.92
623.691	18.88
624.108	18.86
624.524	18.84
624.94	18.82
625.356	18.82
625.772	18.82
626.188	18.79
626.604	18.79
627.02	18.79
627.436	18.79
627.852	18.8
628.268	18.79
628.683	18.8
629.099	18.8
629.514	18.79
629.93	18.77
630.345	18.75
630.761	18.74
631.176	18.71
631.591	18.69
632.007	18.66
632.422	18.61
632.837	18.59
633.252	18.54
633.667	18.5
634.082	18.44
634.497	18.4
634.911	18.34
635.326	18.28
635.741	18.22
636.155	18.16
636.57	18.1
636.984	18.03
637.399	17.96
637.813	17.89
638.228	17.81
638.642	17.73
639.056	17.62
639.47	17.55
639.884	17.46
640.298	17.38
640.712	17.28
641.126	17.17
641.54	17.06
641.954	16.95
642.368	16.84
642.781	16.75
643.195	16.65
643.609	16.56
644.022	16.45
644.436	16.34
644.849	16.24
645.262	16.13
645.676	16.05
646.089	15.97
646.502	15.89
646.915	15.82
647.328	15.74
647.741	15.67
648.154	15.61
648.567	15.56
648.98	15.49
649.393	15.44
649.805	15.4
650.218	15.36
650.631	15.31
651.043	15.26
651.456	15.22
651.868	15.16
652.28	15.11
652.693	15.06
653.105	15.01
653.517	14.96
653.929	14.9
654.341	14.83
654.753	14.76
655.165	14.69
655.577	14.62
655.989	14.52
656.401	14.43
656.813	14.35
657.224	14.24
657.636	14.12
658.047	14.02
658.459	13.92
658.87	13.79
659.282	13.67
659.693	13.55
660.104	13.43
660.515	13.31
660.926	13.2
661.338	13.07
661.749	12.97
662.159	12.86
662.57	12.76
662.981	12.64
663.392	12.55
663.803	12.46
664.213	12.36
664.624	12.27
665.035	12.19
665.445	12.11
665.855	12.04
666.266	11.98
666.676	11.93
667.086	11.86
667.497	11.8
667.907	11.75
668.317	11.7
668.727	11.64
669.137	11.59
669.547	11.55
669.956	11.51
670.366	11.47
670.776	11.42
671.186	11.39
671.595	11.37
672.005	11.34
672.414	11.32
672.824	11.3
673.233	11.3
673.642	11.3
674.052	11.29
674.461	11.29
674.87	11.29
675.279	11.32
675.688	11.32
676.097	11.34
676.506	11.36
676.915	11.39
677.323	11.42
677.732	11.44
678.141	11.49
678.549	11.53
678.958	11.59
679.366	11.65
679.775	11.72
680.183	11.82
680.592	11.93
681	12.05
681.408	12.17
681.816	12.31
682.224	12.47
682.632	12.64
683.04	12.82
683.448	13.03
683.856	13.24
684.264	13.48
684.671	13.73
685.079	13.98
685.487	14.27
685.894	14.58
686.302	14.91
686.709	15.24
687.116	15.59
687.524	15.95
687.931	16.32
688.338	16.72
688.745	17.1
689.152	17.5
689.559	17.92
689.966	18.35
690.373	18.77
690.78	19.18
691.187	19.6
691.593	20.02
692	20.43
692.407	20.83
692.813	21.23
693.22	21.63
693.626	22.01
694.032	22.39
694.439	22.75
694.845	23.13
695.251	23.48
695.657	23.82
696.063	24.17
696.469	24.52
696.875	24.86
697.281	25.19
697.687	25.52
698.093	25.84
698.498	26.15
698.904	26.44
699.31	26.71
699.715	27
700.12	27.29
700.526	27.56
700.931	27.81
701.337	28.05
701.742	28.3
702.147	28.51
702.552	28.74
702.957	28.96
703.362	29.16
703.767	29.35
704.172	29.54
704.577	29.73
704.981	29.91
705.386	30.09
705.791	30.27
706.195	30.43
706.6	30.62
707.004	30.78
707.408	30.95
707.813	31.13
708.217	31.3
708.621	31.47
709.025	31.6
709.43	31.74
709.834	31.9
710.237	32.03
710.641	32.16
711.045	32.28
711.449	32.41
711.853	32.54
712.256	32.62
712.66	32.72
713.064	32.82
713.467	32.94
713.87	33.04
714.274	33.11
714.677	33.22
715.08	33.32
715.484	33.43
715.887	33.54
716.29	33.59
716.693	33.7
717.096	33.8
717.499	33.91
717.901	34
718.304	34.08
718.707	34.18
719.109	34.27
719.512	34.35
719.915	34.42
720.317	34.48
720.719	34.55
721.122	34.62
721.524	34.7
721.926	34.77
722.328	34.86
722.731	34.93
723.133	34.99
723.535	35.05
723.937	35.09
724.338	35.14
724.74	35.2
725.142	35.34
725.544	35.38
725.945	35.44
726.347	35.45
726.748	35.46
727.15	35.49
727.551	35.55
727.952	35.61
728.354	35.63
728.755	35.67
729.156	35.7
729.557	35.65
729.958	35.68
730.359	35.7
730.76	35.77
731.161	35.8
731.562	35.86
731.962	35.87
732.363	35.89
732.763	35.94
733.164	35.99
733.564	36.02
733.965	36.05
734.365	36.09
734.766	36.11
735.166	36.11
735.566	36.13
735.966	36.16
736.366	36.18
736.766	36.19
737.166	36.23
737.566	36.23
737.966	36.24
738.365	36.24
738.765	36.25
739.165	36.27
739.564	36.31
739.964	36.32
740.363	36.28
740.763	36.29
741.162	36.3
741.561	36.28
741.96	36.27
742.36	36.26
742.759	36.29
743.158	36.3
743.557	36.29
743.955	36.26
744.354	36.28
744.753	36.34
745.152	36.35
745.55	36.38
745.949	36.4
746.348	36.42
746.746	36.43
747.144	36.45
747.543	36.46
747.941	36.48
748.339	36.5
748.737	36.48
749.136	36.47
749.534	36.48
749.932	36.46
750.33	36.46
750.727	36.47
751.125	36.46
751.523	36.45
751.921	36.45
752.318	36.45
752.716	36.46
753.113	36.47
753.511	36.48
753.908	36.48
754.305	36.49
754.703	36.47
755.1	36.46
755.497	36.48
755.894	36.48
756.291	36.48
756.688	36.47
757.085	36.47
757.482	36.48
757.878	36.46
758.275	36.44
758.672	36.44
759.068	36.45
759.465	36.44
759.861	36.44
760.258	36.45
760.654	36.45
761.05	36.46
761.447	36.47
761.843	36.47
762.239	36.47
762.635	36.48
763.031	36.48
763.427	36.49
763.822	36.51
764.218	36.52
764.614	36.5
765.01	36.48
765.405	36.47
765.801	36.45
766.196	36.46
766.592	36.45
766.987	36.47
767.382	36.45
767.778	36.45
768.173	36.43
768.568	36.42
768.963	36.41
769.358	36.44
769.753	36.45
770.148	36.47
770.542	36.45
770.937	36.45
771.332	36.44
771.726	36.44
772.121	36.41
772.515	36.41
772.91	36.42
773.304	36.42
773.699	36.4
774.093	36.37
774.487	36.38
774.881	36.4
775.275	36.38
775.669	36.36
776.063	36.34
776.457	36.35
776.851	36.34
777.245	36.31
777.638	36.3
778.032	36.31
778.425	36.34
778.819	36.31
779.212	36.31
779.606	36.32
779.999	36.33
780.392	36.37
780.786	36.35
781.179	36.36
781.572	36.4
781.965	36.4
782.358	36.4
782.751	36.4
783.143	36.41
783.536	36.37
783.929	36.39
784.322	36.38
784.714	36.36
785.107	36.4
785.499	36.4
785.891	36.4
786.284	36.4
786.676	36.39
787.068	36.37
787.46	36.37
787.852	36.38
788.245	36.38
788.636	36.38
789.028	36.38
789.42	36.34
789.812	36.35
790.204	36.34
790.595	36.34
790.987	36.36
791.378	36.39
791.77	36.39
792.161	36.43
792.553	36.43
792.944	36.43
793.335	36.45
793.726	36.48
794.117	36.47
794.508	36.47
794.899	36.46
795.29	36.45
795.681	36.4
796.072	36.4
796.463	36.41
796.853	36.39
797.244	36.4
797.634	36.39
798.025	36.4
798.415	36.41
798.806	36.41
799.196	36.43
799.586	36.47
799.976	36.5
800.366	36.5
800.756	36.46
801.146	36.48
801.536	36.49
801.926	36.49
802.316	36.47
802.706	36.45
803.095	36.47
803.485	36.45
803.874	36.43
804.264	36.42
804.653	36.45
805.043	36.47
805.432	36.44
805.821	36.44
806.21	36.43
806.599	36.42
806.988	36.43
807.377	36.41
807.766	36.42
808.155	36.4
808.544	36.41
808.933	36.4
809.321	36.4
809.71	36.43
810.098	36.43
810.487	36.44
810.875	36.44
811.264	36.46
811.652	36.5
812.04	36.5
812.428	36.54
812.816	36.53
813.204	36.55
813.592	36.54
813.98	36.55
814.368	36.57
814.756	36.57
815.144	36.6
815.531	36.6
815.919	36.57
816.306	36.57
816.694	36.55
817.081	36.56
817.469	36.56
817.856	36.57
818.243	36.55
818.63	36.54
819.017	36.55
819.404	36.54
819.791	36.52
820.178	36.53
820.565	36.53
820.952	36.54
821.339	36.52
821.725	36.53
822.112	36.53
822.498	36.53
822.885	36.53
823.271	36.53
823.657	36.5
824.044	36.52
824.43	36.53
824.816	36.52
825.202	36.52
825.588	36.52
825.974	36.5
826.36	36.52
826.746	36.5
827.132	36.5
827.517	36.51
827.903	36.53
828.289	36.55
828.674	36.55
829.06	36.54
829.445	36.55
829.83	36.55
830.216	36.53
830.601	36.52
830.986	36.55
831.371	36.55
831.756	36.55
832.141	36.55
832.526	36.53
832.911	36.51
833.295	36.51
833.68	36.53
834.065	36.54
834.449	36.55
834.834	36.55
835.218	36.53
835.603	36.52
835.987	36.52
836.371	36.5
836.755	36.5
837.139	36.51
837.524	36.52
837.908	36.51
838.291	36.5
838.675	36.5
839.059	36.5
839.443	36.5
839.827	36.49
840.21	36.5
840.594	36.52
840.977	36.5
841.361	36.48
841.744	36.47
842.127	36.46
842.511	36.45
842.894	36.45
843.277	36.45
843.66	36.44
844.043	36.44
844.426	36.43
844.809	36.44
845.191	36.47
845.574	36.49
845.957	36.51
846.339	36.53
846.722	36.54
847.104	36.57
847.487	36.57
847.869	36.58
848.252	36.57
848.634	36.57
849.016	36.56
849.398	36.56
849.78	36.57
850.162	36.54
850.544	36.52
850.926	36.52
851.307	36.49
851.689	36.5
852.071	36.51
852.452	36.51
852.834	36.54
853.215	36.52
853.597	36.52
853.978	36.51
854.359	36.52
854.741	36.53
855.122	36.53
855.503	36.53
855.884	36.52
856.265	36.51
856.646	36.52
857.026	36.51
857.407	36.52
857.788	36.49
858.169	36.51
858.549	36.51
858.93	36.53
859.31	36.53
859.69	36.54
860.071	36.56
860.451	36.56
860.831	36.57
861.211	36.55
861.591	36.56
861.971	36.57
862.351	36.55
862.731	36.56
863.111	36.52
863.491	36.53
863.87	36.52
864.25	36.51
864.629	36.52
865.009	36.52
865.388	36.5
865.768	36.49
866.147	36.49
866.526	36.52
866.905	36.53
867.284	36.54
867.663	36.52
868.042	36.52
868.421	36.53
868.8	36.54
869.179	36.54
869.558	36.56
869.936	36.55
870.315	36.55
870.693	36.52
871.072	36.53
871.45	36.55
871.828	36.56
872.207	36.57
872.585	36.56
872.963	36.55
873.341	36.57
873.719	36.56
874.097	36.57
874.475	36.58
874.853	36.61
875.23	36.61
875.608	36.61
875.986	36.62
876.363	36.62
876.741	36.62
877.118	36.64
877.495	36.63
877.873	36.65
878.25	36.65
878.627	36.65
879.004	36.63
879.381	36.64
879.758	36.62
880.135	36.61
880.512	36.61
880.889	36.6
881.265	36.6
881.642	36.61
882.019	36.6
882.395	36.59
882.772	36.59
883.148	36.57
883.524	36.56
883.901	36.57
884.277	36.56
884.653	36.54
885.029	36.54
885.405	36.52
885.781	36.5
886.157	36.5
886.532	36.5
886.908	36.5
887.284	36.52
887.659	36.5
888.035	36.48
888.411	36.47
888.786	36.48
889.161	36.5
889.537	36.51
889.912	36.5
890.287	36.49
890.662	36.48
891.037	36.49
891.412	36.47
891.787	36.47
892.162	36.46
892.536	36.46
892.911	36.46
893.286	36.45
893.66	36.43
894.035	36.44
894.409	36.44
894.784	36.43
895.158	36.42
895.532	36.42
895.906	36.41
896.281	36.42
896.655	36.41
897.029	36.42
897.402	36.4
897.776	36.42
898.15	36.42
898.524	36.43
898.898	36.41
899.271	36.43
899.645	36.44
900.018	36.45
900.392	36.47
900.765	36.5
901.138	36.49
901.511	36.5
901.884	36.48
902.258	36.49
902.631	36.49
903.003	36.51
903.376	36.5
903.749	36.5
904.122	36.52
904.495	36.51
904.867	36.5
905.24	36.52
905.612	36.53
905.985	36.53
906.357	36.53
906.729	36.55
907.102	36.57
907.474	36.6
907.846	36.61
908.218	36.58
908.59	36.58
908.962	36.59
909.334	36.58
909.705	36.57
910.077	36.61
910.449	36.58
910.82	36.56
911.192	36.54
911.563	36.5
911.935	36.48
912.306	36.5
912.677	36.5
913.048	36.52
913.419	36.52
913.79	36.51
914.161	36.48
914.532	36.5
914.903	36.5
915.274	36.53
915.645	36.54
916.015	36.55
916.386	36.56
916.756	36.56
917.127	36.54
917.497	36.55
917.868	36.56
918.238	36.57
918.608	36.59
918.978	36.6
919.348	36.59
919.718	36.59
920.088	36.6
920.458	36.61
920.828	36.6
921.198	36.6
921.567	36.6
921.937	36.63
922.306	36.62
922.676	36.61
923.045	36.6
923.415	36.59
923.784	36.57
924.153	36.59
924.522	36.6
924.891	36.58
925.26	36.59
925.629	36.58
925.998	36.54
926.367	36.56
926.736	36.57
927.104	36.6
927.473	36.59
927.842	36.58
928.21	36.55
928.578	36.51
928.947	36.56
929.315	36.54
929.683	36.54
930.051	36.54
930.42	36.52
930.788	36.5
931.156	36.44
931.523	36.45
931.891	36.48
932.259	36.51
932.627	36.52
932.994	36.49
933.362	36.51
933.729	36.52
934.097	36.51
934.464	36.52
934.831	36.52
935.199	36.56
935.566	36.56
935.933	36.5
936.3	36.48
936.667	36.44
937.034	36.5
937.401	36.47
937.767	36.47
938.134	36.44
938.501	36.41
938.867	36.44
939.234	36.45
939.6	36.48
939.967	36.55
940.333	36.52
940.699	36.57
941.065	36.49
941.431	36.47
941.798	36.5
942.163	36.55
942.529	36.53
942.895	36.53
943.261	36.5
943.627	36.48
943.992	36.42
944.358	36.44
944.723	36.41
945.089	36.36
945.454	36.4
945.82	36.34
946.185	36.32
946.55	36.33
946.915	36.27
947.28	36.24
947.645	36.21
948.01	36.19
948.375	36.17
948.74	36.15
949.104	36.2
949.469	36.15
949.834	36.11
950.198	36.07
950.562	36.05
950.927	36.05
951.291	36
951.655	35.96
952.02	35.97
952.384	35.93
952.748	35.94
953.112	35.91
953.476	35.86
953.839	35.86
954.203	35.85
954.567	35.78
954.931	35.71
955.294	35.74
955.658	35.77
956.021	35.77
956.385	35.76
956.748	35.72
957.111	35.7
957.474	35.7
957.837	35.67
958.2	35.63
958.563	35.65
958.926	35.71
959.289	35.68
959.652	35.62
960.015	35.63
960.377	35.59
960.74	35.63
961.102	35.62
961.465	35.65
961.827	35.68
962.189	35.73
962.552	35.71
962.914	35.69
963.276	35.72
963.638	35.77
964	35.71
964.362	35.77
964.724	35.72
965.085	35.74
965.447	35.74
965.809	35.7
966.17	35.64
966.532	35.66
966.893	35.68
967.255	35.67
967.616	35.67
967.977	35.72
968.338	35.67
968.699	35.67
969.061	35.63
969.421	35.65
969.782	35.67
970.143	35.7
970.504	35.7
970.865	35.7
971.225	35.66
971.586	35.6
971.946	35.6
972.307	35.6
972.667	35.59
973.027	35.61
973.388	35.58
973.748	35.61
974.108	35.66
974.468	35.62
974.828	35.61
975.188	35.64
975.548	35.69
975.907	35.67
976.267	35.7
976.627	35.72
976.986	35.69
977.346	35.62
977.705	35.54
978.064	35.53
978.424	35.58
978.783	35.55
979.142	35.54
979.501	35.53
979.86	35.59
980.219	35.56
980.578	35.6
980.937	35.64
981.296	35.7
981.654	35.76
982.013	35.71
982.371	35.7
982.73	35.74
983.088	35.73
983.447	35.71
983.805	35.7
984.163	35.68
984.521	35.66
984.879	35.65
985.237	35.66
985.595	35.68
985.953	35.71
986.311	35.64
986.669	35.64
987.026	35.66
987.384	35.72
987.741	35.67
988.099	35.76
988.456	35.77
988.814	35.78
989.171	35.78
989.528	35.77
989.885	35.8
990.242	35.86
990.599	35.85
990.956	35.92
991.313	35.92
991.67	35.9
992.027	35.94
992.383	35.95
992.74	36.02
993.096	36
993.453	36
993.809	36
994.165	36.03
994.522	36.11
994.878	36.09
995.234	36.11
995.59	36.17
995.946	36.13
996.302	36.15
996.658	36.14
997.013	36.17
997.369	36.23
997.725	36.25
998.08	36.3
998.436	36.28
998.791	36.26
999.147	36.29
999.502	36.32
999.857	36.24
1000.212	36.22
1000.567	36.2
1000.922	36.11
1001.277	36.18
1001.632	36.14
1001.987	36.1
1002.342	36.02
1002.696	35.96
1003.051	35.98
1003.406	36.08
1003.76	36.07
1004.114	36.09
1004.469	36.16
1004.823	36.57
1005.177	36.43
1005.531	36.49
1005.885	36.52
1006.239	36.65
1006.593	36.9
1006.947	36.8
1007.301	36.59
1007.655	36.65
1008.008	36.79
1008.362	36.82
1008.715	36.59
1009.069	36.66
1009.422	36.77
1009.776	36.73
1010.129	36.68
1010.482	36.53
1010.835	36.61
1011.188	36.78
1011.541	36.84
1011.894	36.79
1012.247	36.69
1012.6	36.66
1012.952	36.79
1013.305	36.7
1013.657	36.8
1014.01	36.83
1014.362	36.93
1014.715	36.91
1015.067	36.97
1015.419	37.05
1015.771	37.2
1016.123	37.17
1016.475	37.21
1016.827	37.19
1017.179	37.34
1017.531	37.42
1017.883	37.41
1018.234	37.34
1018.586	37.45
1018.938	37.53
1019.289	37.38
1019.64	37.2
1019.992	37.17
1020.343	37.25
1020.694	37.13
1021.045	37.12
1021.396	37.04
1021.747	37.31
1022.098	37.54
1022.449	37.6
1022.8	37.72
1023.151	37.71
1023.501	38.01
1023.852	38.23
1024.202	38.12
1024.553	38.11
1024.903	38.34
1025.253	38.85
1025.604	38.8
1025.954	38.43
1026.304	38.57
1026.654	38.46
1027.004	38.63
1027.354	38.45
1027.703	38.44
1028.053	38.56
1028.403	38.86
1028.753	38.61
1029.102	38.28
1029.452	38.27
1029.801	38.56
1030.15	38.46
1030.499	38.36
897.758	1395.64
901.051	1408.43
904.343	1400
907.636	1418.81
910.928	1379.71
914.22	1382.18
917.511	1362.02
920.803	1304.64
924.094	1295.11
927.384	1267.38
930.675	1216.14
933.965	1209.95
937.255	1132.88
940.544	1089.53
943.834	1039.81
947.123	1031.55
950.411	968.74
953.7	947.66
956.988	895.44
960.276	859.22
963.563	847.77
966.851	815.58
970.138	807.89
973.424	783.6
976.711	787.8
979.997	748.18
983.283	743.28
986.568	727.77
989.853	704.75
993.138	692.35
996.423	665.53
999.708	645.62
1002.992	638.93
1006.275	610.37
1009.559	605.98
1012.842	582.98
1016.125	567.12
1019.408	556.16
1022.69	548.91
1025.972	538.43
1029.254	523.82
1032.536	515.49
1035.817	503.67
1039.098	496.14
1042.379	486.05
1045.659	479.74
1048.939	468.16
1052.219	459.12
1055.498	452.21
1058.778	440.82
1062.057	430.75
1065.335	426.31
1068.614	422.09
1071.892	417.62
1075.17	404.32
1078.447	396
1081.724	393.09
1085.001	389.63
1088.278	381.63
1091.554	374.13
1094.83	374.79
1098.106	372.16
1101.382	369.32
1104.657	366.23
1107.932	360.26
1111.206	361.33
1114.481	353.15
1117.755	349.41
1121.029	346.43
1124.302	345.74
1127.575	338.81
1130.848	334.39
1134.121	330.58
1137.393	328.06
1140.665	320.34
1143.937	318.54
1147.208	317.83
1150.48	316.51
1153.75	312.26
1157.021	307.79
1160.291	308.32
1163.561	305.47
1166.831	305.04
1170.101	302.48
1173.37	302.97
1176.639	303.54
1179.907	300.83
1183.176	296.86
1186.444	296.6
1189.711	296.32
1192.979	295.81
1196.246	293.48
1199.513	293.88
1202.78	292.16
1206.046	292.65
1209.312	288.82
1212.578	289.67
1215.843	291.51
1219.108	289.88
1222.373	295.96
1225.638	297.84
1228.902	302.04
1232.166	301.86
1235.43	305.44
1238.693	309.58
1241.956	310.8
1245.219	315.47
1248.482	315.07
1251.744	315.22
1255.006	315.89
1258.268	307.43
1261.529	304.68
1264.79	302.81
1268.051	301.26
1271.312	297.21
1274.572	292.83
1277.832	290.1
1281.092	286.16
1284.351	284.16
1287.61	283.73
1290.869	279.85
1294.128	278.18
1297.386	278.43
1300.644	274.55
1303.902	275.87
1307.159	274.18
1310.416	274.79
1313.673	274.3
1316.93	276.69
1320.186	277.08
1323.442	278.15
1326.697	283.17
1329.953	284.76
1333.208	285.53
1336.463	289.42
1339.717	289.52
1342.972	293.64
1346.226	296.04
1349.479	296.51
1352.733	297.94
1355.986	299.55
1359.238	299.11
1362.491	300.79
1365.743	303.13
1368.995	303.41
1372.247	303.04
1375.498	302.82
1378.749	305.12
1382	301.3
1385.251	303.24
1388.501	301.85
1391.751	302.85
1395	303.21
1398.25	300.08
1401.499	298.83
1404.748	298.43
1407.996	296.53
1411.244	295.34
1414.492	293.52
1417.74	291.81
1420.987	287.09
1424.234	286.92
1427.481	282.88
1430.728	282
1433.974	279.62
1437.22	277.07
1440.465	277.09
1443.711	274.61
1446.956	273.27
1450.201	269.88
1453.445	267.31
1456.689	266.47
1459.933	261.35
1463.177	259.46
1466.42	254.89
1469.663	251.73
1472.906	250.41
1476.148	243.23
1479.391	240.22
1482.633	237.83
1485.874	233.71
1489.115	232.5
1492.356	229.16
1495.597	229
1498.838	224.76
1502.078	223.42
1505.318	222.68
1508.557	222.34
1511.797	221.7
1515.036	220.39
1518.274	219.81
1521.513	217.98
1524.751	217.12
1527.989	216.87
1531.227	215.24
1534.464	216.35
1537.701	214.11
1540.938	213.65
1544.174	210.88
1547.41	210.88
1550.646	209.48
1553.882	209.11
1557.117	206.41
1560.352	205.23
1563.587	204.46
1566.821	203.18
1570.055	201.05
1573.289	199.75
1576.523	199
1579.756	197.49
1582.989	196.51
1586.222	196.71
1589.454	194.75
1592.686	196.79
1595.918	195.57
1599.15	194.82
1602.381	195.19
1605.612	195.11
1608.843	196.11
1612.073	195.59
1615.303	196.83
1618.533	196.14
1621.762	195.3
1624.992	196.53
1628.221	195.97
1631.449	196.06
1634.678	195.2
1637.906	196.18
1641.134	196.17
1644.361	195.49
1647.588	196.73
1650.815	195.67
1654.042	194.8
1657.269	196.08
1660.495	195.76
1663.72	195.1
1666.946	195.88
1670.171	196.72
1673.396	196.54
1676.621	196.78
1679.845	197.19
1683.069	197.03
1686.293	198.26
1689.517	199.9
1692.74	199.61
1695.963	200.22
1699.185	202.03
1702.408	202.19
1705.63	202.94
1708.852	203.09
1712.073	203.68
1715.294	204
1718.515	205.64
1721.736	205.13
1724.956	206.07
1728.176	206
1731.396	207.78
1734.616	207.04
1737.835	208.14
1741.054	206.76
1744.272	207.69
1747.491	209.14
1750.709	209.95
1753.927	209.23
1757.144	208.92
1760.361	209.32
1763.578	210.36
1766.795	209.61
1770.011	211.3
1773.227	211.06
1776.443	214.14
1779.658	214.73
1782.874	214.48
1786.089	214.66
1789.303	215.56
1792.518	218.53
1795.732	218.57
1798.945	220.66
1802.159	220.77
1805.372	221.16
1808.585	224.75
1811.797	224.99
1815.01	225.65
1818.222	227.36
1821.434	230.06
1824.645	230.85
1827.856	234.42
1831.067	236.52
1834.278	235.49
1837.488	238.07
1840.698	239.8
1843.908	238.04
1847.117	239.54
1850.326	241.22
1853.535	240.73
1856.744	243.69
1859.952	243.89
1863.16	242.93
1866.368	240.56
1869.575	243.89
1872.782	240.46
1875.989	240.46
1879.196	240
1882.402	238.92
1885.608	239.58
1888.814	240.6
1892.019	240.67
1895.224	240.61
1898.429	238.99
1901.634	242
1904.838	241.69
1908.042	244.81
1911.246	245.52
1914.449	246.97
1917.652	247.25
1920.855	247.62
1924.058	247.22
1927.26	245.64
1930.462	246.36
1933.664	249.14
1936.865	246.85
1940.066	247.2
1943.267	245.07
1946.467	244.91
1949.668	246.71
1952.868	249.19
1956.067	248.68
1959.267	249.29
1962.466	250.39
1965.665	249.15
1968.863	249.6
1972.061	253.87
1975.259	255.58
1978.457	257.52
1981.654	260.3
1984.852	260.46
1988.048	260.12
1991.245	262.21
1994.441	265.07
1997.637	267.17
2000.833	272.38
2004.028	276.15
2007.223	275.71
2010.418	278.45
2013.613	284.16
2016.807	286.14
2020.001	288.59
2023.194	293.07
2026.388	299.71
2029.581	306.13
2032.774	308.4
2035.966	314.09
2039.158	314.49
2042.35	321.3
2045.542	324.47
2048.733	328.89
2051.924	332.81
2055.115	338.89
2058.306	339.45
2061.496	342.37
2064.686	342.52
2067.875	348.8
2071.065	349.4
2074.254	348.37
2077.442	352.14
2080.631	353.05
2083.819	356.17
2087.007	357.31
2090.195	360.8
2093.382	364.77
2096.569	362.52
2099.756	367.03
2102.942	367.25
2106.128	371.38
2109.314	380.96
2112.5	379.91
2115.685	388.31
2118.87	389.34
2122.055	396.79
2125.239	400.26
2128.424	403.11
2131.608	407.62
2134.791	413.99
2137.974	415.98
2141.157	417.08
2144.34	416.75
2147.523	424.01
2150.705	420.14
2153.887	423.82
2157.068	424.94
2160.25	420.24
2163.431	423.43
2166.611	426.07
2169.792	434.65
2172.972	438.7
2176.152	441.64
2179.331	448.05
2182.511	454.49
2185.69	458.94
2188.868	468.62
2192.047	469.44
2195.225	483.25
2198.403	494.58
2201.58	505.99
2204.758	515.57
2207.935	526.67
2211.111	534.9
2214.288	539.92
2217.464	541.3
2220.64	552.21
2223.815	558.97
2226.991	581.3
2230.166	582.79
2233.34	594.57
2236.515	603.96
2239.689	601.55
2242.863	604.67
2246.036	624.07
2249.209	621.12
2252.382	631.92
2255.555	649.32
2258.727	651.82
2261.9	655.38
2265.071	662.27
2268.243	670.91
2271.414	678.46
2274.585	695.67
2277.756	705.35
2280.926	709.94
2284.096	724.82
2287.266	742.04
2290.436	748.59
2293.605	765.82
2296.774	789.64
2299.942	815.6
2303.111	819.86
2306.279	838.84
2309.447	850.65
2312.614	871.96
2315.781	894.42
2318.948	938.92
2322.115	924.63
2325.281	973.97
2328.447	951.71
2331.613	995.14
2334.779	981.15
2337.944	1024.51
2341.109	1034.55
2344.274	1059.21
2347.438	1096.94
2350.602	1097.45
2353.766	1127.84
2356.929	1142.4
2360.092	1135.31
2363.255	1221.11
2366.418	1212.39
2369.58	1233.95
2372.742	1315.37
2375.904	1346.55
2379.066	1341.47
2382.227	1314.05
2385.388	1428.82
2388.548	1426.12
2391.709	1447.21
2394.869	1613.74
2398.029	1540.18
2401.188	1587.39
2404.347	1580.21
2407.506	1548.24
2410.665	1595.29
2413.823	1694.07
2416.981	1792.36
2420.139	1732.03
2423.296	1717.53
2426.453	1790.18
2429.61	1721
2432.767	1803.16
2435.923	1778.14
2439.079	1952.86
2442.235	1977.62
2445.391	1958.66
2448.546	1942.34
2451.701	1886.74
2454.855	1883.75
2458.009	2000.85
2461.163	2078.49
2464.317	2157.77
2467.471	2212.3
2470.624	2219.7
2473.777	2151.22
2476.929	2100.04
2480.082	2039.15
2483.234	2013.69
2486.385	2119.09
2489.537	2127.02
2492.688	2203.86
2495.839	2147.93
2498.989	2097.6
2502.14	2114.85
2505.29	2133.71
2508.439	2167.97
2511.589	2161.29
2514.738	2354.77
2517.887	2308.1
2521.035	2436.08
2524.183	2460.31
2527.331	2475.96
2530.479	2467.28
2533.627	2483.99
