Data from N_2_HIR_IL_4N_Splice17_13-11-01-315.txt Node
Date: Sat Mar 07 13:11:01 EST 2020
User: sa697716
Spectrometer: NQ5500242
Trigger mode: 0
Integration Time (sec): 1.450000E-1
Scans to average: 20
Nonlinearity correction enabled: false
Boxcar width: 5
Storing dark spectrum: false
XAxis mode: Wavelengths
Number of Pixels in Spectrum: 512
>>>>>Begin Spectral Data<<<<<
187.83	239.91
188.298	266.66
188.766	237.74
189.233	193.02
189.701	208.97
190.169	236.52
190.636	238.13
191.104	222.6
191.571	-52.12
192.039	-337.18
192.506	-138.97
192.974	229.15
193.441	355.76
193.908	193.07
194.375	108.73
194.842	87.17
195.31	75.9
195.777	88.02
196.244	37.3
196.711	41.04
197.177	43.96
197.644	43.09
198.111	42.19
198.578	42.47
199.045	43.1
199.511	43.36
199.978	43.67
200.445	44.07
200.911	43.91
201.378	44.02
201.844	44.09
202.31	43.61
202.777	43.98
203.243	44.09
203.709	44.23
204.176	43.71
204.642	43.56
205.108	43.81
205.574	43.45
206.04	43.36
206.506	43.07
206.972	43.05
207.438	42.96
207.903	42.59
208.369	42.13
208.835	41.42
209.301	40.93
209.766	40.17
210.232	39.14
210.697	38.48
211.163	37.55
211.628	36.98
212.094	36.22
212.559	35.86
213.024	34.84
213.49	34.29
213.955	33.65
214.42	33.07
214.885	32.54
215.35	31.81
215.815	30.77
216.28	29.52
216.745	27.95
217.21	26.54
217.675	25.09
218.14	24.1
218.604	23.11
219.069	22.36
219.534	21.72
219.998	21.16
220.463	20.64
220.927	20.23
221.392	19.92
221.856	19.6
222.32	19.34
222.785	19.13
223.249	18.9
223.713	18.68
224.177	18.45
224.642	18.24
225.106	18
225.57	17.78
226.034	17.59
226.497	17.38
226.961	17.19
227.425	17.02
227.889	16.82
228.353	16.65
228.816	16.46
229.28	16.29
229.744	16.12
230.207	15.95
230.671	15.78
231.134	15.6
231.597	15.45
232.061	15.31
232.524	15.15
232.987	14.99
233.45	14.83
233.914	14.69
234.377	14.55
234.84	14.4
235.303	14.28
235.766	14.17
236.229	14.05
236.691	13.91
237.154	13.78
237.617	13.67
238.08	13.56
238.542	13.44
239.005	13.32
239.468	13.2
239.93	13.09
240.393	12.96
240.855	12.83
241.317	12.71
241.78	12.6
242.242	12.47
242.704	12.37
243.166	12.26
243.629	12.17
244.091	12.07
244.553	11.97
245.015	11.87
245.477	11.77
245.939	11.68
246.4	11.59
246.862	11.5
247.324	11.43
247.786	11.34
248.247	11.25
248.709	11.15
249.17	11.06
249.632	10.99
250.093	10.94
250.555	10.86
251.016	10.8
251.477	10.73
251.939	10.67
252.4	10.61
252.861	10.55
253.322	10.5
253.783	10.46
254.244	10.4
254.705	10.33
255.166	10.28
255.627	10.22
256.088	10.17
256.549	10.12
257.009	10.05
257.47	9.98
257.931	9.92
258.391	9.84
258.852	9.78
259.312	9.72
259.773	9.68
260.233	9.62
260.694	9.57
261.154	9.51
261.614	9.48
262.074	9.43
262.534	9.39
262.994	9.36
263.455	9.33
263.915	9.3
264.374	9.27
264.834	9.24
265.294	9.2
265.754	9.18
266.214	9.17
266.673	9.14
267.133	9.13
267.593	9.1
268.052	9.08
268.512	9.07
268.971	9.06
269.431	9.04
269.89	9.02
270.349	9.02
270.809	8.99
271.268	8.97
271.727	8.95
272.186	8.92
272.645	8.91
273.104	8.89
273.563	8.87
274.022	8.84
274.481	8.82
274.94	8.8
275.399	8.77
275.857	8.74
276.316	8.72
276.775	8.7
277.233	8.68
277.692	8.66
278.15	8.64
278.609	8.61
279.067	8.58
279.525	8.56
279.984	8.54
280.442	8.52
280.9	8.49
281.358	8.47
281.816	8.45
282.274	8.41
282.732	8.37
283.19	8.34
283.648	8.31
284.106	8.28
284.564	8.24
285.021	8.2
285.479	8.17
285.937	8.13
286.394	8.1
286.852	8.06
287.309	8.03
287.767	7.99
288.224	7.96
288.682	7.92
289.139	7.89
289.596	7.85
290.053	7.82
290.511	7.78
290.968	7.75
291.425	7.72
291.882	7.69
292.339	7.66
292.796	7.65
293.252	7.62
293.709	7.6
294.166	7.58
294.623	7.56
295.079	7.55
295.536	7.53
295.992	7.51
296.449	7.49
296.905	7.47
297.362	7.45
297.818	7.42
298.274	7.41
298.731	7.39
299.187	7.37
299.643	7.33
300.099	7.31
300.555	7.29
301.011	7.27
301.467	7.25
301.923	7.23
302.379	7.21
302.835	7.2
303.291	7.17
303.746	7.16
304.202	7.14
304.658	7.14
305.113	7.12
305.569	7.11
306.024	7.09
306.479	7.07
306.935	7.04
307.39	7.03
307.845	7.01
308.301	6.99
308.756	6.97
309.211	6.96
309.666	6.94
310.121	6.92
310.576	6.9
311.031	6.89
311.486	6.88
311.94	6.88
312.395	6.86
312.85	6.85
313.305	6.83
313.759	6.83
314.214	6.8
314.668	6.79
315.123	6.78
315.577	6.75
316.032	6.73
316.486	6.71
316.94	6.67
317.394	6.65
317.849	6.63
318.303	6.6
318.757	6.58
319.211	6.57
319.665	6.55
320.119	6.52
320.572	6.5
321.026	6.48
321.48	6.47
321.934	6.45
322.387	6.43
322.841	6.42
323.295	6.4
323.748	6.39
324.202	6.37
324.655	6.36
325.108	6.35
325.562	6.34
326.015	6.33
326.468	6.32
326.921	6.31
327.374	6.31
327.827	6.3
328.28	6.29
328.733	6.28
329.186	6.27
329.639	6.25
330.092	6.24
330.545	6.23
330.997	6.22
331.45	6.21
331.903	6.21
332.355	6.21
332.808	6.2
333.26	6.18
333.713	6.18
334.165	6.16
334.617	6.17
335.069	6.16
335.522	6.16
335.974	6.15
336.426	6.13
336.878	6.12
337.33	6.11
337.782	6.1
338.234	6.1
338.686	6.08
339.137	6.07
339.589	6.05
340.041	6.03
340.493	6
340.944	5.98
341.396	5.97
341.847	5.94
342.299	5.92
342.75	5.9
343.201	5.88
343.653	5.86
344.104	5.84
344.555	5.82
345.006	5.81
345.457	5.8
345.908	5.79
346.359	5.79
346.81	5.78
347.261	5.77
347.712	5.76
348.163	5.75
348.613	5.75
349.064	5.74
349.515	5.74
349.965	5.73
350.416	5.71
350.866	5.71
351.317	5.7
351.767	5.69
352.217	5.68
352.668	5.67
353.118	5.67
353.568	5.66
354.018	5.65
354.468	5.64
354.918	5.64
355.368	5.64
355.818	5.64
356.268	5.63
356.718	5.63
357.168	5.62
357.617	5.62
358.067	5.61
358.517	5.61
358.966	5.61
359.416	5.61
359.865	5.6
360.315	5.6
360.764	5.6
361.213	5.58
361.663	5.56
362.112	5.57
362.561	5.57
363.01	5.57
363.459	5.54
363.908	5.54
364.357	5.54
364.806	5.52
365.255	5.51
365.703	5.51
366.152	5.51
366.601	5.51
367.05	5.5
367.498	5.48
367.947	5.47
368.395	5.47
368.844	5.45
369.292	5.42
369.74	5.42
370.189	5.41
370.637	5.4
371.085	5.38
371.533	5.37
371.981	5.37
372.429	5.37
372.877	5.36
373.325	5.36
373.773	5.35
374.221	5.34
374.669	5.33
375.116	5.31
375.564	5.3
376.012	5.29
376.459	5.29
376.907	5.28
377.354	5.27
377.801	5.26
378.249	5.24
378.696	5.23
379.143	5.22
379.591	5.22
380.038	5.21
380.485	5.2
380.932	5.2
381.379	5.2
381.826	5.18
382.273	5.18
382.72	5.16
383.166	5.16
383.613	5.15
384.06	5.14
384.506	5.13
384.953	5.13
385.4	5.11
385.846	5.1
386.292	5.09
386.739	5.08
387.185	5.07
387.631	5.07
388.078	5.07
388.524	5.07
388.97	5.06
389.416	5.07
389.862	5.06
390.308	5.07
390.754	5.08
391.2	5.09
391.645	5.1
392.091	5.12
392.537	5.12
392.983	5.11
393.428	5.12
393.874	5.13
394.319	5.13
394.765	5.14
395.21	5.13
395.655	5.13
396.101	5.13
396.546	5.13
396.991	5.14
397.436	5.15
397.881	5.17
398.326	5.18
398.771	5.19
399.216	5.2
399.661	5.21
400.106	5.22
400.551	5.24
400.995	5.25
401.44	5.26
401.885	5.26
402.329	5.29
402.774	5.3
403.218	5.33
403.663	5.35
404.107	5.36
404.551	5.37
404.995	5.38
405.44	5.39
405.884	5.41
406.328	5.43
406.772	5.43
407.216	5.44
407.66	5.46
408.104	5.44
408.547	5.45
408.991	5.48
409.435	5.49
409.879	5.5
410.322	5.53
410.766	5.54
411.209	5.57
411.653	5.6
412.096	5.61
412.54	5.63
412.983	5.66
413.426	5.7
413.869	5.72
414.312	5.76
414.756	5.79
415.199	5.78
415.642	5.8
416.085	5.81
416.527	5.81
416.97	5.81
417.413	5.82
417.856	5.82
418.298	5.82
418.741	5.82
419.184	5.81
419.626	5.82
420.069	5.84
420.511	5.86
420.953	5.86
421.396	5.89
421.838	5.9
422.28	5.91
422.722	5.94
423.164	5.95
423.606	5.96
424.048	5.97
424.49	5.97
424.932	5.97
425.374	5.96
425.816	5.95
426.258	5.93
426.699	5.91
427.141	5.93
427.582	5.91
428.024	5.92
428.465	5.93
428.907	5.92
429.348	5.91
429.789	5.92
430.231	5.92
430.672	5.94
431.113	5.96
431.554	5.97
431.995	5.98
432.436	5.99
432.877	6
433.318	6.01
433.759	6.03
434.2	6.05
434.64	6.05
435.081	6.07
435.522	6.09
435.962	6.1
436.403	6.11
436.843	6.11
437.284	6.1
437.724	6.1
438.164	6.08
438.604	6.09
439.045	6.09
439.485	6.1
439.925	6.09
440.365	6.09
440.805	6.08
441.245	6.1
441.685	6.13
442.125	6.14
442.564	6.16
443.004	6.18
443.444	6.17
443.883	6.17
444.323	6.16
444.762	6.17
445.202	6.16
445.641	6.19
446.081	6.19
446.52	6.17
446.959	6.2
447.398	6.21
447.837	6.22
448.276	6.24
448.716	6.24
449.154	6.27
449.593	6.28
450.032	6.29
450.471	6.27
450.91	6.28
451.349	6.29
451.787	6.27
452.226	6.25
452.664	6.26
453.103	6.26
453.541	6.25
453.98	6.26
454.418	6.24
454.856	6.23
455.295	6.21
455.733	6.19
456.171	6.17
456.609	6.16
457.047	6.15
457.485	6.12
457.923	6.12
458.361	6.11
458.798	6.11
459.236	6.11
459.674	6.1
460.111	6.11
460.549	6.12
460.987	6.12
461.424	6.13
461.862	6.13
462.299	6.13
462.736	6.13
463.173	6.14
463.611	6.13
464.048	6.13
464.485	6.13
464.922	6.14
465.359	6.13
465.796	6.14
466.233	6.15
466.67	6.17
467.106	6.19
467.543	6.18
467.98	6.18
468.416	6.16
468.853	6.17
469.29	6.16
469.726	6.16
470.162	6.16
470.599	6.16
471.035	6.14
471.471	6.12
471.907	6.1
472.344	6.1
472.78	6.1
473.216	6.09
473.652	6.09
474.088	6.08
474.523	6.08
474.959	6.06
475.395	6.04
475.831	6.03
476.266	6.02
476.702	6.01
477.138	6
477.573	5.98
478.008	5.98
478.444	5.96
478.879	5.97
479.314	5.95
479.75	5.95
480.185	5.93
480.62	5.93
481.055	5.92
481.49	5.91
481.925	5.91
482.36	5.9
482.795	5.9
483.229	5.88
483.664	5.88
484.099	5.88
484.534	5.87
484.968	5.88
485.403	5.88
485.837	5.89
486.271	5.9
486.706	5.91
487.14	5.93
487.574	5.94
488.009	5.97
488.443	5.99
488.877	6.02
489.311	6.05
489.745	6.08
490.179	6.13
490.613	6.16
491.046	6.2
491.48	6.24
491.914	6.27
492.348	6.31
492.781	6.36
493.215	6.41
493.648	6.46
494.082	6.52
494.515	6.58
494.948	6.64
495.382	6.7
495.815	6.77
496.248	6.85
496.681	6.93
497.114	7.01
497.547	7.09
497.98	7.17
498.413	7.26
498.846	7.36
499.279	7.47
499.711	7.57
500.144	7.69
500.577	7.8
501.009	7.92
501.442	8.05
501.874	8.19
502.306	8.33
502.739	8.49
503.171	8.66
503.603	8.83
504.036	8.99
504.468	9.16
504.9	9.34
505.332	9.53
505.764	9.74
506.196	9.94
506.627	10.15
507.059	10.37
507.491	10.59
507.923	10.81
508.354	11.06
508.786	11.31
509.217	11.58
509.649	11.84
510.08	12.11
510.512	12.38
510.943	12.66
511.374	12.95
511.805	13.26
512.237	13.55
512.668	13.86
513.099	14.15
513.53	14.48
513.961	14.8
514.391	15.13
514.822	15.47
515.253	15.79
515.684	16.12
516.114	16.45
516.545	16.78
516.975	17.13
517.406	17.48
517.836	17.81
518.267	18.14
518.697	18.47
519.127	18.78
519.558	19.1
519.988	19.44
520.418	19.76
520.848	20.09
521.278	20.4
521.708	20.88
522.138	21.17
522.567	21.47
522.997	21.76
523.427	22.04
523.857	22.34
524.286	22.6
524.716	22.87
525.145	23.13
525.575	23.37
526.004	23.61
526.433	23.67
526.863	23.9
527.292	24.11
527.721	24.33
528.15	24.53
528.579	24.72
529.008	24.9
529.437	25.06
529.866	25.2
530.295	25.36
530.724	25.5
531.152	25.65
531.581	25.8
532.01	25.93
532.438	26.06
532.867	26.17
533.295	26.27
533.723	26.37
534.152	26.47
534.58	26.6
535.008	26.68
535.436	26.76
535.865	26.82
536.293	26.88
536.721	26.93
537.149	27
537.576	27.06
538.004	27.12
538.432	27.17
538.86	27.24
539.287	27.25
539.715	27.3
540.143	27.35
540.57	27.4
540.998	27.43
541.425	27.47
541.852	27.51
542.28	27.54
542.707	27.56
543.134	27.6
543.561	27.62
543.988	27.67
544.415	27.69
544.842	27.69
545.269	27.7
545.696	27.73
546.123	27.75
546.549	27.77
546.976	27.8
547.403	27.83
547.829	27.84
548.256	27.85
548.682	27.86
549.108	27.89
549.535	27.92
549.961	27.93
550.387	27.92
550.813	27.92
551.24	27.9
551.666	27.87
552.092	27.84
552.518	27.83
552.943	27.8
553.369	27.77
553.795	27.73
554.221	27.69
554.646	27.65
555.072	27.61
555.498	27.56
555.923	27.5
556.349	27.44
556.774	27.38
557.199	27.29
557.625	27.2
558.05	27.12
558.475	27.03
558.9	26.92
559.325	26.81
559.75	26.71
560.175	26.6
560.6	26.48
561.025	26.35
561.449	26.22
561.874	26.09
562.299	25.96
562.723	25.81
563.148	25.67
563.572	25.51
563.997	25.36
564.421	25.18
564.846	25.03
565.27	24.87
565.694	24.72
566.118	24.56
566.542	24.4
566.966	24.23
567.39	24.07
567.814	23.89
568.238	23.73
568.662	23.56
569.086	23.39
569.509	23.21
569.933	23.04
570.357	22.85
570.78	22.68
571.204	22.5
571.627	22.33
572.05	22.17
572.474	22.01
572.897	21.86
573.32	21.72
573.743	21.57
574.166	21.43
574.589	21.27
575.012	21.13
575.435	20.99
575.858	20.86
576.281	20.72
576.704	20.58
577.126	20.44
577.549	20.32
577.972	20.2
578.394	20.07
578.817	19.97
579.239	19.86
579.661	19.77
580.084	19.66
580.506	19.56
580.928	19.46
581.35	19.35
581.772	19.26
582.194	19.15
582.616	19.07
583.038	18.98
583.46	18.88
583.882	18.78
584.303	18.67
584.725	18.58
585.147	18.51
585.568	18.42
585.99	18.37
586.411	18.3
586.833	18.22
587.254	18.13
587.675	18.06
588.096	17.98
588.518	17.92
588.939	17.88
589.36	17.81
589.781	17.75
590.202	17.69
590.623	17.62
591.043	17.56
591.464	17.52
591.885	17.47
592.305	17.41
592.726	17.38
593.147	17.32
593.567	17.27
593.987	17.23
594.408	17.18
594.828	17.15
595.248	17.11
595.669	17.06
596.089	17.02
596.509	16.98
596.929	16.94
597.349	16.9
597.769	16.87
598.189	16.83
598.608	16.8
599.028	16.77
599.448	16.71
599.867	16.66
600.287	16.62
600.706	16.57
601.126	16.52
601.545	16.5
601.965	16.45
602.384	16.39
602.803	16.33
603.222	16.27
603.641	16.2
604.061	16.15
604.48	16.09
604.898	16.01
605.317	15.95
605.736	15.88
606.155	15.79
606.574	15.7
606.992	15.61
607.411	15.53
607.829	15.42
608.248	15.32
608.666	15.23
609.085	15.15
609.503	15.06
609.921	14.97
610.339	14.88
610.758	14.8
611.176	14.71
611.594	14.63
612.012	14.54
612.43	14.47
612.847	14.39
613.265	14.31
613.683	14.21
614.101	14.13
614.518	14.05
614.936	13.96
615.353	13.86
615.771	13.78
616.188	13.71
616.606	13.64
617.023	13.58
617.44	13.51
617.857	13.43
618.274	13.37
618.691	13.32
619.108	13.27
619.525	13.22
619.942	13.18
620.359	13.13
620.776	13.08
621.192	13.05
621.609	13.01
622.026	12.97
622.442	12.95
622.859	12.91
623.275	12.89
623.691	12.86
624.108	12.84
624.524	12.8
624.94	12.79
625.356	12.78
625.772	12.76
626.188	12.75
626.604	12.74
627.02	12.73
627.436	12.71
627.852	12.7
628.268	12.68
628.683	12.66
629.099	12.65
629.514	12.64
629.93	12.61
630.345	12.57
630.761	12.52
631.176	12.48
631.591	12.44
632.007	12.39
632.422	12.34
632.837	12.28
633.252	12.22
633.667	12.13
634.082	12.04
634.497	11.97
634.911	11.87
635.326	11.77
635.741	11.68
636.155	11.57
636.57	11.47
636.984	11.36
637.399	11.24
637.813	11.12
638.228	10.99
638.642	10.86
639.056	10.72
639.47	10.61
639.884	10.48
640.298	10.34
640.712	10.2
641.126	10.06
641.54	9.92
641.954	9.78
642.368	9.65
642.781	9.54
643.195	9.41
643.609	9.29
644.022	9.17
644.436	9.05
644.849	8.94
645.262	8.82
645.676	8.71
646.089	8.61
646.502	8.52
646.915	8.44
647.328	8.36
647.741	8.29
648.154	8.22
648.567	8.16
648.98	8.1
649.393	8.05
649.805	8.01
650.218	7.97
650.631	7.92
651.043	7.88
651.456	7.85
651.868	7.81
652.28	7.76
652.693	7.72
653.105	7.67
653.517	7.62
653.929	7.58
654.341	7.52
654.753	7.47
655.165	7.41
655.577	7.35
655.989	7.28
656.401	7.2
656.813	7.14
657.224	7.06
657.636	6.98
658.047	6.9
658.459	6.82
658.87	6.74
659.282	6.65
659.693	6.58
660.104	6.49
660.515	6.41
660.926	6.33
661.338	6.25
661.749	6.17
662.159	6.1
662.57	6.04
662.981	5.97
663.392	5.91
663.803	5.86
664.213	5.8
664.624	5.74
665.035	5.69
665.445	5.64
665.855	5.6
666.266	5.57
666.676	5.54
667.086	5.5
667.497	5.48
667.907	5.46
668.317	5.44
668.727	5.42
669.137	5.42
669.547	5.41
669.956	5.41
670.366	5.4
670.776	5.4
671.186	5.4
671.595	5.41
672.005	5.41
672.414	5.42
672.824	5.41
673.233	5.42
673.642	5.43
674.052	5.45
674.461	5.47
674.87	5.49
675.279	5.51
675.688	5.54
676.097	5.58
676.506	5.6
676.915	5.63
677.323	5.67
677.732	5.72
678.141	5.76
678.549	5.8
678.958	5.86
679.366	5.91
679.775	5.96
680.183	6.03
680.592	6.09
681	6.18
681.408	6.26
681.816	6.36
682.224	6.47
682.632	6.59
683.04	6.71
683.448	6.84
683.856	7
684.264	7.18
684.671	7.36
685.079	7.56
685.487	7.8
685.894	8.05
686.302	8.33
686.709	8.63
687.116	8.98
687.524	9.35
687.931	9.76
688.338	10.18
688.745	10.63
689.152	11.1
689.559	11.62
689.966	12.16
690.373	12.71
690.78	13.29
691.187	13.89
691.593	14.5
692	15.13
692.407	15.75
692.813	16.4
693.22	17.05
693.626	17.74
694.032	18.41
694.439	19.07
694.845	19.75
695.251	20.43
695.657	21.09
696.063	21.77
696.469	22.46
696.875	23.14
697.281	23.82
697.687	24.5
698.093	25.15
698.498	25.8
698.904	26.45
699.31	27.07
699.715	27.69
700.12	28.3
700.526	28.9
700.931	29.48
701.337	30.05
701.742	30.61
702.147	31.16
702.552	31.71
702.957	32.24
703.362	32.76
703.767	33.26
704.172	33.79
704.577	34.28
704.981	34.77
705.386	35.23
705.791	35.7
706.195	36.14
706.6	36.61
707.004	37.03
707.408	37.46
707.813	37.9
708.217	38.34
708.621	38.73
709.025	39.13
709.43	39.51
709.834	39.94
710.237	40.31
710.641	40.69
711.045	41.04
711.449	41.43
711.853	41.81
712.256	42.14
712.66	42.46
713.064	42.79
713.467	43.14
713.87	43.45
714.274	43.73
714.677	44.05
715.08	44.35
715.484	44.66
715.887	44.96
716.29	45.2
716.693	45.5
717.096	45.77
717.499	46.07
717.901	46.33
718.304	46.61
718.707	46.9
719.109	47.16
719.512	47.39
719.915	47.63
720.317	47.84
720.719	48.07
721.122	48.27
721.524	48.5
721.926	48.71
722.328	48.93
722.731	49.1
723.133	49.27
723.535	49.48
723.937	49.71
724.338	49.89
724.74	50.09
725.142	50.36
725.544	50.53
725.945	50.73
726.347	50.85
726.748	50.98
727.15	51.15
727.551	51.32
727.952	51.44
728.354	51.56
728.755	51.67
729.156	51.77
729.557	51.8
729.958	51.92
730.359	52.02
730.76	52.14
731.161	52.22
731.562	52.34
731.962	52.39
732.363	52.47
732.763	52.55
733.164	52.63
733.564	52.74
733.965	52.81
734.365	52.89
734.766	52.93
735.166	52.98
735.566	53.06
735.966	53.11
736.366	53.17
736.766	53.22
737.166	53.29
737.566	53.36
737.966	53.39
738.365	53.46
738.765	53.51
739.165	53.57
739.564	53.63
739.964	53.68
740.363	53.7
740.763	53.75
741.162	53.8
741.561	53.81
741.96	53.82
742.36	53.86
742.759	53.86
743.158	53.87
743.557	53.88
743.955	53.91
744.354	53.93
744.753	53.98
745.152	54.04
745.55	54.09
745.949	54.12
746.348	54.17
746.746	54.18
747.144	54.23
747.543	54.26
747.941	54.3
748.339	54.29
748.737	54.32
749.136	54.32
749.534	54.27
749.932	54.26
750.33	54.26
750.727	54.29
751.125	54.29
751.523	54.26
751.921	54.27
752.318	54.27
752.716	54.28
753.113	54.28
753.511	54.3
753.908	54.35
754.305	54.37
754.703	54.37
755.1	54.37
755.497	54.38
755.894	54.38
756.291	54.38
756.688	54.35
757.085	54.34
757.482	54.33
757.878	54.31
758.275	54.3
758.672	54.3
759.068	54.32
759.465	54.29
759.861	54.28
760.258	54.3
760.654	54.31
761.05	54.34
761.447	54.35
761.843	54.35
762.239	54.35
762.635	54.35
763.031	54.35
763.427	54.32
763.822	54.34
764.218	54.35
764.614	54.35
765.01	54.33
765.405	54.3
765.801	54.29
766.196	54.3
766.592	54.3
766.987	54.28
767.382	54.27
767.778	54.28
768.173	54.29
768.568	54.29
768.963	54.27
769.358	54.29
769.753	54.29
770.148	54.32
770.542	54.29
770.937	54.31
771.332	54.29
771.726	54.3
772.121	54.29
772.515	54.28
772.91	54.25
773.304	54.27
773.699	54.27
774.093	54.25
774.487	54.23
774.881	54.26
775.275	54.24
775.669	54.24
776.063	54.24
776.457	54.26
776.851	54.24
777.245	54.24
777.638	54.23
778.032	54.24
778.425	54.3
778.819	54.29
779.212	54.27
779.606	54.27
779.999	54.27
780.392	54.3
780.786	54.28
781.179	54.3
781.572	54.32
781.965	54.37
782.358	54.34
782.751	54.3
783.143	54.31
783.536	54.33
783.929	54.35
784.322	54.38
784.714	54.37
785.107	54.38
785.499	54.39
785.891	54.39
786.284	54.39
786.676	54.4
787.068	54.39
787.46	54.42
787.852	54.43
788.245	54.39
788.636	54.37
789.028	54.37
789.42	54.35
789.812	54.32
790.204	54.32
790.595	54.28
790.987	54.3
791.378	54.34
791.77	54.32
792.161	54.3
792.553	54.32
792.944	54.3
793.335	54.3
793.726	54.31
794.117	54.31
794.508	54.3
794.899	54.31
795.29	54.3
795.681	54.23
796.072	54.24
796.463	54.28
796.853	54.29
797.244	54.29
797.634	54.28
798.025	54.3
798.415	54.29
798.806	54.27
799.196	54.29
799.586	54.26
799.976	54.29
800.366	54.28
800.756	54.26
801.146	54.26
801.536	54.27
801.926	54.29
802.316	54.3
802.706	54.33
803.095	54.37
803.485	54.36
803.874	54.37
804.264	54.39
804.653	54.4
805.043	54.39
805.432	54.36
805.821	54.37
806.21	54.37
806.599	54.37
806.988	54.34
807.377	54.33
807.766	54.34
808.155	54.32
808.544	54.32
808.933	54.32
809.321	54.3
809.71	54.3
810.098	54.29
810.487	54.26
810.875	54.25
811.264	54.26
811.652	54.26
812.04	54.24
812.428	54.27
812.816	54.25
813.204	54.26
813.592	54.27
813.98	54.3
814.368	54.31
814.756	54.32
815.144	54.36
815.531	54.34
815.919	54.35
816.306	54.36
816.694	54.34
817.081	54.38
817.469	54.38
817.856	54.36
818.243	54.35
818.63	54.34
819.017	54.32
819.404	54.28
819.791	54.28
820.178	54.29
820.565	54.26
820.952	54.27
821.339	54.25
821.725	54.27
822.112	54.32
822.498	54.33
822.885	54.38
823.271	54.4
823.657	54.38
824.044	54.4
824.43	54.42
824.816	54.48
825.202	54.45
825.588	54.44
825.974	54.43
826.36	54.38
826.746	54.35
827.132	54.33
827.517	54.34
827.903	54.39
828.289	54.39
828.674	54.36
829.06	54.32
829.445	54.33
829.83	54.35
830.216	54.33
830.601	54.36
830.986	54.37
831.371	54.36
831.756	54.37
832.141	54.36
832.526	54.36
832.911	54.38
833.295	54.4
833.68	54.41
834.065	54.41
834.449	54.41
834.834	54.41
835.218	54.41
835.603	54.43
835.987	54.4
836.371	54.38
836.755	54.35
837.139	54.32
837.524	54.33
837.908	54.34
838.291	54.36
838.675	54.38
839.059	54.38
839.443	54.37
839.827	54.34
840.21	54.34
840.594	54.35
840.977	54.36
841.361	54.38
841.744	54.36
842.127	54.33
842.511	54.29
842.894	54.28
843.277	54.27
843.66	54.26
844.043	54.28
844.426	54.29
844.809	54.31
845.191	54.34
845.574	54.34
845.957	54.36
846.339	54.36
846.722	54.37
847.104	54.38
847.487	54.38
847.869	54.38
848.252	54.39
848.634	54.4
849.016	54.39
849.398	54.39
849.78	54.41
850.162	54.42
850.544	54.41
850.926	54.42
851.307	54.41
851.689	54.41
852.071	54.42
852.452	54.4
852.834	54.42
853.215	54.41
853.597	54.38
853.978	54.34
854.359	54.33
854.741	54.33
855.122	54.31
855.503	54.31
855.884	54.29
856.265	54.3
856.646	54.32
857.026	54.34
857.407	54.35
857.788	54.34
858.169	54.36
858.549	54.37
858.93	54.39
859.31	54.38
859.69	54.4
860.071	54.42
860.451	54.41
860.831	54.41
861.211	54.35
861.591	54.34
861.971	54.35
862.351	54.35
862.731	54.34
863.111	54.33
863.491	54.36
863.87	54.35
864.25	54.33
864.629	54.34
865.009	54.33
865.388	54.36
865.768	54.38
866.147	54.38
866.526	54.38
866.905	54.39
867.284	54.4
867.663	54.38
868.042	54.38
868.421	54.42
868.8	54.43
869.179	54.44
869.558	54.41
869.936	54.4
870.315	54.39
870.693	54.41
871.072	54.42
871.45	54.44
871.828	54.45
872.207	54.46
872.585	54.43
872.963	54.45
873.341	54.41
873.719	54.43
874.097	54.44
874.475	54.46
874.853	54.44
875.23	54.46
875.608	54.47
875.986	54.49
876.363	54.51
876.741	54.51
877.118	54.49
877.495	54.52
877.873	54.54
878.25	54.56
878.627	54.56
879.004	54.57
879.381	54.56
879.758	54.53
880.135	54.49
880.512	54.46
880.889	54.46
881.265	54.45
881.642	54.45
882.019	54.45
882.395	54.43
882.772	54.39
883.148	54.35
883.524	54.35
883.901	54.35
884.277	54.36
884.653	54.36
885.029	54.35
885.405	54.36
885.781	54.34
886.157	54.34
886.532	54.34
886.908	54.34
887.284	54.34
887.659	54.33
888.035	54.3
888.411	54.28
888.786	54.29
889.161	54.31
889.537	54.3
889.912	54.3
890.287	54.29
890.662	54.29
891.037	54.3
891.412	54.28
891.787	54.27
892.162	54.28
892.536	54.31
892.911	54.3
893.286	54.28
893.66	54.27
894.035	54.27
894.409	54.24
894.784	54.23
895.158	54.22
895.532	54.26
895.906	54.24
896.281	54.23
896.655	54.2
897.029	54.22
897.402	54.22
897.776	54.23
898.15	54.24
898.524	54.28
898.898	54.3
899.271	54.31
899.645	54.3
900.018	54.36
900.392	54.4
900.765	54.45
901.138	54.44
901.511	54.47
901.884	54.48
902.258	54.47
902.631	54.45
903.003	54.45
903.376	54.45
903.749	54.41
904.122	54.41
904.495	54.39
904.867	54.37
905.24	54.37
905.612	54.36
905.985	54.34
906.357	54.35
906.729	54.39
907.102	54.4
907.474	54.41
907.846	54.44
908.218	54.41
908.59	54.42
908.962	54.41
909.334	54.41
909.705	54.41
910.077	54.43
910.449	54.43
910.82	54.43
911.192	54.41
911.563	54.39
911.935	54.38
912.306	54.39
912.677	54.41
913.048	54.4
913.419	54.37
913.79	54.38
914.161	54.38
914.532	54.36
914.903	54.35
915.274	54.36
915.645	54.36
916.015	54.38
916.386	54.39
916.756	54.33
917.127	54.34
917.497	54.36
917.868	54.36
918.238	54.35
918.608	54.36
918.978	54.35
919.348	54.34
919.718	54.34
920.088	54.36
920.458	54.34
920.828	54.38
921.198	54.36
921.567	54.37
921.937	54.37
922.306	54.37
922.676	54.35
923.045	54.33
923.415	54.32
923.784	54.31
924.153	54.34
924.522	54.35
924.891	54.35
925.26	54.35
925.629	54.36
925.998	54.34
926.367	54.36
926.736	54.38
927.104	54.42
927.473	54.41
927.842	54.38
928.21	54.35
928.578	54.33
928.947	54.33
929.315	54.31
929.683	54.29
930.051	54.28
930.42	54.25
930.788	54.2
931.156	54.15
931.523	54.15
931.891	54.18
932.259	54.17
932.627	54.16
932.994	54.14
933.362	54.12
933.729	54.14
934.097	54.16
934.464	54.15
934.831	54.17
935.199	54.22
935.566	54.25
935.933	54.23
936.3	54.23
936.667	54.23
937.034	54.27
937.401	54.29
937.767	54.28
938.134	54.24
938.501	54.32
938.867	54.35
939.234	54.32
939.6	54.29
939.967	54.32
940.333	54.29
940.699	54.36
941.065	54.29
941.431	54.32
941.798	54.3
942.163	54.32
942.529	54.25
942.895	54.21
943.261	54.15
943.627	54.12
943.992	54.09
944.358	54.07
944.723	54
945.089	53.99
945.454	53.95
945.82	53.91
946.185	53.91
946.55	53.83
946.915	53.83
947.28	53.85
947.645	53.82
948.01	53.83
948.375	53.86
948.74	53.9
949.104	53.91
949.469	53.88
949.834	53.89
950.198	53.84
950.562	53.83
950.927	53.76
951.291	53.72
951.655	53.68
952.02	53.68
952.384	53.63
952.748	53.57
953.112	53.54
953.476	53.53
953.839	53.48
954.203	53.47
954.567	53.48
954.931	53.47
955.294	53.45
955.658	53.53
956.021	53.5
956.385	53.42
956.748	53.39
957.111	53.35
957.474	53.35
957.837	53.36
958.2	53.34
958.563	53.33
958.926	53.34
959.289	53.32
959.652	53.26
960.015	53.23
960.377	53.25
960.74	53.23
961.102	53.23
961.465	53.26
961.827	53.3
962.189	53.35
962.552	53.32
962.914	53.34
963.276	53.42
963.638	53.43
964	53.44
964.362	53.45
964.724	53.42
965.085	53.39
965.447	53.37
965.809	53.32
966.17	53.28
966.532	53.29
966.893	53.27
967.255	53.21
967.616	53.2
967.977	53.24
968.338	53.23
968.699	53.3
969.061	53.35
969.421	53.37
969.782	53.37
970.143	53.39
970.504	53.42
970.865	53.47
971.225	53.44
971.586	53.45
971.946	53.45
972.307	53.5
972.667	53.46
973.027	53.41
973.388	53.38
973.748	53.42
974.108	53.44
974.468	53.37
974.828	53.35
975.188	53.35
975.548	53.29
975.907	53.22
976.267	53.19
976.627	53.21
976.986	53.16
977.346	53.09
977.705	53.07
978.064	53.08
978.424	53.09
978.783	53.03
979.142	53.03
979.501	53.1
979.86	53.14
980.219	53.13
980.578	53.1
980.937	53.17
981.296	53.22
981.654	53.14
982.013	53.1
982.371	53.16
982.73	53.2
983.088	53.17
983.447	53.12
983.805	53.13
984.163	53.07
984.521	53.06
984.879	53.02
985.237	53.03
985.595	53.11
985.953	53.07
986.311	52.97
986.669	52.92
987.026	52.95
987.384	52.94
987.741	52.81
988.099	52.91
988.456	52.92
988.814	52.96
989.171	52.93
989.528	52.92
989.885	52.96
990.242	52.96
990.599	53.05
990.956	53.1
991.313	53.13
991.67	53.24
992.027	53.33
992.383	53.34
992.74	53.43
993.096	53.41
993.453	53.37
993.809	53.33
994.165	53.41
994.522	53.44
994.878	53.49
995.234	53.44
995.59	53.31
995.946	53.2
996.302	53.23
996.658	53.16
997.013	53.19
997.369	53.23
997.725	53.28
998.08	53.26
998.436	53.22
998.791	53.23
999.147	53.2
999.502	53.34
999.857	53.32
1000.212	53.23
1000.567	53.23
1000.922	53.18
1001.277	53.13
1001.632	53.08
1001.987	53.1
1002.342	52.95
1002.696	52.91
1003.051	53.09
1003.406	53.08
1003.76	53.1
1004.114	53.17
1004.469	53.23
1004.823	53.48
1005.177	53.48
1005.531	53.53
1005.885	53.6
1006.239	53.72
1006.593	53.67
1006.947	53.59
1007.301	53.57
1007.655	53.51
1008.008	53.57
1008.362	53.57
1008.715	53.4
1009.069	53.52
1009.422	53.47
1009.776	53.44
1010.129	53.41
1010.482	53.36
1010.835	53.35
1011.188	53.45
1011.541	53.57
1011.894	53.54
1012.247	53.6
1012.6	53.65
1012.952	53.59
1013.305	53.73
1013.657	53.71
1014.01	53.73
1014.362	53.7
1014.715	53.9
1015.067	53.9
1015.419	53.94
1015.771	53.79
1016.123	53.64
1016.475	53.6
1016.827	53.58
1017.179	53.46
1017.531	53.53
1017.883	53.37
1018.234	53.49
1018.586	53.52
1018.938	53.53
1019.289	53.28
1019.64	53.32
1019.992	53.26
1020.343	53.27
1020.694	53.2
1021.045	53.31
1021.396	53.3
1021.747	53.55
1022.098	53.65
1022.449	53.43
1022.8	53.37
1023.151	53.46
1023.501	53.68
1023.852	53.82
1024.202	53.65
1024.553	53.8
1024.903	53.68
1025.253	53.79
1025.604	53.8
1025.954	53.55
1026.304	53.52
1026.654	53.5
1027.004	53.52
1027.354	53.34
1027.703	53.12
1028.053	53.24
1028.403	53.36
1028.753	53.15
1029.102	53.2
1029.452	53.26
1029.801	53.62
1030.15	53.6
1030.499	53.64
897.758	1258.82
901.051	1269.36
904.343	1263.85
907.636	1289.53
910.928	1252.1
914.22	1254.55
917.511	1242.07
920.803	1186.04
924.094	1179.2
927.384	1154.05
930.675	1111.39
933.965	1105.15
937.255	1038.75
940.544	999.17
943.834	951.74
947.123	946.04
950.411	888.57
953.7	870.66
956.988	821.69
960.276	791.95
963.563	777.4
966.851	748.03
970.138	742.22
973.424	720.77
976.711	723.25
979.997	688.54
983.283	685.21
986.568	671.9
989.853	650.22
993.138	641.04
996.423	615.48
999.708	600.45
1002.992	594.87
1006.275	569.44
1009.559	563.24
1012.842	544.22
1016.125	529.66
1019.408	519.97
1022.69	513.54
1025.972	504.18
1029.254	491.98
1032.536	484.62
1035.817	473.2
1039.098	467.98
1042.379	458.47
1045.659	453.46
1048.939	442.32
1052.219	433.89
1055.498	427.25
1058.778	417.12
1062.057	408.61
1065.335	404.93
1068.614	400.67
1071.892	396.98
1075.17	383.3
1078.447	376.1
1081.724	374.3
1085.001	371.59
1088.278	362.94
1091.554	356.71
1094.83	357.24
1098.106	354.79
1101.382	351.43
1104.657	348.23
1107.932	342.79
1111.206	345.49
1114.481	337.9
1117.755	333.11
1121.029	330.71
1124.302	331.64
1127.575	324.11
1130.848	319.97
1134.121	316.51
1137.393	314.89
1140.665	308.65
1143.937	307.02
1147.208	305.46
1150.48	303.87
1153.75	301.64
1157.021	297.83
1160.291	296.99
1163.561	295
1166.831	295.11
1170.101	292.53
1173.37	291.9
1176.639	292.66
1179.907	290.08
1183.176	285.61
1186.444	286.05
1189.711	284.58
1192.979	283.47
1196.246	281.66
1199.513	282.87
1202.78	281.22
1206.046	281.71
1209.312	278.56
1212.578	278.96
1215.843	281.04
1219.108	280.17
1222.373	285.21
1225.638	287.59
1228.902	291.25
1232.166	292.35
1235.43	293.68
1238.693	297.17
1241.956	298.6
1245.219	303.9
1248.482	303.79
1251.744	303.87
1255.006	304.92
1258.268	297.37
1261.529	295.04
1264.79	293.18
1268.051	291.35
1271.312	288.15
1274.572	284.35
1277.832	282.14
1281.092	277.64
1284.351	275.08
1287.61	275.09
1290.869	270.56
1294.128	269.27
1297.386	269.09
1300.644	266.44
1303.902	266.66
1307.159	265.89
1310.416	266.03
1313.673	265.26
1316.93	267.63
1320.186	268.06
1323.442	268.89
1326.697	273.45
1329.953	274.08
1333.208	275.19
1336.463	278.37
1339.717	279.1
1342.972	282.44
1346.226	284.82
1349.479	285.21
1352.733	286.67
1355.986	288.43
1359.238	288.06
1362.491	289.68
1365.743	292.41
1368.995	292.06
1372.247	291.74
1375.498	291.62
1378.749	293.78
1382	290.69
1385.251	291.48
1388.501	289.84
1391.751	290.13
1395	288.83
1398.25	286.38
1401.499	284.34
1404.748	284.41
1407.996	281.56
1411.244	280.14
1414.492	278.02
1417.74	275.21
1420.987	271.61
1424.234	271.03
1427.481	267.1
1430.728	266
1433.974	264.66
1437.22	262.28
1440.465	261.23
1443.711	258.47
1446.956	256.85
1450.201	254.06
1453.445	251.95
1456.689	250.88
1459.933	246.39
1463.177	244.91
1466.42	241.59
1469.663	238.01
1472.906	236.88
1476.148	231.59
1479.391	229.29
1482.633	227.39
1485.874	223.63
1489.115	222.13
1492.356	219.66
1495.597	219.63
1498.838	216.37
1502.078	215.33
1505.318	214.56
1508.557	214.72
1511.797	213.85
1515.036	213.04
1518.274	212.51
1521.513	210.78
1524.751	210.97
1527.989	210.14
1531.227	209.28
1534.464	209.98
1537.701	208.08
1540.938	207.65
1544.174	205.01
1547.41	205.47
1550.646	203.49
1553.882	203.64
1557.117	201.83
1560.352	200.1
1563.587	199.96
1566.821	198.24
1570.055	196.84
1573.289	195.95
1576.523	195.41
1579.756	194.1
1582.989	192.93
1586.222	193.05
1589.454	191.36
1592.686	192.92
1595.918	192.24
1599.15	191.55
1602.381	192.58
1605.612	191.89
1608.843	192.54
1612.073	192.5
1615.303	193.98
1618.533	193.68
1621.762	193.94
1624.992	194.17
1628.221	193.44
1631.449	193.33
1634.678	193.09
1637.906	193.19
1641.134	193.82
1644.361	193.48
1647.588	194.19
1650.815	192.93
1654.042	192.5
1657.269	193.37
1660.495	193.71
1663.72	193.29
1666.946	193.99
1670.171	194.65
1673.396	194.16
1676.621	193.77
1679.845	194.53
1683.069	193.92
1686.293	195.28
1689.517	196.3
1692.74	196.07
1695.963	196.6
1699.185	198.46
1702.408	198.26
1705.63	198.99
1708.852	199.66
1712.073	200.21
1715.294	200.16
1718.515	201.39
1721.736	200.92
1724.956	201.4
1728.176	201.55
1731.396	203.41
1734.616	202.2
1737.835	203.35
1741.054	201.79
1744.272	202.46
1747.491	204.32
1750.709	204.09
1753.927	204.21
1757.144	203.96
1760.361	204.66
1763.578	205.06
1766.795	204.28
1770.011	206.4
1773.227	206.14
1776.443	208.58
1779.658	209.69
1782.874	209.02
1786.089	210.08
1789.303	210.64
1792.518	213.31
1795.732	213.27
1798.945	214.86
1802.159	215.07
1805.372	215.34
1808.585	219.29
1811.797	219.74
1815.01	219.96
1818.222	221.7
1821.434	223.47
1824.645	224.34
1827.856	227.5
1831.067	229.45
1834.278	228.36
1837.488	230.2
1840.698	232.13
1843.908	229.58
1847.117	230.7
1850.326	231.85
1853.535	231.2
1856.744	234
1859.952	233.47
1863.16	231.77
1866.368	230.56
1869.575	234
1872.782	229.52
1875.989	227.93
1879.196	226.8
1882.402	225.35
1885.608	225.46
1888.814	225.12
1892.019	224.56
1895.224	223.67
1898.429	221.95
1901.634	222.26
1904.838	221.86
1908.042	223.79
1911.246	224.68
1914.449	226.24
1917.652	225.34
1920.855	225.5
1924.058	225.25
1927.26	223.61
1930.462	224.27
1933.664	227.01
1936.865	225.6
1940.066	224.77
1943.267	223.76
1946.467	222.97
1949.668	224.33
1952.868	226.99
1956.067	226.56
1959.267	227.14
1962.466	227.86
1965.665	227
1968.863	227.28
1972.061	230.36
1975.259	232.75
1978.457	235.23
1981.654	237.3
1984.852	237.62
1988.048	237.2
1991.245	240.18
1994.441	243.21
1997.637	245.14
2000.833	249.84
2004.028	253.83
2007.223	255.13
2010.418	257.93
2013.613	261.64
2016.807	264.67
2020.001	266.7
2023.194	271.68
2026.388	277.68
2029.581	283.11
2032.774	286.08
2035.966	292.11
2039.158	292.07
2042.35	297.94
2045.542	298.9
2048.733	305.35
2051.924	308.33
2055.115	314.28
2058.306	314.52
2061.496	316.52
2064.686	317.16
2067.875	322.17
2071.065	323.91
2074.254	322.28
2077.442	325.97
2080.631	328.06
2083.819	329.83
2087.007	330.95
2090.195	334.2
2093.382	337.1
2096.569	335.04
2099.756	339.97
2102.942	340.74
2106.128	342.64
2109.314	350.7
2112.5	349.12
2115.685	356.04
2118.87	356.8
2122.055	364.26
2125.239	366.68
2128.424	371.33
2131.608	374.57
2134.791	379.27
2137.974	381.18
2141.157	383.18
2144.34	383.99
2147.523	389.42
2150.705	387.51
2153.887	391.84
2157.068	392.32
2160.25	389.13
2163.431	390.74
2166.611	396.32
2169.792	403.4
2172.972	408.04
2176.152	410.15
2179.331	414.92
2182.511	422.16
2185.69	426.57
2188.868	434.37
2192.047	435.65
2195.225	448.67
2198.403	458.55
2201.58	466.38
2204.758	475.33
2207.935	484.15
2211.111	493.06
2214.288	499.22
2217.464	499.93
2220.64	508.69
2223.815	516.05
2226.991	536.67
2230.166	537.26
2233.34	546.61
2236.515	555.14
2239.689	554.99
2242.863	557.01
2246.036	573.33
2249.209	569.23
2252.382	579.93
2255.555	595.16
2258.727	596.7
2261.9	600.17
2265.071	606.05
2268.243	615.51
2271.414	622.76
2274.585	637.61
2277.756	645.59
2280.926	648.79
2284.096	663.95
2287.266	678.45
2290.436	684.4
2293.605	700.31
2296.774	718.78
2299.942	741.91
2303.111	746.94
2306.279	761.36
2309.447	771
2312.614	790.11
2315.781	813.21
2318.948	848.26
2322.115	834.14
2325.281	880.73
2328.447	861.08
2331.613	898.12
2334.779	886.61
2337.944	925.56
2341.109	934.34
2344.274	960.17
2347.438	994.12
2350.602	988.97
2353.766	1024.55
2356.929	1040.9
2360.092	1032.93
2363.255	1107.18
2366.418	1104.47
2369.58	1128.87
2372.742	1193.35
2375.904	1226.25
2379.066	1218.21
2382.227	1196.13
2385.388	1302.37
2388.548	1298.2
2391.709	1316.39
2394.869	1463.7
2398.029	1402.61
2401.188	1440.29
2404.347	1427.91
2407.506	1409.46
2410.665	1445.43
2413.823	1530.09
2416.981	1619.88
2420.139	1566.43
2423.296	1551.59
2426.453	1613.65
2429.61	1558.33
2432.767	1625.6
2435.923	1609.04
2439.079	1766.9
2442.235	1789.04
2445.391	1771.8
2448.546	1764.3
2451.701	1710.32
2454.855	1707.49
2458.009	1811.77
2461.163	1888.35
2464.317	1947.31
2467.471	2001.93
2470.624	2003.29
2473.777	1949.59
2476.929	1899.9
2480.082	1843.42
2483.234	1820.33
2486.385	1912.45
2489.537	1920.85
2492.688	1988.28
2495.839	1933.07
2498.989	1894.82
2502.14	1904.42
2505.29	1927.08
2508.439	1948.54
2511.589	1943.28
2514.738	2127.54
2517.887	2080.28
2521.035	2200.59
2524.183	2223.32
2527.331	2240.38
2530.479	2232.02
2533.627	2245.58
