Data from N_2_DEC_CT_2N_Splice17_13-31-26-901.txt Node
Date: Sat Mar 07 13:31:26 EST 2020
User: sa697716
Spectrometer: NQ5500242
Trigger mode: 0
Integration Time (sec): 1.450000E-1
Scans to average: 20
Nonlinearity correction enabled: false
Boxcar width: 5
Storing dark spectrum: false
XAxis mode: Wavelengths
Number of Pixels in Spectrum: 512
>>>>>Begin Spectral Data<<<<<
187.83	173.09
188.298	199.02
188.766	169.85
189.233	141.09
189.701	150.31
190.169	177.42
190.636	169.4
191.104	253.89
191.571	182.05
192.039	92.34
192.506	-697.62
192.974	142.93
193.441	179.97
193.908	75.11
194.375	44.64
194.842	5.12
195.31	54.32
195.777	-149.97
196.244	46.6
196.711	59.92
197.177	64.64
197.644	65.67
198.111	66.33
198.578	67.37
199.045	68.11
199.511	68.08
199.978	67.94
200.445	68.33
200.911	68.28
201.378	68.71
201.844	68.94
202.31	68.67
202.777	68.47
203.243	68.21
203.709	67.91
204.176	67.09
204.642	66.89
205.108	67.21
205.574	66.59
206.04	66.22
206.506	65.62
206.972	65.69
207.438	65.02
207.903	64.41
208.369	63.71
208.835	63.04
209.301	62.28
209.766	61.42
210.232	60.26
210.697	59.29
211.163	58.56
211.628	57.99
212.094	56.83
212.559	56.58
213.024	55.75
213.49	54.84
213.955	53.86
214.42	53.19
214.885	52.3
215.35	51.24
215.815	49.86
216.28	47.98
216.745	45.84
217.21	43.98
217.675	42.18
218.14	40.74
218.604	39.72
219.069	38.79
219.534	38
219.998	37.27
220.463	36.7
220.927	36.14
221.392	35.74
221.856	35.38
222.32	35.06
222.785	34.8
223.249	34.53
223.713	34.18
224.177	33.92
224.642	33.62
225.106	33.34
225.57	33.02
226.034	32.76
226.497	32.49
226.961	32.25
227.425	32.01
227.889	31.73
228.353	31.47
228.816	31.22
229.28	30.95
229.744	30.72
230.207	30.46
230.671	30.24
231.134	30
231.597	29.78
232.061	29.52
232.524	29.29
232.987	29.05
233.45	28.84
233.914	28.65
234.377	28.41
234.84	28.18
235.303	27.96
235.766	27.78
236.229	27.57
236.691	27.37
237.154	27.2
237.617	27.04
238.08	26.85
238.542	26.65
239.005	26.45
239.468	26.27
239.93	26.11
240.393	25.94
240.855	25.74
241.317	25.57
241.78	25.39
242.242	25.21
242.704	25.04
243.166	24.88
243.629	24.73
244.091	24.59
244.553	24.43
245.015	24.26
245.477	24.1
245.939	23.95
246.4	23.81
246.862	23.65
247.324	23.51
247.786	23.35
248.247	23.21
248.709	23.04
249.17	22.88
249.632	22.76
250.093	22.63
250.555	22.53
251.016	22.42
251.477	22.29
251.939	22.19
252.4	22.09
252.861	21.99
253.322	21.89
253.783	21.81
254.244	21.74
254.705	21.64
255.166	21.55
255.627	21.46
256.088	21.37
256.549	21.29
257.009	21.19
257.47	21.09
257.931	21
258.391	20.91
258.852	20.82
259.312	20.73
259.773	20.66
260.233	20.6
260.694	20.52
261.154	20.45
261.614	20.37
262.074	20.32
262.534	20.28
262.994	20.25
263.455	20.21
263.915	20.18
264.374	20.15
264.834	20.12
265.294	20.09
265.754	20.08
266.214	20.08
266.673	20.08
267.133	20.06
267.593	20.05
268.052	20.04
268.512	20.04
268.971	20.03
269.431	20.02
269.89	20.02
270.349	20.02
270.809	20.01
271.268	19.99
271.727	19.97
272.186	19.97
272.645	19.97
273.104	19.94
273.563	19.92
274.022	19.9
274.481	19.88
274.94	19.86
275.399	19.83
275.857	19.81
276.316	19.79
276.775	19.76
277.233	19.73
277.692	19.7
278.15	19.67
278.609	19.65
279.067	19.63
279.525	19.59
279.984	19.55
280.442	19.52
280.9	19.49
281.358	19.45
281.816	19.42
282.274	19.39
282.732	19.34
283.19	19.3
283.648	19.25
284.106	19.21
284.564	19.16
285.021	19.12
285.479	19.08
285.937	19.04
286.394	18.99
286.852	18.95
287.309	18.9
287.767	18.85
288.224	18.8
288.682	18.76
289.139	18.71
289.596	18.67
290.053	18.63
290.511	18.58
290.968	18.53
291.425	18.49
291.882	18.46
292.339	18.42
292.796	18.39
293.252	18.37
293.709	18.34
294.166	18.32
294.623	18.28
295.079	18.25
295.536	18.23
295.992	18.2
296.449	18.17
296.905	18.14
297.362	18.12
297.818	18.08
298.274	18.05
298.731	18.02
299.187	17.99
299.643	17.95
300.099	17.93
300.555	17.89
301.011	17.86
301.467	17.83
301.923	17.8
302.379	17.76
302.835	17.72
303.291	17.69
303.746	17.64
304.202	17.6
304.658	17.56
305.113	17.53
305.569	17.5
306.024	17.45
306.479	17.41
306.935	17.37
307.39	17.34
307.845	17.31
308.301	17.28
308.756	17.25
309.211	17.23
309.666	17.21
310.121	17.17
310.576	17.14
311.031	17.11
311.486	17.09
311.94	17.05
312.395	17.01
312.85	16.98
313.305	16.94
313.759	16.92
314.214	16.89
314.668	16.84
315.123	16.81
315.577	16.77
316.032	16.72
316.486	16.67
316.94	16.64
317.394	16.59
317.849	16.54
318.303	16.5
318.757	16.45
319.211	16.41
319.665	16.37
320.119	16.34
320.572	16.3
321.026	16.29
321.48	16.25
321.934	16.2
322.387	16.18
322.841	16.16
323.295	16.13
323.748	16.1
324.202	16.06
324.655	16.02
325.108	15.98
325.562	15.95
326.015	15.91
326.468	15.89
326.921	15.87
327.374	15.84
327.827	15.82
328.28	15.78
328.733	15.77
329.186	15.75
329.639	15.73
330.092	15.7
330.545	15.67
330.997	15.64
331.45	15.61
331.903	15.59
332.355	15.57
332.808	15.54
333.26	15.51
333.713	15.49
334.165	15.46
334.617	15.45
335.069	15.44
335.522	15.42
335.974	15.42
336.426	15.4
336.878	15.37
337.33	15.34
337.782	15.33
338.234	15.32
338.686	15.3
339.137	15.29
339.589	15.26
340.041	15.24
340.493	15.21
340.944	15.16
341.396	15.15
341.847	15.13
342.299	15.09
342.75	15.05
343.201	15.01
343.653	14.97
344.104	14.93
344.555	14.89
345.006	14.85
345.457	14.82
345.908	14.81
346.359	14.78
346.81	14.75
347.261	14.73
347.712	14.71
348.163	14.69
348.613	14.69
349.064	14.67
349.515	14.66
349.965	14.64
350.416	14.63
350.866	14.61
351.317	14.59
351.767	14.58
352.217	14.56
352.668	14.55
353.118	14.53
353.568	14.51
354.018	14.51
354.468	14.51
354.918	14.5
355.368	14.5
355.818	14.49
356.268	14.47
356.718	14.46
357.168	14.45
357.617	14.44
358.067	14.43
358.517	14.43
358.966	14.41
359.416	14.4
359.865	14.39
360.315	14.38
360.764	14.37
361.213	14.36
361.663	14.33
362.112	14.31
362.561	14.29
363.01	14.29
363.459	14.26
363.908	14.24
364.357	14.24
364.806	14.22
365.255	14.2
365.703	14.19
366.152	14.17
366.601	14.17
367.05	14.16
367.498	14.15
367.947	14.14
368.395	14.12
368.844	14.12
369.292	14.09
369.74	14.08
370.189	14.06
370.637	14.05
371.085	14.02
371.533	14.01
371.981	14
372.429	13.98
372.877	13.96
373.325	13.95
373.773	13.93
374.221	13.91
374.669	13.88
375.116	13.87
375.564	13.85
376.012	13.84
376.459	13.82
376.907	13.81
377.354	13.8
377.801	13.79
378.249	13.77
378.696	13.75
379.143	13.74
379.591	13.74
380.038	13.72
380.485	13.72
380.932	13.69
381.379	13.67
381.826	13.66
382.273	13.64
382.72	13.62
383.166	13.61
383.613	13.58
384.06	13.57
384.506	13.55
384.953	13.54
385.4	13.53
385.846	13.54
386.292	13.54
386.739	13.54
387.185	13.53
387.631	13.53
388.078	13.52
388.524	13.53
388.97	13.52
389.416	13.52
389.862	13.52
390.308	13.53
390.754	13.55
391.2	13.56
391.645	13.57
392.091	13.59
392.537	13.62
392.983	13.64
393.428	13.66
393.874	13.67
394.319	13.68
394.765	13.69
395.21	13.7
395.655	13.71
396.101	13.74
396.546	13.75
396.991	13.76
397.436	13.78
397.881	13.82
398.326	13.86
398.771	13.89
399.216	13.93
399.661	13.97
400.106	14
400.551	14.02
400.995	14.02
401.44	14.05
401.885	14.08
402.329	14.11
402.774	14.13
403.218	14.18
403.663	14.23
404.107	14.26
404.551	14.29
404.995	14.32
405.44	14.35
405.884	14.4
406.328	14.46
406.772	14.5
407.216	14.53
407.66	14.55
408.104	14.56
408.547	14.59
408.991	14.63
409.435	14.65
409.879	14.68
410.322	14.73
410.766	14.78
411.209	14.82
411.653	14.87
412.096	14.9
412.54	14.94
412.983	14.99
413.426	15.05
413.869	15.1
414.312	15.18
414.756	15.25
415.199	15.28
415.642	15.3
416.085	15.33
416.527	15.34
416.97	15.37
417.413	15.4
417.856	15.41
418.298	15.42
418.741	15.44
419.184	15.46
419.626	15.48
420.069	15.52
420.511	15.55
420.953	15.57
421.396	15.6
421.838	15.64
422.28	15.67
422.722	15.71
423.164	15.73
423.606	15.74
424.048	15.74
424.49	15.73
424.932	15.71
425.374	15.69
425.816	15.68
426.258	15.67
426.699	15.67
427.141	15.68
427.582	15.68
428.024	15.68
428.465	15.7
428.907	15.71
429.348	15.72
429.789	15.73
430.231	15.77
430.672	15.79
431.113	15.82
431.554	15.84
431.995	15.86
432.436	15.87
432.877	15.88
433.318	15.9
433.759	15.94
434.2	15.98
434.64	16.01
435.081	16.01
435.522	16.03
435.962	16.06
436.403	16.09
436.843	16.09
437.284	16.11
437.724	16.13
438.164	16.12
438.604	16.13
439.045	16.14
439.485	16.16
439.925	16.17
440.365	16.18
440.805	16.18
441.245	16.2
441.685	16.23
442.125	16.26
442.564	16.28
443.004	16.33
443.444	16.36
443.883	16.39
444.323	16.4
444.762	16.44
445.202	16.49
445.641	16.53
446.081	16.58
446.52	16.61
446.959	16.64
447.398	16.68
447.837	16.72
448.276	16.73
448.716	16.77
449.154	16.82
449.593	16.86
450.032	16.88
450.471	16.88
450.91	16.87
451.349	16.9
451.787	16.9
452.226	16.91
452.664	16.9
453.103	16.91
453.541	16.9
453.98	16.91
454.418	16.88
454.856	16.88
455.295	16.89
455.733	16.87
456.171	16.87
456.609	16.87
457.047	16.83
457.485	16.83
457.923	16.82
458.361	16.82
458.798	16.8
459.236	16.79
459.674	16.77
460.111	16.75
460.549	16.76
460.987	16.76
461.424	16.74
461.862	16.75
462.299	16.75
462.736	16.73
463.173	16.71
463.611	16.7
464.048	16.71
464.485	16.7
464.922	16.69
465.359	16.69
465.796	16.69
466.233	16.69
466.67	16.68
467.106	16.68
467.543	16.67
467.98	16.65
468.416	16.63
468.853	16.62
469.29	16.6
469.726	16.61
470.162	16.57
470.599	16.55
471.035	16.54
471.471	16.52
471.907	16.5
472.344	16.5
472.78	16.49
473.216	16.48
473.652	16.48
474.088	16.45
474.523	16.44
474.959	16.45
475.395	16.44
475.831	16.42
476.266	16.43
476.702	16.42
477.138	16.4
477.573	16.38
478.008	16.39
478.444	16.37
478.879	16.38
479.314	16.36
479.75	16.36
480.185	16.34
480.62	16.34
481.055	16.33
481.49	16.31
481.925	16.3
482.36	16.32
482.795	16.31
483.229	16.31
483.664	16.32
484.099	16.32
484.534	16.33
484.968	16.35
485.403	16.36
485.837	16.38
486.271	16.41
486.706	16.44
487.14	16.46
487.574	16.5
488.009	16.54
488.443	16.58
488.877	16.63
489.311	16.66
489.745	16.71
490.179	16.77
490.613	16.84
491.046	16.89
491.48	16.97
491.914	17.05
492.348	17.11
492.781	17.19
493.215	17.27
493.648	17.36
494.082	17.44
494.515	17.53
494.948	17.62
495.382	17.71
495.815	17.81
496.248	17.92
496.681	18.03
497.114	18.14
497.547	18.25
497.98	18.36
498.413	18.47
498.846	18.59
499.279	18.73
499.711	18.87
500.144	19.02
500.577	19.17
501.009	19.31
501.442	19.46
501.874	19.62
502.306	19.79
502.739	19.99
503.171	20.17
503.603	20.36
504.036	20.55
504.468	20.74
504.9	20.93
505.332	21.12
505.764	21.34
506.196	21.55
506.627	21.77
507.059	21.99
507.491	22.21
507.923	22.45
508.354	22.71
508.786	22.96
509.217	23.23
509.649	23.49
510.08	23.76
510.512	24.02
510.943	24.29
511.374	24.56
511.805	24.84
512.237	25.12
512.668	25.39
513.099	25.65
513.53	25.93
513.961	26.2
514.391	26.48
514.822	26.77
515.253	27.04
515.684	27.32
516.114	27.6
516.545	27.88
516.975	28.15
517.406	28.42
517.836	28.68
518.267	28.94
518.697	29.21
519.127	29.45
519.558	29.69
519.988	29.94
520.418	30.19
520.848	30.43
521.278	30.65
521.708	30.95
522.138	31.2
522.567	31.42
522.997	31.65
523.427	31.86
523.857	32.07
524.286	32.25
524.716	32.47
525.145	32.64
525.575	32.83
526.004	33.02
526.433	33.13
526.863	33.29
527.292	33.47
527.721	33.61
528.15	33.74
528.579	33.89
529.008	34.04
529.437	34.16
529.866	34.3
530.295	34.42
530.724	34.56
531.152	34.68
531.581	34.8
532.01	34.91
532.438	35.02
532.867	35.13
533.295	35.25
533.723	35.35
534.152	35.43
534.58	35.53
535.008	35.61
535.436	35.68
535.865	35.75
536.293	35.81
536.721	35.86
537.149	35.92
537.576	35.97
538.004	36.03
538.432	36.07
538.86	36.13
539.287	36.16
539.715	36.2
540.143	36.23
540.57	36.27
540.998	36.32
541.425	36.36
541.852	36.39
542.28	36.44
542.707	36.45
543.134	36.5
543.561	36.54
543.988	36.58
544.415	36.59
544.842	36.63
545.269	36.68
545.696	36.7
546.123	36.73
546.549	36.75
546.976	36.78
547.403	36.82
547.829	36.83
548.256	36.84
548.682	36.86
549.108	36.91
549.535	36.96
549.961	36.96
550.387	36.97
550.813	36.98
551.24	36.99
551.666	37
552.092	37.03
552.518	37.04
552.943	37.06
553.369	37.05
553.795	37.04
554.221	37.01
554.646	36.99
555.072	36.99
555.498	36.96
555.923	36.95
556.349	36.9
556.774	36.86
557.199	36.82
557.625	36.76
558.05	36.73
558.475	36.68
558.9	36.63
559.325	36.59
559.75	36.54
560.175	36.47
560.6	36.38
561.025	36.31
561.449	36.21
561.874	36.14
562.299	36.04
562.723	35.95
563.148	35.85
563.572	35.73
563.997	35.62
564.421	35.51
564.846	35.39
565.27	35.28
565.694	35.18
566.118	35.09
566.542	34.97
566.966	34.87
567.39	34.75
567.814	34.62
568.238	34.5
568.662	34.38
569.086	34.25
569.509	34.15
569.933	34.05
570.357	33.92
570.78	33.78
571.204	33.65
571.627	33.53
572.05	33.42
572.474	33.33
572.897	33.23
573.32	33.11
573.743	33.01
574.166	32.9
574.589	32.79
575.012	32.7
575.435	32.62
575.858	32.53
576.281	32.45
576.704	32.35
577.126	32.26
577.549	32.16
577.972	32.08
578.394	31.99
578.817	31.91
579.239	31.84
579.661	31.78
580.084	31.7
580.506	31.63
580.928	31.54
581.35	31.48
581.772	31.41
582.194	31.33
582.616	31.26
583.038	31.19
583.46	31.13
583.882	31.07
584.303	30.98
584.725	30.91
585.147	30.85
585.568	30.8
585.99	30.71
586.411	30.65
586.833	30.59
587.254	30.53
587.675	30.48
588.096	30.41
588.518	30.33
588.939	30.31
589.36	30.24
589.781	30.18
590.202	30.14
590.623	30.1
591.043	30.04
591.464	30
591.885	29.96
592.305	29.92
592.726	29.88
593.147	29.86
593.567	29.79
593.987	29.76
594.408	29.72
594.828	29.67
595.248	29.63
595.669	29.61
596.089	29.56
596.509	29.52
596.929	29.47
597.349	29.43
597.769	29.38
598.189	29.33
598.608	29.29
599.028	29.25
599.448	29.21
599.867	29.16
600.287	29.12
600.706	29.07
601.126	29.02
601.545	28.98
601.965	28.94
602.384	28.89
602.803	28.86
603.222	28.8
603.641	28.75
604.061	28.7
604.48	28.63
604.898	28.57
605.317	28.51
605.736	28.45
606.155	28.39
606.574	28.32
606.992	28.26
607.411	28.2
607.829	28.11
608.248	28.04
608.666	27.97
609.085	27.92
609.503	27.86
609.921	27.81
610.339	27.74
610.758	27.68
611.176	27.61
611.594	27.54
612.012	27.47
612.43	27.42
612.847	27.36
613.265	27.28
613.683	27.22
614.101	27.15
614.518	27.08
614.936	27
615.353	26.91
615.771	26.85
616.188	26.78
616.606	26.73
617.023	26.68
617.44	26.63
617.857	26.57
618.274	26.51
618.691	26.45
619.108	26.39
619.525	26.34
619.942	26.31
620.359	26.27
620.776	26.23
621.192	26.18
621.609	26.14
622.026	26.1
622.442	26.08
622.859	26.06
623.275	26.03
623.691	26.03
624.108	26.02
624.524	26.01
624.94	26
625.356	25.99
625.772	25.98
626.188	25.98
626.604	25.96
627.02	25.95
627.436	25.94
627.852	25.95
628.268	25.92
628.683	25.9
629.099	25.89
629.514	25.87
629.93	25.84
630.345	25.82
630.761	25.78
631.176	25.73
631.591	25.68
632.007	25.63
632.422	25.56
632.837	25.49
633.252	25.41
633.667	25.3
634.082	25.19
634.497	25.1
634.911	24.98
635.326	24.87
635.741	24.76
636.155	24.61
636.57	24.47
636.984	24.31
637.399	24.14
637.813	23.98
638.228	23.81
638.642	23.62
639.056	23.41
639.47	23.23
639.884	23.03
640.298	22.83
640.712	22.64
641.126	22.43
641.54	22.22
641.954	22.03
642.368	21.83
642.781	21.64
643.195	21.47
643.609	21.29
644.022	21.11
644.436	20.94
644.849	20.76
645.262	20.61
645.676	20.47
646.089	20.33
646.502	20.2
646.915	20.1
647.328	20
647.741	19.88
648.154	19.8
648.567	19.72
648.98	19.65
649.393	19.59
649.805	19.53
650.218	19.47
650.631	19.42
651.043	19.36
651.456	19.32
651.868	19.25
652.28	19.22
652.693	19.16
653.105	19.11
653.517	19.06
653.929	19.01
654.341	18.94
654.753	18.87
655.165	18.8
655.577	18.74
655.989	18.65
656.401	18.57
656.813	18.48
657.224	18.39
657.636	18.28
658.047	18.17
658.459	18.05
658.87	17.94
659.282	17.81
659.693	17.69
660.104	17.56
660.515	17.42
660.926	17.29
661.338	17.15
661.749	17.02
662.159	16.88
662.57	16.77
662.981	16.65
663.392	16.53
663.803	16.41
664.213	16.28
664.624	16.17
665.035	16.06
665.445	15.96
665.855	15.86
666.266	15.76
666.676	15.7
667.086	15.6
667.497	15.51
667.907	15.45
668.317	15.39
668.727	15.34
669.137	15.28
669.547	15.24
669.956	15.2
670.366	15.17
670.776	15.14
671.186	15.1
671.595	15.07
672.005	15.04
672.414	15.02
672.824	15
673.233	14.99
673.642	14.99
674.052	14.99
674.461	14.99
674.87	14.99
675.279	15.01
675.688	15.02
676.097	15.05
676.506	15.1
676.915	15.14
677.323	15.19
677.732	15.25
678.141	15.32
678.549	15.41
678.958	15.49
679.366	15.6
679.775	15.7
680.183	15.86
680.592	16.03
681	16.2
681.408	16.4
681.816	16.64
682.224	16.89
682.632	17.16
683.04	17.44
683.448	17.78
683.856	18.12
684.264	18.52
684.671	18.92
685.079	19.36
685.487	19.84
685.894	20.33
686.302	20.84
686.709	21.37
687.116	21.93
687.524	22.53
687.931	23.12
688.338	23.76
688.745	24.39
689.152	25.05
689.559	25.7
689.966	26.37
690.373	27.06
690.78	27.75
691.187	28.44
691.593	29.13
692	29.8
692.407	30.46
692.813	31.13
693.22	31.76
693.626	32.4
694.032	33.03
694.439	33.65
694.845	34.26
695.251	34.83
695.657	35.4
696.063	35.96
696.469	36.5
696.875	37.05
697.281	37.57
697.687	38.1
698.093	38.59
698.498	39.07
698.904	39.52
699.31	39.95
699.715	40.4
700.12	40.83
700.526	41.22
700.931	41.62
701.337	42
701.742	42.37
702.147	42.72
702.552	43.08
702.957	43.4
703.362	43.71
703.767	44.02
704.172	44.31
704.577	44.6
704.981	44.89
705.386	45.18
705.791	45.44
706.195	45.7
706.6	45.96
707.004	46.19
707.408	46.45
707.813	46.71
708.217	46.94
708.621	47.18
709.025	47.4
709.43	47.59
709.834	47.8
710.237	48
710.641	48.2
711.045	48.38
711.449	48.6
711.853	48.8
712.256	48.94
712.66	49.13
713.064	49.3
713.467	49.47
713.87	49.66
714.274	49.82
714.677	49.99
715.08	50.13
715.484	50.3
715.887	50.45
716.29	50.59
716.693	50.76
717.096	50.88
717.499	51.02
717.901	51.15
718.304	51.27
718.707	51.39
719.109	51.52
719.512	51.62
719.915	51.75
720.317	51.82
720.719	51.91
721.122	52.02
721.524	52.12
721.926	52.22
722.328	52.3
722.731	52.37
723.133	52.47
723.535	52.55
723.937	52.64
724.338	52.68
724.74	52.78
725.142	52.96
725.544	53.02
725.945	53.14
726.347	53.18
726.748	53.26
727.15	53.34
727.551	53.42
727.952	53.48
728.354	53.53
728.755	53.59
729.156	53.64
729.557	53.58
729.958	53.61
730.359	53.62
730.76	53.71
731.161	53.74
731.562	53.78
731.962	53.77
732.363	53.8
732.763	53.85
733.164	53.88
733.564	53.92
733.965	53.94
734.365	53.97
734.766	54
735.166	54.01
735.566	54.06
735.966	54.11
736.366	54.15
736.766	54.17
737.166	54.19
737.566	54.21
737.966	54.23
738.365	54.27
738.765	54.3
739.165	54.33
739.564	54.35
739.964	54.35
740.363	54.32
740.763	54.35
741.162	54.36
741.561	54.36
741.96	54.36
742.36	54.38
742.759	54.39
743.158	54.39
743.557	54.38
743.955	54.38
744.354	54.39
744.753	54.44
745.152	54.46
745.55	54.48
745.949	54.49
746.348	54.49
746.746	54.47
747.144	54.49
747.543	54.51
747.941	54.51
748.339	54.51
748.737	54.5
749.136	54.49
749.534	54.46
749.932	54.44
750.33	54.44
750.727	54.48
751.125	54.48
751.523	54.49
751.921	54.48
752.318	54.51
752.716	54.52
753.113	54.55
753.511	54.58
753.908	54.6
754.305	54.63
754.703	54.63
755.1	54.62
755.497	54.62
755.894	54.6
756.291	54.62
756.688	54.58
757.085	54.61
757.482	54.6
757.878	54.58
758.275	54.6
758.672	54.6
759.068	54.65
759.465	54.63
759.861	54.65
760.258	54.67
760.654	54.65
761.05	54.71
761.447	54.7
761.843	54.69
762.239	54.69
762.635	54.67
763.031	54.68
763.427	54.64
763.822	54.66
764.218	54.66
764.614	54.66
765.01	54.67
765.405	54.66
765.801	54.61
766.196	54.61
766.592	54.59
766.987	54.6
767.382	54.58
767.778	54.6
768.173	54.59
768.568	54.59
768.963	54.59
769.358	54.59
769.753	54.59
770.148	54.59
770.542	54.61
770.937	54.65
771.332	54.63
771.726	54.62
772.121	54.6
772.515	54.6
772.91	54.58
773.304	54.59
773.699	54.59
774.093	54.56
774.487	54.59
774.881	54.6
775.275	54.58
775.669	54.59
776.063	54.58
776.457	54.62
776.851	54.6
777.245	54.61
777.638	54.6
778.032	54.63
778.425	54.67
778.819	54.68
779.212	54.67
779.606	54.68
779.999	54.69
780.392	54.75
780.786	54.72
781.179	54.75
781.572	54.8
781.965	54.82
782.358	54.82
782.751	54.8
783.143	54.79
783.536	54.8
783.929	54.77
784.322	54.81
784.714	54.8
785.107	54.83
785.499	54.82
785.891	54.78
786.284	54.8
786.676	54.78
787.068	54.77
787.46	54.77
787.852	54.79
788.245	54.82
788.636	54.78
789.028	54.77
789.42	54.75
789.812	54.77
790.204	54.79
790.595	54.78
790.987	54.8
791.378	54.86
791.77	54.86
792.161	54.83
792.553	54.85
792.944	54.86
793.335	54.87
793.726	54.89
794.117	54.91
794.508	54.9
794.899	54.89
795.29	54.89
795.681	54.86
796.072	54.86
796.463	54.9
796.853	54.9
797.244	54.92
797.634	54.92
798.025	54.94
798.415	54.94
798.806	54.94
799.196	54.97
799.586	54.97
799.976	54.99
800.366	55
800.756	55.01
801.146	55.03
801.536	55.04
801.926	55.05
802.316	55.05
802.706	55.07
803.095	55.07
803.485	55.06
803.874	55.06
804.264	55.07
804.653	55.08
805.043	55.07
805.432	55.06
805.821	55.06
806.21	55.05
806.599	55.04
806.988	55.04
807.377	55.05
807.766	55.05
808.155	55.04
808.544	55.06
808.933	55.06
809.321	55.08
809.71	55.07
810.098	55.07
810.487	55.04
810.875	55.05
811.264	55.02
811.652	55.05
812.04	55.08
812.428	55.11
812.816	55.11
813.204	55.12
813.592	55.12
813.98	55.13
814.368	55.14
814.756	55.15
815.144	55.15
815.531	55.16
815.919	55.14
816.306	55.12
816.694	55.12
817.081	55.11
817.469	55.11
817.856	55.1
818.243	55.08
818.63	55.09
819.017	55.08
819.404	55.1
819.791	55.09
820.178	55.12
820.565	55.1
820.952	55.09
821.339	55.08
821.725	55.11
822.112	55.13
822.498	55.14
822.885	55.17
823.271	55.19
823.657	55.16
824.044	55.2
824.43	55.21
824.816	55.26
825.202	55.26
825.588	55.27
825.974	55.24
826.36	55.23
826.746	55.22
827.132	55.18
827.517	55.17
827.903	55.21
828.289	55.2
828.674	55.2
829.06	55.15
829.445	55.16
829.83	55.13
830.216	55.14
830.601	55.15
830.986	55.18
831.371	55.18
831.756	55.2
832.141	55.16
832.526	55.16
832.911	55.13
833.295	55.16
833.68	55.16
834.065	55.19
834.449	55.16
834.834	55.14
835.218	55.14
835.603	55.15
835.987	55.11
836.371	55.11
836.755	55.1
837.139	55.09
837.524	55.08
837.908	55.11
838.291	55.13
838.675	55.14
839.059	55.14
839.443	55.12
839.827	55.11
840.21	55.13
840.594	55.16
840.977	55.15
841.361	55.16
841.744	55.14
842.127	55.11
842.511	55.06
842.894	55.03
843.277	55.03
843.66	55.02
844.043	55.03
844.426	55.02
844.809	55.01
845.191	55.03
845.574	55.03
845.957	55.06
846.339	55.06
846.722	55.08
847.104	55.12
847.487	55.12
847.869	55.13
848.252	55.13
848.634	55.13
849.016	55.14
849.398	55.15
849.78	55.15
850.162	55.11
850.544	55.1
850.926	55.1
851.307	55.09
851.689	55.11
852.071	55.12
852.452	55.13
852.834	55.13
853.215	55.12
853.597	55.1
853.978	55.09
854.359	55.12
854.741	55.14
855.122	55.14
855.503	55.15
855.884	55.11
856.265	55.09
856.646	55.06
857.026	55.08
857.407	55.09
857.788	55.09
858.169	55.13
858.549	55.12
858.93	55.14
859.31	55.14
859.69	55.16
860.071	55.19
860.451	55.2
860.831	55.23
861.211	55.21
861.591	55.2
861.971	55.19
862.351	55.18
862.731	55.2
863.111	55.18
863.491	55.21
863.87	55.2
864.25	55.19
864.629	55.19
865.009	55.19
865.388	55.2
865.768	55.21
866.147	55.22
866.526	55.22
866.905	55.24
867.284	55.24
867.663	55.21
868.042	55.23
868.421	55.25
868.8	55.25
869.179	55.26
869.558	55.28
869.936	55.26
870.315	55.28
870.693	55.28
871.072	55.25
871.45	55.27
871.828	55.28
872.207	55.28
872.585	55.27
872.963	55.27
873.341	55.26
873.719	55.27
874.097	55.29
874.475	55.3
874.853	55.31
875.23	55.35
875.608	55.35
875.986	55.39
876.363	55.38
876.741	55.42
877.118	55.43
877.495	55.46
877.873	55.46
878.25	55.47
878.627	55.47
879.004	55.48
879.381	55.49
879.758	55.45
880.135	55.4
880.512	55.38
880.889	55.37
881.265	55.34
881.642	55.33
882.019	55.33
882.395	55.31
882.772	55.29
883.148	55.25
883.524	55.22
883.901	55.24
884.277	55.21
884.653	55.23
885.029	55.21
885.405	55.23
885.781	55.21
886.157	55.18
886.532	55.18
886.908	55.2
887.284	55.19
887.659	55.18
888.035	55.15
888.411	55.16
888.786	55.15
889.161	55.15
889.537	55.11
889.912	55.12
890.287	55.12
890.662	55.1
891.037	55.1
891.412	55.09
891.787	55.08
892.162	55.1
892.536	55.1
892.911	55.1
893.286	55.1
893.66	55.1
894.035	55.12
894.409	55.11
894.784	55.14
895.158	55.11
895.532	55.13
895.906	55.12
896.281	55.11
896.655	55.09
897.029	55.11
897.402	55.1
897.776	55.14
898.15	55.14
898.524	55.16
898.898	55.12
899.271	55.14
899.645	55.15
900.018	55.18
900.392	55.2
900.765	55.23
901.138	55.23
901.511	55.24
901.884	55.24
902.258	55.25
902.631	55.25
903.003	55.31
903.376	55.3
903.749	55.3
904.122	55.3
904.495	55.31
904.867	55.32
905.24	55.32
905.612	55.34
905.985	55.33
906.357	55.3
906.729	55.3
907.102	55.29
907.474	55.32
907.846	55.33
908.218	55.31
908.59	55.31
908.962	55.29
909.334	55.32
909.705	55.31
910.077	55.32
910.449	55.36
910.82	55.39
911.192	55.39
911.563	55.38
911.935	55.35
912.306	55.38
912.677	55.39
913.048	55.41
913.419	55.39
913.79	55.39
914.161	55.39
914.532	55.34
914.903	55.31
915.274	55.31
915.645	55.32
916.015	55.38
916.386	55.37
916.756	55.34
917.127	55.37
917.497	55.39
917.868	55.4
918.238	55.4
918.608	55.47
918.978	55.5
919.348	55.51
919.718	55.5
920.088	55.49
920.458	55.51
920.828	55.51
921.198	55.46
921.567	55.48
921.937	55.48
922.306	55.5
922.676	55.48
923.045	55.48
923.415	55.47
923.784	55.48
924.153	55.49
924.522	55.49
924.891	55.51
925.26	55.53
925.629	55.51
925.998	55.49
926.367	55.5
926.736	55.49
927.104	55.48
927.473	55.45
927.842	55.43
928.21	55.41
928.578	55.38
928.947	55.39
929.315	55.37
929.683	55.36
930.051	55.38
930.42	55.33
930.788	55.28
931.156	55.26
931.523	55.24
931.891	55.26
932.259	55.23
932.627	55.24
932.994	55.19
933.362	55.18
933.729	55.16
934.097	55.11
934.464	55.15
934.831	55.18
935.199	55.18
935.566	55.21
935.933	55.16
936.3	55.19
936.667	55.17
937.034	55.23
937.401	55.3
937.767	55.33
938.134	55.32
938.501	55.34
938.867	55.4
939.234	55.42
939.6	55.41
939.967	55.46
940.333	55.43
940.699	55.5
941.065	55.43
941.431	55.44
941.798	55.45
942.163	55.47
942.529	55.47
942.895	55.43
943.261	55.44
943.627	55.52
943.992	55.53
944.358	55.53
944.723	55.46
945.089	55.45
945.454	55.5
945.82	55.44
946.185	55.47
946.55	55.36
946.915	55.32
947.28	55.3
947.645	55.26
948.01	55.26
948.375	55.28
948.74	55.26
949.104	55.32
949.469	55.22
949.834	55.18
950.198	55.15
950.562	55.17
950.927	55.23
951.291	55.14
951.655	55.09
952.02	55.08
952.384	54.99
952.748	55.01
953.112	54.94
953.476	54.87
953.839	54.83
954.203	54.78
954.567	54.75
954.931	54.65
955.294	54.61
955.658	54.65
956.021	54.58
956.385	54.56
956.748	54.49
957.111	54.44
957.474	54.44
957.837	54.41
958.2	54.39
958.563	54.39
958.926	54.41
959.289	54.46
959.652	54.41
960.015	54.37
960.377	54.38
960.74	54.44
961.102	54.45
961.465	54.54
961.827	54.55
962.189	54.57
962.552	54.55
962.914	54.52
963.276	54.56
963.638	54.59
964	54.64
964.362	54.68
964.724	54.67
965.085	54.66
965.447	54.57
965.809	54.62
966.17	54.66
966.532	54.68
966.893	54.72
967.255	54.69
967.616	54.66
967.977	54.66
968.338	54.62
968.699	54.61
969.061	54.6
969.421	54.65
969.782	54.66
970.143	54.61
970.504	54.62
970.865	54.64
971.225	54.62
971.586	54.59
971.946	54.53
972.307	54.51
972.667	54.48
973.027	54.52
973.388	54.51
973.748	54.53
974.108	54.59
974.468	54.59
974.828	54.59
975.188	54.61
975.548	54.63
975.907	54.67
976.267	54.7
976.627	54.75
976.986	54.72
977.346	54.65
977.705	54.61
978.064	54.57
978.424	54.53
978.783	54.44
979.142	54.41
979.501	54.43
979.86	54.5
980.219	54.46
980.578	54.5
980.937	54.55
981.296	54.55
981.654	54.54
982.013	54.62
982.371	54.61
982.73	54.67
983.088	54.71
983.447	54.68
983.805	54.6
984.163	54.68
984.521	54.57
984.879	54.49
985.237	54.55
985.595	54.59
985.953	54.5
986.311	54.51
986.669	54.52
987.026	54.39
987.384	54.46
987.741	54.48
988.099	54.45
988.456	54.51
988.814	54.6
989.171	54.53
989.528	54.5
989.885	54.47
990.242	54.48
990.599	54.54
990.956	54.72
991.313	54.73
991.67	54.71
992.027	54.81
992.383	54.87
992.74	54.87
993.096	54.89
993.453	54.93
993.809	54.99
994.165	55.06
994.522	55.11
994.878	55.08
995.234	55.08
995.59	55.1
995.946	55.08
996.302	55.07
996.658	55.19
997.013	55.25
997.369	55.3
997.725	55.39
998.08	55.46
998.436	55.42
998.791	55.5
999.147	55.43
999.502	55.54
999.857	55.56
1000.212	55.51
1000.567	55.49
1000.922	55.49
1001.277	55.5
1001.632	55.32
1001.987	55.2
1002.342	55.12
1002.696	55.11
1003.051	55.33
1003.406	55.27
1003.76	55.21
1004.114	55.23
1004.469	55.23
1004.823	55.47
1005.177	55.44
1005.531	55.68
1005.885	55.92
1006.239	56
1006.593	56.13
1006.947	56.11
1007.301	56.19
1007.655	56.22
1008.008	56.38
1008.362	56.44
1008.715	56.38
1009.069	56.43
1009.422	56.37
1009.776	56.22
1010.129	56.31
1010.482	56.24
1010.835	56.34
1011.188	56.4
1011.541	56.42
1011.894	56.32
1012.247	56.4
1012.6	56.41
1012.952	56.5
1013.305	56.72
1013.657	56.83
1014.01	56.84
1014.362	56.81
1014.715	56.86
1015.067	56.92
1015.419	57.14
1015.771	57.3
1016.123	57.23
1016.475	57.26
1016.827	57.29
1017.179	57.33
1017.531	57.46
1017.883	57.61
1018.234	57.7
1018.586	57.66
1018.938	57.9
1019.289	57.84
1019.64	57.88
1019.992	57.9
1020.343	57.97
1020.694	58.07
1021.045	57.89
1021.396	58.06
1021.747	57.97
1022.098	58.18
1022.449	58.2
1022.8	58.24
1023.151	58.47
1023.501	58.51
1023.852	58.85
1024.202	58.94
1024.553	58.98
1024.903	59.08
1025.253	59.08
1025.604	59.23
1025.954	59.21
1026.304	59.36
1026.654	59.23
1027.004	58.88
1027.354	58.68
1027.703	58.25
1028.053	58.14
1028.403	58.39
1028.753	58.42
1029.102	58.31
1029.452	58.22
1029.801	58.12
1030.15	57.94
1030.499	57.77
897.758	1437.11
901.051	1444.73
904.343	1441.68
907.636	1466.26
910.928	1427.19
914.22	1426.3
917.511	1407.86
920.803	1349.92
924.094	1342.56
927.384	1313.05
930.675	1257.67
933.965	1252.63
937.255	1179.34
940.544	1132.25
943.834	1076.24
947.123	1070.24
950.411	1005.88
953.7	985.29
956.988	928.73
960.276	893.27
963.563	880.77
966.851	848.58
970.138	840.1
973.424	813.81
976.711	818.07
979.997	779.34
983.283	772.54
986.568	757.95
989.853	734.14
993.138	723.4
996.423	695
999.708	673.95
1002.992	666.38
1006.275	638.8
1009.559	631.61
1012.842	610.5
1016.125	591.85
1019.408	581.7
1022.69	575.03
1025.972	562.83
1029.254	549.5
1032.536	540.53
1035.817	530.24
1039.098	522.41
1042.379	510.52
1045.659	506.21
1048.939	491.66
1052.219	484.88
1055.498	476.88
1058.778	464.83
1062.057	455.35
1065.335	449.54
1068.614	444.67
1071.892	439.02
1075.17	426.16
1078.447	417.72
1081.724	414.75
1085.001	412.28
1088.278	403.05
1091.554	395.04
1094.83	396.19
1098.106	393.09
1101.382	389.25
1104.657	386.32
1107.932	380.58
1111.206	381.98
1114.481	372.87
1117.755	369.01
1121.029	365.63
1124.302	365.45
1127.575	358.82
1130.848	353.46
1134.121	350.1
1137.393	348.45
1140.665	340.13
1143.937	338.67
1147.208	336.25
1150.48	336.19
1153.75	331.8
1157.021	327.21
1160.291	327.25
1163.561	323.36
1166.831	323.88
1170.101	320.88
1173.37	320.83
1176.639	322.32
1179.907	319.14
1183.176	315.46
1186.444	314.11
1189.711	313.89
1192.979	313.37
1196.246	310.89
1199.513	312.34
1202.78	310.16
1206.046	310.49
1209.312	306.56
1212.578	306.95
1215.843	308.71
1219.108	307.7
1222.373	314.58
1225.638	316.58
1228.902	320.96
1232.166	320.51
1235.43	323.71
1238.693	327.38
1241.956	328.82
1245.219	334.97
1248.482	335.01
1251.744	334.95
1255.006	335.74
1258.268	327.96
1261.529	324.8
1264.79	322.42
1268.051	321.45
1271.312	316.85
1274.572	312.73
1277.832	309.93
1281.092	304.67
1284.351	302.33
1287.61	301.97
1290.869	298.06
1294.128	295.84
1297.386	296.17
1300.644	292.81
1303.902	294.48
1307.159	293.01
1310.416	293.61
1313.673	293.3
1316.93	296.65
1320.186	296.52
1323.442	297.33
1326.697	302.22
1329.953	303.69
1333.208	304.12
1336.463	307.63
1339.717	307.12
1342.972	311.63
1346.226	314.59
1349.479	315.2
1352.733	315.64
1355.986	316.76
1359.238	316.94
1362.491	318.53
1365.743	321.18
1368.995	322.46
1372.247	321.51
1375.498	321.99
1378.749	324.17
1382	319.1
1385.251	320.66
1388.501	319.28
1391.751	321.57
1395	319.7
1398.25	317.12
1401.499	314.93
1404.748	313.89
1407.996	311.4
1411.244	309.84
1414.492	307.83
1417.74	306.45
1420.987	302.18
1424.234	302
1427.481	297.11
1430.728	297.82
1433.974	294.51
1437.22	292.5
1440.465	291.78
1443.711	290.01
1446.956	288.12
1450.201	284.72
1453.445	282.16
1456.689	281.15
1459.933	276.53
1463.177	274.48
1466.42	269.79
1469.663	266.92
1472.906	265.09
1476.148	258.47
1479.391	254.87
1482.633	252.55
1485.874	248.49
1489.115	246.86
1492.356	243.85
1495.597	243.44
1498.838	240.11
1502.078	238.65
1505.318	237.51
1508.557	237.52
1511.797	236.99
1515.036	236.44
1518.274	235.19
1521.513	233.03
1524.751	232.61
1527.989	232.01
1531.227	230.49
1534.464	231.11
1537.701	229.14
1540.938	228.8
1544.174	225.82
1547.41	225.68
1550.646	223.98
1553.882	224.54
1557.117	221.85
1560.352	220.23
1563.587	219.15
1566.821	217.9
1570.055	215.39
1573.289	213.94
1576.523	213.56
1579.756	211.76
1582.989	210.31
1586.222	210.75
1589.454	208.46
1592.686	210.51
1595.918	209.54
1599.15	208.83
1602.381	209.3
1605.612	209.14
1608.843	210.4
1612.073	210.01
1615.303	211.25
1618.533	211.49
1621.762	210.63
1624.992	211.49
1628.221	210.8
1631.449	210.79
1634.678	210.32
1637.906	211.27
1641.134	211.12
1644.361	210.27
1647.588	210.91
1650.815	210.11
1654.042	209.36
1657.269	210.96
1660.495	210.91
1663.72	210.25
1666.946	211.02
1670.171	211.63
1673.396	210.84
1676.621	211.54
1679.845	211.72
1683.069	211.73
1686.293	213.15
1689.517	214.15
1692.74	213.48
1695.963	214.42
1699.185	216.51
1702.408	216.39
1705.63	217.38
1708.852	218.2
1712.073	218.4
1715.294	218.99
1718.515	220.43
1721.736	219.83
1724.956	220.89
1728.176	220.57
1731.396	222.75
1734.616	221.52
1737.835	222.65
1741.054	221.2
1744.272	221.47
1747.491	223.7
1750.709	224.54
1753.927	224.18
1757.144	223.89
1760.361	224.55
1763.578	225.46
1766.795	224.11
1770.011	226.35
1773.227	226.18
1776.443	228.88
1779.658	230.24
1782.874	229.5
1786.089	230.09
1789.303	230.81
1792.518	233.24
1795.732	232.98
1798.945	235.56
1802.159	235.86
1805.372	236.07
1808.585	240.46
1811.797	240.85
1815.01	241.03
1818.222	242.92
1821.434	244.46
1824.645	246.11
1827.856	249.93
1831.067	252.16
1834.278	250.74
1837.488	252.87
1840.698	254.76
1843.908	252.03
1847.117	253.97
1850.326	255.65
1853.535	254.99
1856.744	258.77
1859.952	258.25
1863.16	256.98
1866.368	255.58
1869.575	259.17
1872.782	254.48
1875.989	254.29
1879.196	253.81
1882.402	251.98
1885.608	252.63
1888.814	253.12
1892.019	252.71
1895.224	251.56
1898.429	250.42
1901.634	251.44
1904.838	251.33
1908.042	254.65
1911.246	255.01
1914.449	256.33
1917.652	256.46
1920.855	256.35
1924.058	255.9
1927.26	254.03
1930.462	254.91
1933.664	257.97
1936.865	256.48
1940.066	255.73
1943.267	254.27
1946.467	253.88
1949.668	256.01
1952.868	258.88
1956.067	258.59
1959.267	259.94
1962.466	260.95
1965.665	259.51
1968.863	259.91
1972.061	263.66
1975.259	265.95
1978.457	268.91
1981.654	271.98
1984.852	271.57
1988.048	270.96
1991.245	273.53
1994.441	276.11
1997.637	278.12
2000.833	283.86
2004.028	287.47
2007.223	287.46
2010.418	290.84
2013.613	294.89
2016.807	296.74
2020.001	300.1
2023.194	304.56
2026.388	311.02
2029.581	317.55
2032.774	320.4
2035.966	326.98
2039.158	327.19
2042.35	334.68
2045.542	336.38
2048.733	342.04
2051.924	346.62
2055.115	351.93
2058.306	352.72
2061.496	356.9
2064.686	356.81
2067.875	363.34
2071.065	365.28
2074.254	363.39
2077.442	367.62
2080.631	369.04
2083.819	372.69
2087.007	373.16
2090.195	377.33
2093.382	380.81
2096.569	377.63
2099.756	384.12
2102.942	384.12
2106.128	387.9
2109.314	396.75
2112.5	395.05
2115.685	404.78
2118.87	405.51
2122.055	413.23
2125.239	416.58
2128.424	421.23
2131.608	424.86
2134.791	430.86
2137.974	432.38
2141.157	432.46
2144.34	433.43
2147.523	440.52
2150.705	436.41
2153.887	440.5
2157.068	441.71
2160.25	437.48
2163.431	440.98
2166.611	445
2169.792	453.64
2172.972	458.02
2176.152	461.98
2179.331	468.13
2182.511	475.8
2185.69	480.79
2188.868	491.21
2192.047	491.61
2195.225	506.64
2198.403	517.59
2201.58	528.27
2204.758	536.67
2207.935	549.62
2211.111	558.93
2214.288	564.54
2217.464	566.08
2220.64	575.51
2223.815	581.55
2226.991	606.51
2230.166	606.06
2233.34	617.54
2236.515	629.4
2239.689	629.5
2242.863	632.26
2246.036	650.28
2249.209	644.66
2252.382	656.64
2255.555	675.33
2258.727	678.12
2261.9	679.41
2265.071	687.82
2268.243	698.44
2271.414	703.04
2274.585	720.01
2277.756	727.05
2280.926	732.03
2284.096	751.18
2287.266	766.91
2290.436	771.51
2293.605	791.69
2296.774	815.76
2299.942	841.44
2303.111	845.73
2306.279	865.78
2309.447	877.72
2312.614	899.68
2315.781	923
2318.948	966.5
2322.115	952.02
2325.281	1003.59
2328.447	979.57
2331.613	1023.86
2334.779	1011.47
2337.944	1054.23
2341.109	1064.62
2344.274	1093.33
2347.438	1133.12
2350.602	1131.68
2353.766	1167.09
2356.929	1183.76
2360.092	1178.71
2363.255	1263.16
2366.418	1255.12
2369.58	1282.35
2372.742	1362.41
2375.904	1397.37
2379.066	1385.44
2382.227	1358.77
2385.388	1479.35
2388.548	1475.51
2391.709	1495.18
2394.869	1664.13
2398.029	1596.01
2401.188	1646.39
2404.347	1633.73
2407.506	1605.78
2410.665	1651.1
2413.823	1753.65
2416.981	1857.96
2420.139	1793.93
2423.296	1775.87
2426.453	1851.42
2429.61	1782.92
2432.767	1865.35
2435.923	1841.33
2439.079	2018.15
2442.235	2045.35
2445.391	2027.06
2448.546	2011.19
2451.701	1951.99
2454.855	1947.23
2458.009	2077.56
2461.163	2154.19
2464.317	2233.74
2467.471	2291.04
2470.624	2293.99
2473.777	2222.57
2476.929	2169.04
2480.082	2106.23
2483.234	2081.77
2486.385	2188.94
2489.537	2201.49
2492.688	2273.17
2495.839	2220.12
2498.989	2167.89
2502.14	2179.73
2505.29	2201.5
2508.439	2244.47
2511.589	2235.88
2514.738	2438.49
2517.887	2379.64
2521.035	2522.32
2524.183	2546.87
2527.331	2560.42
2530.479	2549.48
2533.627	2568.74
