Data from N_2_HIR_IL_4N_Splice17_13-10-58-127.txt Node
Date: Sat Mar 07 13:10:58 EST 2020
User: sa697716
Spectrometer: NQ5500242
Trigger mode: 0
Integration Time (sec): 1.450000E-1
Scans to average: 20
Nonlinearity correction enabled: false
Boxcar width: 5
Storing dark spectrum: false
XAxis mode: Wavelengths
Number of Pixels in Spectrum: 512
>>>>>Begin Spectral Data<<<<<
187.83	121.55
188.298	134.55
188.766	106.64
189.233	85.97
189.701	98.59
190.169	117.73
190.636	105.03
191.104	119.13
191.571	57.02
192.039	190.04
192.506	523.04
192.974	-43.81
193.441	48.51
193.908	-15.29
194.375	-19.33
194.842	-20.49
195.31	25.96
195.777	-6.94
196.244	48.88
196.711	45.02
197.177	47.36
197.644	45.11
198.111	43.7
198.578	43.81
199.045	44.29
199.511	44.35
199.978	44.53
200.445	44.46
200.911	44.38
201.378	44.24
201.844	44.22
202.31	43.87
202.777	43.93
203.243	44.14
203.709	43.86
204.176	43.53
204.642	43.57
205.108	43.37
205.574	43.15
206.04	42.83
206.506	42.79
206.972	42.8
207.438	42.38
207.903	42.07
208.369	41.29
208.835	40.76
209.301	40.18
209.766	39.14
210.232	38.36
210.697	37.64
211.163	37.11
211.628	36.43
212.094	35.73
212.559	35.31
213.024	34.81
213.49	34.56
213.955	33.92
214.42	33.14
214.885	32.5
215.35	31.81
215.815	30.82
216.28	29.28
216.745	27.78
217.21	26.32
217.675	25.03
218.14	23.95
218.604	22.93
219.069	22.18
219.534	21.62
219.998	21.07
220.463	20.62
220.927	20.13
221.392	19.82
221.856	19.55
222.32	19.29
222.785	19.05
223.249	18.81
223.713	18.61
224.177	18.43
224.642	18.21
225.106	17.98
225.57	17.73
226.034	17.54
226.497	17.36
226.961	17.16
227.425	17
227.889	16.83
228.353	16.65
228.816	16.44
229.28	16.22
229.744	16.05
230.207	15.89
230.671	15.74
231.134	15.58
231.597	15.44
232.061	15.28
232.524	15.12
232.987	14.96
233.45	14.81
233.914	14.69
234.377	14.56
234.84	14.43
235.303	14.31
235.766	14.18
236.229	14.06
236.691	13.92
237.154	13.8
237.617	13.68
238.08	13.56
238.542	13.44
239.005	13.32
239.468	13.2
239.93	13.08
240.393	12.97
240.855	12.83
241.317	12.7
241.78	12.58
242.242	12.47
242.704	12.37
243.166	12.27
243.629	12.18
244.091	12.06
244.553	11.97
245.015	11.86
245.477	11.76
245.939	11.67
246.4	11.58
246.862	11.5
247.324	11.41
247.786	11.31
248.247	11.21
248.709	11.11
249.17	11.03
249.632	10.95
250.093	10.9
250.555	10.83
251.016	10.77
251.477	10.71
251.939	10.65
252.4	10.59
252.861	10.53
253.322	10.49
253.783	10.44
254.244	10.4
254.705	10.34
255.166	10.28
255.627	10.22
256.088	10.18
256.549	10.12
257.009	10.06
257.47	10
257.931	9.93
258.391	9.86
258.852	9.8
259.312	9.74
259.773	9.69
260.233	9.64
260.694	9.59
261.154	9.53
261.614	9.49
262.074	9.44
262.534	9.4
262.994	9.36
263.455	9.33
263.915	9.3
264.374	9.27
264.834	9.24
265.294	9.21
265.754	9.19
266.214	9.16
266.673	9.13
267.133	9.12
267.593	9.1
268.052	9.08
268.512	9.07
268.971	9.05
269.431	9.03
269.89	9
270.349	8.98
270.809	8.97
271.268	8.96
271.727	8.94
272.186	8.92
272.645	8.9
273.104	8.87
273.563	8.85
274.022	8.83
274.481	8.82
274.94	8.8
275.399	8.78
275.857	8.76
276.316	8.73
276.775	8.71
277.233	8.69
277.692	8.67
278.15	8.65
278.609	8.63
279.067	8.6
279.525	8.58
279.984	8.54
280.442	8.51
280.9	8.48
281.358	8.45
281.816	8.43
282.274	8.4
282.732	8.36
283.19	8.33
283.648	8.29
284.106	8.26
284.564	8.23
285.021	8.21
285.479	8.17
285.937	8.14
286.394	8.1
286.852	8.07
287.309	8.03
287.767	7.99
288.224	7.95
288.682	7.91
289.139	7.88
289.596	7.85
290.053	7.81
290.511	7.78
290.968	7.75
291.425	7.73
291.882	7.7
292.339	7.68
292.796	7.67
293.252	7.64
293.709	7.62
294.166	7.6
294.623	7.57
295.079	7.55
295.536	7.53
295.992	7.5
296.449	7.48
296.905	7.46
297.362	7.43
297.818	7.4
298.274	7.38
298.731	7.36
299.187	7.33
299.643	7.31
300.099	7.29
300.555	7.26
301.011	7.25
301.467	7.23
301.923	7.21
302.379	7.19
302.835	7.18
303.291	7.17
303.746	7.15
304.202	7.14
304.658	7.13
305.113	7.12
305.569	7.11
306.024	7.08
306.479	7.06
306.935	7.05
307.39	7.03
307.845	7.01
308.301	7
308.756	6.98
309.211	6.97
309.666	6.95
310.121	6.93
310.576	6.92
311.031	6.91
311.486	6.89
311.94	6.87
312.395	6.86
312.85	6.85
313.305	6.82
313.759	6.82
314.214	6.79
314.668	6.77
315.123	6.76
315.577	6.74
316.032	6.73
316.486	6.7
316.94	6.68
317.394	6.65
317.849	6.62
318.303	6.6
318.757	6.58
319.211	6.57
319.665	6.55
320.119	6.53
320.572	6.5
321.026	6.49
321.48	6.47
321.934	6.46
322.387	6.45
322.841	6.44
323.295	6.43
323.748	6.41
324.202	6.4
324.655	6.38
325.108	6.38
325.562	6.36
326.015	6.35
326.468	6.34
326.921	6.32
327.374	6.31
327.827	6.3
328.28	6.29
328.733	6.28
329.186	6.28
329.639	6.27
330.092	6.26
330.545	6.24
330.997	6.23
331.45	6.22
331.903	6.22
332.355	6.22
332.808	6.21
333.26	6.19
333.713	6.18
334.165	6.16
334.617	6.15
335.069	6.14
335.522	6.14
335.974	6.14
336.426	6.13
336.878	6.1
337.33	6.09
337.782	6.07
338.234	6.07
338.686	6.06
339.137	6.05
339.589	6.04
340.041	6.02
340.493	6
340.944	5.98
341.396	5.96
341.847	5.95
342.299	5.93
342.75	5.91
343.201	5.89
343.653	5.87
344.104	5.86
344.555	5.84
345.006	5.82
345.457	5.82
345.908	5.8
346.359	5.79
346.81	5.78
347.261	5.77
347.712	5.77
348.163	5.75
348.613	5.75
349.064	5.74
349.515	5.74
349.965	5.72
350.416	5.7
350.866	5.7
351.317	5.69
351.767	5.68
352.217	5.68
352.668	5.66
353.118	5.67
353.568	5.66
354.018	5.66
354.468	5.65
354.918	5.65
355.368	5.64
355.818	5.64
356.268	5.63
356.718	5.63
357.168	5.61
357.617	5.61
358.067	5.6
358.517	5.61
358.966	5.6
359.416	5.59
359.865	5.59
360.315	5.59
360.764	5.59
361.213	5.58
361.663	5.58
362.112	5.57
362.561	5.57
363.01	5.56
363.459	5.54
363.908	5.54
364.357	5.54
364.806	5.52
365.255	5.51
365.703	5.51
366.152	5.5
366.601	5.5
367.05	5.49
367.498	5.47
367.947	5.47
368.395	5.47
368.844	5.46
369.292	5.44
369.74	5.44
370.189	5.42
370.637	5.4
371.085	5.39
371.533	5.37
371.981	5.36
372.429	5.35
372.877	5.34
373.325	5.33
373.773	5.32
374.221	5.32
374.669	5.3
375.116	5.29
375.564	5.28
376.012	5.27
376.459	5.27
376.907	5.27
377.354	5.26
377.801	5.26
378.249	5.25
378.696	5.25
379.143	5.24
379.591	5.24
380.038	5.23
380.485	5.23
380.932	5.22
381.379	5.21
381.826	5.2
382.273	5.19
382.72	5.16
383.166	5.16
383.613	5.14
384.06	5.13
384.506	5.12
384.953	5.12
385.4	5.11
385.846	5.11
386.292	5.11
386.739	5.1
387.185	5.09
387.631	5.1
388.078	5.08
388.524	5.08
388.97	5.08
389.416	5.08
389.862	5.08
390.308	5.09
390.754	5.09
391.2	5.09
391.645	5.1
392.091	5.11
392.537	5.11
392.983	5.12
393.428	5.12
393.874	5.12
394.319	5.12
394.765	5.12
395.21	5.11
395.655	5.12
396.101	5.13
396.546	5.13
396.991	5.14
397.436	5.15
397.881	5.16
398.326	5.19
398.771	5.21
399.216	5.23
399.661	5.24
400.106	5.26
400.551	5.26
400.995	5.26
401.44	5.27
401.885	5.28
402.329	5.3
402.774	5.31
403.218	5.33
403.663	5.34
404.107	5.36
404.551	5.37
404.995	5.39
405.44	5.39
405.884	5.42
406.328	5.44
406.772	5.44
407.216	5.46
407.66	5.47
408.104	5.46
408.547	5.47
408.991	5.48
409.435	5.49
409.879	5.52
410.322	5.55
410.766	5.57
411.209	5.58
411.653	5.6
412.096	5.61
412.54	5.63
412.983	5.66
413.426	5.7
413.869	5.72
414.312	5.76
414.756	5.77
415.199	5.78
415.642	5.79
416.085	5.82
416.527	5.83
416.97	5.83
417.413	5.84
417.856	5.85
418.298	5.85
418.741	5.85
419.184	5.85
419.626	5.87
420.069	5.88
420.511	5.89
420.953	5.88
421.396	5.9
421.838	5.91
422.28	5.93
422.722	5.95
423.164	5.95
423.606	5.95
424.048	5.95
424.49	5.96
424.932	5.97
425.374	5.95
425.816	5.93
426.258	5.92
426.699	5.91
427.141	5.92
427.582	5.91
428.024	5.92
428.465	5.92
428.907	5.92
429.348	5.91
429.789	5.9
430.231	5.92
430.672	5.95
431.113	5.97
431.554	5.99
431.995	5.98
432.436	5.98
432.877	5.99
433.318	6.01
433.759	6.02
434.2	6.04
434.64	6.05
435.081	6.07
435.522	6.09
435.962	6.09
436.403	6.12
436.843	6.14
437.284	6.13
437.724	6.12
438.164	6.1
438.604	6.1
439.045	6.11
439.485	6.12
439.925	6.12
440.365	6.1
440.805	6.11
441.245	6.11
441.685	6.12
442.125	6.14
442.564	6.15
443.004	6.16
443.444	6.17
443.883	6.18
444.323	6.18
444.762	6.2
445.202	6.21
445.641	6.23
446.081	6.24
446.52	6.24
446.959	6.25
447.398	6.27
447.837	6.29
448.276	6.3
448.716	6.32
449.154	6.34
449.593	6.34
450.032	6.34
450.471	6.32
450.91	6.31
451.349	6.31
451.787	6.29
452.226	6.27
452.664	6.26
453.103	6.25
453.541	6.25
453.98	6.24
454.418	6.22
454.856	6.22
455.295	6.21
455.733	6.19
456.171	6.18
456.609	6.18
457.047	6.16
457.485	6.14
457.923	6.13
458.361	6.12
458.798	6.12
459.236	6.11
459.674	6.1
460.111	6.1
460.549	6.1
460.987	6.1
461.424	6.11
461.862	6.12
462.299	6.14
462.736	6.13
463.173	6.14
463.611	6.13
464.048	6.13
464.485	6.13
464.922	6.14
465.359	6.15
465.796	6.16
466.233	6.16
466.67	6.16
467.106	6.16
467.543	6.16
467.98	6.16
468.416	6.16
468.853	6.16
469.29	6.15
469.726	6.15
470.162	6.14
470.599	6.12
471.035	6.11
471.471	6.1
471.907	6.09
472.344	6.08
472.78	6.07
473.216	6.04
473.652	6.04
474.088	6.03
474.523	6.01
474.959	6.01
475.395	5.99
475.831	5.98
476.266	5.99
476.702	5.97
477.138	5.97
477.573	5.97
478.008	5.97
478.444	5.95
478.879	5.95
479.314	5.95
479.75	5.94
480.185	5.93
480.62	5.91
481.055	5.9
481.49	5.9
481.925	5.89
482.36	5.88
482.795	5.87
483.229	5.88
483.664	5.88
484.099	5.88
484.534	5.88
484.968	5.89
485.403	5.9
485.837	5.9
486.271	5.91
486.706	5.93
487.14	5.94
487.574	5.96
488.009	5.97
488.443	5.98
488.877	6.01
489.311	6.04
489.745	6.07
490.179	6.11
490.613	6.15
491.046	6.18
491.48	6.22
491.914	6.26
492.348	6.31
492.781	6.36
493.215	6.41
493.648	6.46
494.082	6.51
494.515	6.57
494.948	6.62
495.382	6.68
495.815	6.75
496.248	6.83
496.681	6.91
497.114	6.98
497.547	7.07
497.98	7.16
498.413	7.25
498.846	7.36
499.279	7.46
499.711	7.57
500.144	7.68
500.577	7.8
501.009	7.92
501.442	8.05
501.874	8.19
502.306	8.34
502.739	8.5
503.171	8.66
503.603	8.81
504.036	8.99
504.468	9.17
504.9	9.35
505.332	9.54
505.764	9.74
506.196	9.94
506.627	10.16
507.059	10.37
507.491	10.59
507.923	10.81
508.354	11.06
508.786	11.3
509.217	11.56
509.649	11.83
510.08	12.1
510.512	12.39
510.943	12.66
511.374	12.95
511.805	13.24
512.237	13.54
512.668	13.84
513.099	14.13
513.53	14.44
513.961	14.75
514.391	15.07
514.822	15.39
515.253	15.7
515.684	16.04
516.114	16.36
516.545	16.69
516.975	17.03
517.406	17.37
517.836	17.73
518.267	18.08
518.697	18.42
519.127	18.74
519.558	19.06
519.988	19.4
520.418	19.72
520.848	20.04
521.278	20.36
521.708	20.85
522.138	21.15
522.567	21.43
522.997	21.71
523.427	22
523.857	22.29
524.286	22.55
524.716	22.82
525.145	23.07
525.575	23.32
526.004	23.57
526.433	23.63
526.863	23.85
527.292	24.08
527.721	24.27
528.15	24.46
528.579	24.63
529.008	24.81
529.437	24.99
529.866	25.14
530.295	25.29
530.724	25.43
531.152	25.58
531.581	25.72
532.01	25.85
532.438	25.99
532.867	26.11
533.295	26.24
533.723	26.34
534.152	26.44
534.58	26.54
535.008	26.61
535.436	26.69
535.865	26.75
536.293	26.81
536.721	26.85
537.149	26.92
537.576	26.98
538.004	27.04
538.432	27.08
538.86	27.13
539.287	27.18
539.715	27.25
540.143	27.31
540.57	27.35
540.998	27.41
541.425	27.46
541.852	27.49
542.28	27.53
542.707	27.56
543.134	27.59
543.561	27.62
543.988	27.64
544.415	27.66
544.842	27.66
545.269	27.69
545.696	27.72
546.123	27.74
546.549	27.75
546.976	27.77
547.403	27.78
547.829	27.79
548.256	27.82
548.682	27.83
549.108	27.84
549.535	27.87
549.961	27.87
550.387	27.86
550.813	27.86
551.24	27.85
551.666	27.84
552.092	27.84
552.518	27.84
552.943	27.8
553.369	27.77
553.795	27.73
554.221	27.7
554.646	27.64
555.072	27.59
555.498	27.53
555.923	27.46
556.349	27.37
556.774	27.29
557.199	27.19
557.625	27.12
558.05	27.03
558.475	26.95
558.9	26.84
559.325	26.76
559.75	26.64
560.175	26.53
560.6	26.41
561.025	26.3
561.449	26.16
561.874	26.03
562.299	25.9
562.723	25.76
563.148	25.59
563.572	25.44
563.997	25.28
564.421	25.11
564.846	24.96
565.27	24.81
565.694	24.67
566.118	24.5
566.542	24.32
566.966	24.14
567.39	23.97
567.814	23.8
568.238	23.63
568.662	23.45
569.086	23.29
569.509	23.12
569.933	22.95
570.357	22.78
570.78	22.62
571.204	22.46
571.627	22.31
572.05	22.16
572.474	22.02
572.897	21.86
573.32	21.71
573.743	21.56
574.166	21.41
574.589	21.25
575.012	21.11
575.435	20.96
575.858	20.83
576.281	20.69
576.704	20.55
577.126	20.42
577.549	20.3
577.972	20.17
578.394	20.05
578.817	19.94
579.239	19.83
579.661	19.72
580.084	19.62
580.506	19.51
580.928	19.42
581.35	19.32
581.772	19.22
582.194	19.14
582.616	19.06
583.038	18.98
583.46	18.88
583.882	18.8
584.303	18.71
584.725	18.61
585.147	18.54
585.568	18.46
585.99	18.38
586.411	18.29
586.833	18.2
587.254	18.12
587.675	18.05
588.096	17.97
588.518	17.91
588.939	17.84
589.36	17.78
589.781	17.72
590.202	17.66
590.623	17.6
591.043	17.55
591.464	17.51
591.885	17.45
592.305	17.41
592.726	17.38
593.147	17.33
593.567	17.29
593.987	17.25
594.408	17.2
594.828	17.15
595.248	17.12
595.669	17.08
596.089	17.03
596.509	17
596.929	16.96
597.349	16.91
597.769	16.86
598.189	16.82
598.608	16.78
599.028	16.75
599.448	16.7
599.867	16.65
600.287	16.61
600.706	16.56
601.126	16.5
601.545	16.45
601.965	16.4
602.384	16.35
602.803	16.3
603.222	16.24
603.641	16.16
604.061	16.1
604.48	16.03
604.898	15.96
605.317	15.89
605.736	15.83
606.155	15.75
606.574	15.67
606.992	15.58
607.411	15.5
607.829	15.39
608.248	15.31
608.666	15.22
609.085	15.15
609.503	15.06
609.921	14.98
610.339	14.89
610.758	14.8
611.176	14.7
611.594	14.62
612.012	14.53
612.43	14.46
612.847	14.38
613.265	14.28
613.683	14.2
614.101	14.11
614.518	14.02
614.936	13.94
615.353	13.85
615.771	13.79
616.188	13.71
616.606	13.65
617.023	13.56
617.44	13.51
617.857	13.45
618.274	13.38
618.691	13.32
619.108	13.26
619.525	13.21
619.942	13.15
620.359	13.11
620.776	13.06
621.192	13.02
621.609	12.99
622.026	12.95
622.442	12.93
622.859	12.9
623.275	12.87
623.691	12.85
624.108	12.83
624.524	12.81
624.94	12.79
625.356	12.77
625.772	12.75
626.188	12.73
626.604	12.72
627.02	12.7
627.436	12.69
627.852	12.68
628.268	12.66
628.683	12.65
629.099	12.64
629.514	12.61
629.93	12.6
630.345	12.57
630.761	12.53
631.176	12.49
631.591	12.44
632.007	12.38
632.422	12.32
632.837	12.26
633.252	12.18
633.667	12.11
634.082	12.03
634.497	11.93
634.911	11.85
635.326	11.76
635.741	11.65
636.155	11.55
636.57	11.46
636.984	11.36
637.399	11.24
637.813	11.12
638.228	10.98
638.642	10.85
639.056	10.73
639.47	10.6
639.884	10.46
640.298	10.33
640.712	10.19
641.126	10.05
641.54	9.89
641.954	9.76
642.368	9.62
642.781	9.5
643.195	9.37
643.609	9.25
644.022	9.13
644.436	9.02
644.849	8.91
645.262	8.8
645.676	8.69
646.089	8.61
646.502	8.53
646.915	8.45
647.328	8.37
647.741	8.3
648.154	8.23
648.567	8.18
648.98	8.11
649.393	8.06
649.805	8.02
650.218	7.97
650.631	7.94
651.043	7.89
651.456	7.85
651.868	7.8
652.28	7.76
652.693	7.73
653.105	7.68
653.517	7.65
653.929	7.61
654.341	7.55
654.753	7.49
655.165	7.43
655.577	7.37
655.989	7.3
656.401	7.25
656.813	7.17
657.224	7.08
657.636	6.99
658.047	6.91
658.459	6.82
658.87	6.73
659.282	6.64
659.693	6.57
660.104	6.47
660.515	6.39
660.926	6.31
661.338	6.23
661.749	6.16
662.159	6.09
662.57	6.02
662.981	5.97
663.392	5.91
663.803	5.85
664.213	5.8
664.624	5.74
665.035	5.69
665.445	5.64
665.855	5.6
666.266	5.56
666.676	5.53
667.086	5.5
667.497	5.47
667.907	5.45
668.317	5.43
668.727	5.41
669.137	5.4
669.547	5.39
669.956	5.39
670.366	5.39
670.776	5.39
671.186	5.39
671.595	5.38
672.005	5.39
672.414	5.4
672.824	5.4
673.233	5.42
673.642	5.43
674.052	5.43
674.461	5.44
674.87	5.46
675.279	5.49
675.688	5.52
676.097	5.55
676.506	5.57
676.915	5.61
677.323	5.64
677.732	5.68
678.141	5.72
678.549	5.77
678.958	5.82
679.366	5.88
679.775	5.93
680.183	6
680.592	6.08
681	6.16
681.408	6.23
681.816	6.33
682.224	6.43
682.632	6.55
683.04	6.68
683.448	6.82
683.856	6.96
684.264	7.14
684.671	7.33
685.079	7.53
685.487	7.77
685.894	8.03
686.302	8.32
686.709	8.63
687.116	8.98
687.524	9.35
687.931	9.74
688.338	10.16
688.745	10.61
689.152	11.08
689.559	11.6
689.966	12.13
690.373	12.69
690.78	13.26
691.187	13.87
691.593	14.46
692	15.07
692.407	15.7
692.813	16.36
693.22	17
693.626	17.68
694.032	18.34
694.439	19.01
694.845	19.68
695.251	20.35
695.657	21.01
696.063	21.69
696.469	22.37
696.875	23.06
697.281	23.72
697.687	24.39
698.093	25.05
698.498	25.69
698.904	26.34
699.31	26.96
699.715	27.6
700.12	28.22
700.526	28.82
700.931	29.42
701.337	29.99
701.742	30.54
702.147	31.1
702.552	31.65
702.957	32.15
703.362	32.67
703.767	33.17
704.172	33.66
704.577	34.15
704.981	34.63
705.386	35.08
705.791	35.55
706.195	36
706.6	36.45
707.004	36.87
707.408	37.33
707.813	37.77
708.217	38.18
708.621	38.6
709.025	39
709.43	39.39
709.834	39.8
710.237	40.18
710.641	40.56
711.045	40.92
711.449	41.3
711.853	41.69
712.256	42.01
712.66	42.36
713.064	42.68
713.467	43.02
713.87	43.34
714.274	43.66
714.677	43.98
715.08	44.28
715.484	44.6
715.887	44.91
716.29	45.18
716.693	45.47
717.096	45.75
717.499	46.04
717.901	46.32
718.304	46.59
718.707	46.84
719.109	47.07
719.512	47.32
719.915	47.56
720.317	47.77
720.719	47.98
721.122	48.22
721.524	48.44
721.926	48.66
722.328	48.85
722.731	49.05
723.133	49.24
723.535	49.47
723.937	49.66
724.338	49.82
724.74	50
725.142	50.27
725.544	50.45
725.945	50.64
726.347	50.76
726.748	50.91
727.15	51.04
727.551	51.18
727.952	51.28
728.354	51.42
728.755	51.56
729.156	51.66
729.557	51.67
729.958	51.75
730.359	51.83
730.76	51.93
731.161	52.05
731.562	52.18
731.962	52.23
732.363	52.34
732.763	52.4
733.164	52.48
733.564	52.57
733.965	52.63
734.365	52.71
734.766	52.78
735.166	52.86
735.566	52.92
735.966	52.98
736.366	53.06
736.766	53.11
737.166	53.18
737.566	53.23
737.966	53.29
738.365	53.35
738.765	53.4
739.165	53.44
739.564	53.5
739.964	53.55
740.363	53.56
740.763	53.61
741.162	53.66
741.561	53.7
741.96	53.72
742.36	53.76
742.759	53.78
743.158	53.8
743.557	53.82
743.955	53.82
744.354	53.84
744.753	53.88
745.152	53.92
745.55	53.94
745.949	53.97
746.348	54
746.746	54.02
747.144	54.07
747.543	54.09
747.941	54.13
748.339	54.14
748.737	54.17
749.136	54.16
749.534	54.13
749.932	54.14
750.33	54.15
750.727	54.17
751.125	54.16
751.523	54.15
751.921	54.15
752.318	54.16
752.716	54.18
753.113	54.15
753.511	54.16
753.908	54.19
754.305	54.2
754.703	54.18
755.1	54.16
755.497	54.16
755.894	54.14
756.291	54.13
756.688	54.09
757.085	54.06
757.482	54.09
757.878	54.1
758.275	54.08
758.672	54.06
759.068	54.09
759.465	54.1
759.861	54.11
760.258	54.14
760.654	54.16
761.05	54.2
761.447	54.22
761.843	54.22
762.239	54.21
762.635	54.22
763.031	54.22
763.427	54.21
763.822	54.2
764.218	54.19
764.614	54.2
765.01	54.16
765.405	54.17
765.801	54.15
766.196	54.16
766.592	54.16
766.987	54.16
767.382	54.15
767.778	54.15
768.173	54.16
768.568	54.13
768.963	54.11
769.358	54.15
769.753	54.11
770.148	54.11
770.542	54.11
770.937	54.11
771.332	54.11
771.726	54.12
772.121	54.12
772.515	54.11
772.91	54.15
773.304	54.17
773.699	54.15
774.093	54.14
774.487	54.15
774.881	54.15
775.275	54.11
775.669	54.12
776.063	54.1
776.457	54.12
776.851	54.08
777.245	54.02
777.638	54.01
778.032	54.03
778.425	54.07
778.819	54.07
779.212	54.09
779.606	54.13
779.999	54.12
780.392	54.12
780.786	54.11
781.179	54.17
781.572	54.23
781.965	54.23
782.358	54.23
782.751	54.23
783.143	54.21
783.536	54.2
783.929	54.19
784.322	54.2
784.714	54.23
785.107	54.24
785.499	54.22
785.891	54.2
786.284	54.22
786.676	54.22
787.068	54.23
787.46	54.25
787.852	54.26
788.245	54.24
788.636	54.22
789.028	54.21
789.42	54.19
789.812	54.17
790.204	54.2
790.595	54.2
790.987	54.19
791.378	54.19
791.77	54.19
792.161	54.17
792.553	54.2
792.944	54.2
793.335	54.2
793.726	54.24
794.117	54.22
794.508	54.19
794.899	54.17
795.29	54.17
795.681	54.13
796.072	54.12
796.463	54.13
796.853	54.11
797.244	54.07
797.634	54.07
798.025	54.06
798.415	54.07
798.806	54.08
799.196	54.09
799.586	54.09
799.976	54.12
800.366	54.13
800.756	54.12
801.146	54.15
801.536	54.2
801.926	54.18
802.316	54.17
802.706	54.19
803.095	54.21
803.485	54.2
803.874	54.2
804.264	54.2
804.653	54.2
805.043	54.21
805.432	54.22
805.821	54.22
806.21	54.25
806.599	54.27
806.988	54.25
807.377	54.25
807.766	54.24
808.155	54.23
808.544	54.21
808.933	54.21
809.321	54.2
809.71	54.2
810.098	54.19
810.487	54.17
810.875	54.15
811.264	54.16
811.652	54.15
812.04	54.13
812.428	54.18
812.816	54.18
813.204	54.16
813.592	54.14
813.98	54.12
814.368	54.13
814.756	54.13
815.144	54.14
815.531	54.15
815.919	54.12
816.306	54.15
816.694	54.13
817.081	54.14
817.469	54.17
817.856	54.18
818.243	54.17
818.63	54.17
819.017	54.16
819.404	54.15
819.791	54.16
820.178	54.17
820.565	54.16
820.952	54.18
821.339	54.17
821.725	54.18
822.112	54.2
822.498	54.23
822.885	54.25
823.271	54.24
823.657	54.22
824.044	54.22
824.43	54.24
824.816	54.25
825.202	54.23
825.588	54.25
825.974	54.23
826.36	54.21
826.746	54.19
827.132	54.17
827.517	54.21
827.903	54.26
828.289	54.29
828.674	54.28
829.06	54.28
829.445	54.29
829.83	54.28
830.216	54.26
830.601	54.26
830.986	54.3
831.371	54.28
831.756	54.27
832.141	54.25
832.526	54.24
832.911	54.23
833.295	54.23
833.68	54.23
834.065	54.24
834.449	54.25
834.834	54.26
835.218	54.23
835.603	54.23
835.987	54.23
836.371	54.21
836.755	54.17
837.139	54.16
837.524	54.17
837.908	54.18
838.291	54.18
838.675	54.18
839.059	54.16
839.443	54.15
839.827	54.15
840.21	54.14
840.594	54.17
840.977	54.18
841.361	54.19
841.744	54.18
842.127	54.17
842.511	54.14
842.894	54.14
843.277	54.14
843.66	54.16
844.043	54.17
844.426	54.17
844.809	54.16
845.191	54.19
845.574	54.2
845.957	54.21
846.339	54.21
846.722	54.22
847.104	54.24
847.487	54.22
847.869	54.21
848.252	54.2
848.634	54.2
849.016	54.21
849.398	54.2
849.78	54.2
850.162	54.18
850.544	54.19
850.926	54.19
851.307	54.17
851.689	54.18
852.071	54.2
852.452	54.2
852.834	54.21
853.215	54.18
853.597	54.19
853.978	54.17
854.359	54.17
854.741	54.18
855.122	54.18
855.503	54.17
855.884	54.15
856.265	54.13
856.646	54.14
857.026	54.15
857.407	54.17
857.788	54.15
858.169	54.18
858.549	54.17
858.93	54.16
859.31	54.16
859.69	54.2
860.071	54.24
860.451	54.24
860.831	54.24
861.211	54.22
861.591	54.2
861.971	54.21
862.351	54.2
862.731	54.2
863.111	54.17
863.491	54.16
863.87	54.14
864.25	54.11
864.629	54.13
865.009	54.11
865.388	54.13
865.768	54.14
866.147	54.14
866.526	54.13
866.905	54.14
867.284	54.17
867.663	54.17
868.042	54.19
868.421	54.2
868.8	54.21
869.179	54.23
869.558	54.22
869.936	54.21
870.315	54.2
870.693	54.21
871.072	54.22
871.45	54.23
871.828	54.26
872.207	54.27
872.585	54.28
872.963	54.26
873.341	54.25
873.719	54.27
874.097	54.27
874.475	54.29
874.853	54.3
875.23	54.3
875.608	54.3
875.986	54.3
876.363	54.3
876.741	54.3
877.118	54.31
877.495	54.33
877.873	54.33
878.25	54.37
878.627	54.37
879.004	54.38
879.381	54.39
879.758	54.36
880.135	54.35
880.512	54.33
880.889	54.31
881.265	54.29
881.642	54.28
882.019	54.26
882.395	54.23
882.772	54.22
883.148	54.2
883.524	54.21
883.901	54.22
884.277	54.17
884.653	54.16
885.029	54.15
885.405	54.15
885.781	54.12
886.157	54.11
886.532	54.11
886.908	54.1
887.284	54.11
887.659	54.06
888.035	54.03
888.411	54.04
888.786	54.05
889.161	54.07
889.537	54.08
889.912	54.11
890.287	54.12
890.662	54.11
891.037	54.11
891.412	54.09
891.787	54.1
892.162	54.11
892.536	54.12
892.911	54.12
893.286	54.11
893.66	54.11
894.035	54.09
894.409	54.09
894.784	54.11
895.158	54.11
895.532	54.12
895.906	54.16
896.281	54.17
896.655	54.17
897.029	54.17
897.402	54.17
897.776	54.2
898.15	54.22
898.524	54.24
898.898	54.24
899.271	54.24
899.645	54.25
900.018	54.24
900.392	54.28
900.765	54.3
901.138	54.3
901.511	54.3
901.884	54.31
902.258	54.31
902.631	54.27
903.003	54.3
903.376	54.32
903.749	54.32
904.122	54.31
904.495	54.31
904.867	54.29
905.24	54.3
905.612	54.32
905.985	54.29
906.357	54.27
906.729	54.27
907.102	54.24
907.474	54.25
907.846	54.25
908.218	54.24
908.59	54.23
908.962	54.22
909.334	54.2
909.705	54.19
910.077	54.18
910.449	54.2
910.82	54.21
911.192	54.22
911.563	54.19
911.935	54.16
912.306	54.18
912.677	54.19
913.048	54.2
913.419	54.21
913.79	54.2
914.161	54.22
914.532	54.22
914.903	54.24
915.274	54.22
915.645	54.22
916.015	54.22
916.386	54.22
916.756	54.2
917.127	54.23
917.497	54.25
917.868	54.25
918.238	54.22
918.608	54.24
918.978	54.23
919.348	54.26
919.718	54.27
920.088	54.31
920.458	54.34
920.828	54.31
921.198	54.27
921.567	54.26
921.937	54.27
922.306	54.29
922.676	54.26
923.045	54.24
923.415	54.19
923.784	54.18
924.153	54.17
924.522	54.17
924.891	54.21
925.26	54.22
925.629	54.24
925.998	54.22
926.367	54.2
926.736	54.22
927.104	54.21
927.473	54.22
927.842	54.16
928.21	54.17
928.578	54.09
928.947	54.09
929.315	54.03
929.683	53.97
930.051	53.91
930.42	53.91
930.788	53.84
931.156	53.86
931.523	53.89
931.891	53.98
932.259	53.99
932.627	54.01
932.994	54.01
933.362	54.02
933.729	54.04
934.097	54.1
934.464	54.13
934.831	54.17
935.199	54.17
935.566	54.13
935.933	53.99
936.3	53.94
936.667	53.97
937.034	54
937.401	54.07
937.767	54.07
938.134	54.1
938.501	54.12
938.867	54.17
939.234	54.16
939.6	54.23
939.967	54.34
940.333	54.38
940.699	54.37
941.065	54.33
941.431	54.3
941.798	54.32
942.163	54.3
942.529	54.21
942.895	54.15
943.261	54.11
943.627	54.06
943.992	54.05
944.358	54
944.723	53.98
945.089	53.93
945.454	53.93
945.82	53.88
946.185	53.91
946.55	53.89
946.915	53.88
947.28	53.88
947.645	53.85
948.01	53.85
948.375	53.89
948.74	53.84
949.104	53.86
949.469	53.79
949.834	53.79
950.198	53.73
950.562	53.72
950.927	53.71
951.291	53.62
951.655	53.55
952.02	53.52
952.384	53.45
952.748	53.43
953.112	53.4
953.476	53.36
953.839	53.33
954.203	53.32
954.567	53.27
954.931	53.21
955.294	53.23
955.658	53.32
956.021	53.27
956.385	53.25
956.748	53.2
957.111	53.17
957.474	53.16
957.837	53.1
958.2	53.04
958.563	53.03
958.926	53.04
959.289	53.06
959.652	52.97
960.015	52.96
960.377	52.97
960.74	53
961.102	53.01
961.465	53.08
961.827	53.15
962.189	53.22
962.552	53.24
962.914	53.26
963.276	53.26
963.638	53.32
964	53.33
964.362	53.39
964.724	53.38
965.085	53.35
965.447	53.32
965.809	53.29
966.17	53.2
966.532	53.23
966.893	53.25
967.255	53.28
967.616	53.2
967.977	53.2
968.338	53.1
968.699	53.09
969.061	53.07
969.421	53.07
969.782	53.14
970.143	53.21
970.504	53.2
970.865	53.22
971.225	53.15
971.586	53.17
971.946	53.17
972.307	53.2
972.667	53.16
973.027	53.2
973.388	53.17
973.748	53.1
974.108	53.14
974.468	53.1
974.828	53.1
975.188	53.14
975.548	53.14
975.907	53.17
976.267	53.16
976.627	53.22
976.986	53.17
977.346	53.15
977.705	53.16
978.064	53.07
978.424	53.08
978.783	53.02
979.142	52.95
979.501	52.91
979.86	52.88
980.219	52.89
980.578	52.87
980.937	52.95
981.296	52.88
981.654	52.84
982.013	52.88
982.371	52.86
982.73	52.85
983.088	52.88
983.447	52.93
983.805	52.9
984.163	52.86
984.521	52.76
984.879	52.66
985.237	52.71
985.595	52.79
985.953	52.77
986.311	52.74
986.669	52.82
987.026	52.81
987.384	52.82
987.741	52.78
988.099	52.82
988.456	52.92
988.814	53.01
989.171	53.07
989.528	53
989.885	53
990.242	53.01
990.599	53
990.956	53.04
991.313	53.02
991.67	53.1
992.027	53.27
992.383	53.3
992.74	53.36
993.096	53.26
993.453	53.3
993.809	53.28
994.165	53.3
994.522	53.29
994.878	53.31
995.234	53.29
995.59	53.22
995.946	53.09
996.302	53.03
996.658	52.97
997.013	53.05
997.369	53.03
997.725	53.05
998.08	53.15
998.436	53.27
998.791	53.28
999.147	53.29
999.502	53.34
999.857	53.33
1000.212	53.35
1000.567	53.29
1000.922	53.23
1001.277	53.21
1001.632	53.19
1001.987	53.12
1002.342	52.84
1002.696	52.73
1003.051	52.83
1003.406	52.89
1003.76	52.8
1004.114	52.75
1004.469	52.85
1004.823	53.07
1005.177	52.98
1005.531	52.94
1005.885	53.05
1006.239	53.18
1006.593	53.39
1006.947	53.32
1007.301	53.11
1007.655	53.06
1008.008	53.08
1008.362	53.07
1008.715	52.95
1009.069	53.2
1009.422	53.31
1009.776	53.07
1010.129	52.99
1010.482	52.74
1010.835	52.87
1011.188	53.03
1011.541	53.17
1011.894	53.24
1012.247	53.15
1012.6	53.06
1012.952	52.9
1013.305	52.78
1013.657	52.75
1014.01	52.86
1014.362	52.88
1014.715	52.78
1015.067	52.79
1015.419	52.77
1015.771	52.87
1016.123	52.79
1016.475	52.77
1016.827	52.71
1017.179	52.97
1017.531	53.13
1017.883	53.03
1018.234	53.12
1018.586	53.16
1018.938	53.53
1019.289	53.3
1019.64	53.15
1019.992	53.37
1020.343	53.5
1020.694	53.54
1021.045	53.36
1021.396	53.31
1021.747	53.69
1022.098	53.86
1022.449	53.78
1022.8	53.63
1023.151	53.76
1023.501	53.87
1023.852	54.01
1024.202	53.75
1024.553	53.7
1024.903	53.88
1025.253	53.99
1025.604	53.55
1025.954	52.99
1026.304	53.13
1026.654	52.86
1027.004	52.97
1027.354	53.02
1027.703	52.71
1028.053	52.83
1028.403	52.99
1028.753	52.63
1029.102	52.68
1029.452	52.84
1029.801	53.29
1030.15	53.13
1030.499	53.2
897.758	1259.65
901.051	1269.52
904.343	1263.67
907.636	1288.75
910.928	1252.83
914.22	1254.99
917.511	1240.46
920.803	1188.86
924.094	1180.19
927.384	1154.66
930.675	1113.08
933.965	1107.09
937.255	1041.35
940.544	1001.34
943.834	952.1
947.123	946.1
950.411	888.05
953.7	870.51
956.988	818.48
960.276	790
963.563	777.15
966.851	746.54
970.138	740.7
973.424	718.21
976.711	721.17
979.997	688.87
983.283	684.76
986.568	672.25
989.853	649.56
993.138	641.35
996.423	616.36
999.708	600.15
1002.992	594.66
1006.275	569.15
1009.559	563.7
1012.842	544.18
1016.125	528.07
1019.408	519.22
1022.69	512.1
1025.972	503.37
1029.254	491.1
1032.536	483.49
1035.817	471.6
1039.098	466.36
1042.379	456.49
1045.659	451.91
1048.939	440.85
1052.219	433.39
1055.498	425.81
1058.778	415.65
1062.057	407.35
1065.335	403.3
1068.614	398.47
1071.892	395.29
1075.17	382.2
1078.447	375.17
1081.724	372.26
1085.001	370.7
1088.278	361.63
1091.554	355.58
1094.83	356.47
1098.106	354.11
1101.382	350.85
1104.657	347.88
1107.932	342.5
1111.206	344.84
1114.481	337.67
1117.755	333.67
1121.029	330.64
1124.302	331.59
1127.575	324.64
1130.848	320.72
1134.121	316.79
1137.393	315.18
1140.665	309.02
1143.937	307.21
1147.208	305.66
1150.48	303.74
1153.75	301.02
1157.021	297.4
1160.291	297
1163.561	294.4
1166.831	294.34
1170.101	292.12
1173.37	291.36
1176.639	292.29
1179.907	289.62
1183.176	285.21
1186.444	285.63
1189.711	284.21
1192.979	283.21
1196.246	281.26
1199.513	282.52
1202.78	281.05
1206.046	281.03
1209.312	278.42
1212.578	278.6
1215.843	280.8
1219.108	279.73
1222.373	284.99
1225.638	287.51
1228.902	290.77
1232.166	291.81
1235.43	293.4
1238.693	296.6
1241.956	298.34
1245.219	303.11
1248.482	303.48
1251.744	303.31
1255.006	304.48
1258.268	296.87
1261.529	294.63
1264.79	292.56
1268.051	290.72
1271.312	287.64
1274.572	283.86
1277.832	281.7
1281.092	277.27
1284.351	274.49
1287.61	274.74
1290.869	270.09
1294.128	268.83
1297.386	268.67
1300.644	266.47
1303.902	266.54
1307.159	266.08
1310.416	266.26
1313.673	265.42
1316.93	267.91
1320.186	268.25
1323.442	269.14
1326.697	273.85
1329.953	274.33
1333.208	275.41
1336.463	278.49
1339.717	279.13
1342.972	281.74
1346.226	284.47
1349.479	284.94
1352.733	286.36
1355.986	287.97
1359.238	287.51
1362.491	289.47
1365.743	292.59
1368.995	292.23
1372.247	291.92
1375.498	292
1378.749	294.51
1382	290.97
1385.251	291.49
1388.501	290.06
1391.751	290.77
1395	288.94
1398.25	286.42
1401.499	284.07
1404.748	283.9
1407.996	280.98
1411.244	279.15
1414.492	277.02
1417.74	274.24
1420.987	270.78
1424.234	270
1427.481	265.98
1430.728	265.29
1433.974	263.44
1437.22	261.2
1440.465	260.13
1443.711	257.49
1446.956	256.1
1450.201	253.4
1453.445	251.47
1456.689	250.3
1459.933	246.06
1463.177	244.32
1466.42	241.37
1469.663	237.73
1472.906	236.49
1476.148	231.5
1479.391	228.65
1482.633	226.88
1485.874	223.11
1489.115	221.5
1492.356	219.37
1495.597	219.07
1498.838	216.04
1502.078	214.61
1505.318	214.21
1508.557	214.2
1511.797	213.18
1515.036	212.52
1518.274	212.01
1521.513	210.41
1524.751	210.54
1527.989	209.58
1531.227	208.63
1534.464	209.54
1537.701	207.64
1540.938	207.25
1544.174	204.69
1547.41	205.32
1550.646	203.62
1553.882	203.67
1557.117	201.53
1560.352	199.9
1563.587	199.97
1566.821	198.38
1570.055	196.47
1573.289	195.37
1576.523	194.92
1579.756	193.74
1582.989	192.84
1586.222	192.71
1589.454	191.02
1592.686	192.87
1595.918	192.14
1599.15	191.41
1602.381	192.13
1605.612	191.67
1608.843	192.65
1612.073	192.65
1615.303	193.97
1618.533	193.08
1621.762	193.49
1624.992	193.96
1628.221	193.12
1631.449	192.91
1634.678	192.46
1637.906	193.02
1641.134	193.36
1644.361	192.87
1647.588	193.54
1650.815	192.26
1654.042	192.2
1657.269	192.95
1660.495	193.28
1663.72	192.67
1666.946	193.55
1670.171	194.28
1673.396	193.58
1676.621	193.49
1679.845	194.5
1683.069	193.7
1686.293	195.04
1689.517	196.07
1692.74	195.98
1695.963	196.39
1699.185	198.33
1702.408	198.37
1705.63	198.92
1708.852	199.67
1712.073	200.19
1715.294	199.88
1718.515	201.23
1721.736	200.85
1724.956	201.25
1728.176	201.25
1731.396	203.17
1734.616	202.13
1737.835	202.98
1741.054	201.91
1744.272	202.32
1747.491	204.17
1750.709	204.01
1753.927	204.2
1757.144	203.83
1760.361	204.28
1763.578	204.82
1766.795	203.88
1770.011	206.2
1773.227	205.54
1776.443	207.89
1779.658	209.1
1782.874	208.41
1786.089	209.42
1789.303	209.99
1792.518	212.91
1795.732	212.79
1798.945	214.51
1802.159	214.74
1805.372	214.73
1808.585	219.36
1811.797	219.53
1815.01	219.32
1818.222	221.32
1821.434	223.09
1824.645	223.84
1827.856	226.85
1831.067	229.02
1834.278	227.62
1837.488	229.34
1840.698	231.34
1843.908	228.48
1847.117	230.02
1850.326	231.71
1853.535	230.68
1856.744	233.43
1859.952	233.1
1863.16	231.28
1866.368	230.07
1869.575	233.41
1872.782	228.99
1875.989	227.63
1879.196	226.49
1882.402	224.39
1885.608	224.73
1888.814	224.72
1892.019	224
1895.224	223
1898.429	221.18
1901.634	221.57
1904.838	221.27
1908.042	223.79
1911.246	224.22
1914.449	225.8
1917.652	225.47
1920.855	225.5
1924.058	224.95
1927.26	223.45
1930.462	224.16
1933.664	226.93
1936.865	225.38
1940.066	224.52
1943.267	223.01
1946.467	222.44
1949.668	223.82
1952.868	226.5
1956.067	226.03
1959.267	226.7
1962.466	227.54
1965.665	227
1968.863	227.13
1972.061	230.58
1975.259	233.11
1978.457	235.91
1981.654	237.84
1984.852	238.01
1988.048	237.48
1991.245	240.21
1994.441	243.26
1997.637	245.26
2000.833	249.52
2004.028	253.54
2007.223	254.75
2010.418	257.53
2013.613	261.09
2016.807	264
2020.001	266.45
2023.194	271.27
2026.388	277.03
2029.581	282.97
2032.774	285.53
2035.966	291.68
2039.158	292.21
2042.35	298.2
2045.542	298.96
2048.733	304.74
2051.924	308.49
2055.115	314.16
2058.306	314.39
2061.496	316.65
2064.686	317.22
2067.875	322.46
2071.065	323.87
2074.254	321.62
2077.442	325.09
2080.631	327.43
2083.819	329.93
2087.007	330.51
2090.195	333.36
2093.382	336.13
2096.569	334.43
2099.756	339.13
2102.942	339.96
2106.128	342.35
2109.314	350.99
2112.5	349.19
2115.685	356.29
2118.87	356.82
2122.055	363.6
2125.239	366.66
2128.424	371.23
2131.608	374.39
2134.791	378.86
2137.974	380.78
2141.157	382.71
2144.34	383.53
2147.523	388.5
2150.705	386.48
2153.887	390.81
2157.068	391.82
2160.25	388.26
2163.431	390.91
2166.611	395.33
2169.792	402.77
2172.972	407.64
2176.152	408.98
2179.331	413.45
2182.511	421.42
2185.69	425.72
2188.868	433.41
2192.047	434.44
2195.225	448.09
2198.403	457.64
2201.58	466.51
2204.758	474.7
2207.935	483.26
2211.111	492.75
2214.288	498.94
2217.464	498.98
2220.64	507.86
2223.815	515.49
2226.991	535.73
2230.166	535.5
2233.34	544.85
2236.515	554.14
2239.689	553.84
2242.863	556.02
2246.036	572.65
2249.209	569.65
2252.382	579.78
2255.555	594.84
2258.727	595.75
2261.9	600.15
2265.071	606.45
2268.243	615.39
2271.414	621.89
2274.585	637.39
2277.756	645.69
2280.926	647.82
2284.096	661.82
2287.266	678.02
2290.436	683.32
2293.605	699.25
2296.774	718.91
2299.942	741.65
2303.111	745.68
2306.279	760.03
2309.447	770.28
2312.614	788.62
2315.781	812.05
2318.948	848.25
2322.115	833.11
2325.281	881.4
2328.447	861.82
2331.613	896.34
2334.779	885.46
2337.944	924.17
2341.109	933.88
2344.274	959.19
2347.438	992.36
2350.602	988.89
2353.766	1024.09
2356.929	1039.91
2360.092	1029.51
2363.255	1104.82
2366.418	1103.49
2369.58	1125.07
2372.742	1193.12
2375.904	1224.57
2379.066	1216.3
2382.227	1192.95
2385.388	1299.38
2388.548	1293.47
2391.709	1311.73
2394.869	1463.25
2398.029	1399.59
2401.188	1437.36
2404.347	1427.24
2407.506	1404.62
2410.665	1440.73
2413.823	1527.11
2416.981	1619.24
2420.139	1562.05
2423.296	1548.6
2426.453	1613.65
2429.61	1555.93
2432.767	1624.57
2435.923	1607.71
2439.079	1764.38
2442.235	1784.38
2445.391	1767.87
2448.546	1757.61
2451.701	1707.07
2454.855	1705.22
2458.009	1808.25
2461.163	1881.94
2464.317	1939.5
2467.471	1993.03
2470.624	1997.96
2473.777	1943.44
2476.929	1896.94
2480.082	1845.31
2483.234	1822.52
2486.385	1909.58
2489.537	1920.71
2492.688	1989.27
2495.839	1932.35
2498.989	1894.88
2502.14	1905.22
2505.29	1919.67
2508.439	1948.88
2511.589	1944.17
2514.738	2123.33
2517.887	2077.12
2521.035	2199.99
2524.183	2221.69
2527.331	2235.45
2530.479	2229.29
2533.627	2243.24
