Data from N_2_HIR_WI_4N_Splice17_13-33-28-590.txt Node
Date: Sat Mar 07 13:33:28 EST 2020
User: sa697716
Spectrometer: NQ5500242
Trigger mode: 0
Integration Time (sec): 1.450000E-1
Scans to average: 20
Nonlinearity correction enabled: false
Boxcar width: 5
Storing dark spectrum: false
XAxis mode: Wavelengths
Number of Pixels in Spectrum: 512
>>>>>Begin Spectral Data<<<<<
187.83	230.99
188.298	239.09
188.766	227.06
189.233	186.61
189.701	181.59
190.169	209.69
190.636	265.04
191.104	352.79
191.571	268.71
192.039	82
192.506	-50.92
192.974	93.06
193.441	100.73
193.908	97.88
194.375	79.25
194.842	-1.61
195.31	54.12
195.777	330.89
196.244	97.42
196.711	88.82
197.177	87.91
197.644	88.72
198.111	88.3
198.578	88.38
199.045	88.52
199.511	87.86
199.978	88.07
200.445	88.36
200.911	88.12
201.378	88.09
201.844	87.89
202.31	87.76
202.777	87.46
203.243	87.63
203.709	87.04
204.176	86.16
204.642	85.9
205.108	85.38
205.574	84.2
206.04	83.47
206.506	82.72
206.972	82.36
207.438	81.35
207.903	80.09
208.369	78.22
208.835	76.47
209.301	74.89
209.766	72.75
210.232	70.5
210.697	68.51
211.163	66.48
211.628	64.8
212.094	62.92
212.559	61.47
213.024	59.94
213.49	58.44
213.955	57.1
214.42	55.49
214.885	53.69
215.35	51.62
215.815	48.96
216.28	45.58
216.745	41.57
217.21	37.61
217.675	33.94
218.14	30.79
218.604	28.08
219.069	25.74
219.534	23.81
219.998	22.13
220.463	20.78
220.927	19.57
221.392	18.63
221.856	17.89
222.32	17.26
222.785	16.72
223.249	16.17
223.713	15.69
224.177	15.3
224.642	14.92
225.106	14.58
225.57	14.25
226.034	13.97
226.497	13.69
226.961	13.38
227.425	13.12
227.889	12.86
228.353	12.62
228.816	12.37
229.28	12.14
229.744	11.92
230.207	11.7
230.671	11.5
231.134	11.3
231.597	11.13
232.061	10.96
232.524	10.78
232.987	10.61
233.45	10.48
233.914	10.34
234.377	10.2
234.84	10.07
235.303	9.97
235.766	9.86
236.229	9.75
236.691	9.63
237.154	9.53
237.617	9.45
238.08	9.34
238.542	9.24
239.005	9.15
239.468	9.06
239.93	8.97
240.393	8.88
240.855	8.77
241.317	8.69
241.78	8.59
242.242	8.49
242.704	8.41
243.166	8.33
243.629	8.26
244.091	8.17
244.553	8.09
245.015	8.01
245.477	7.93
245.939	7.87
246.4	7.79
246.862	7.72
247.324	7.65
247.786	7.57
248.247	7.49
248.709	7.41
249.17	7.34
249.632	7.28
250.093	7.22
250.555	7.16
251.016	7.1
251.477	7.04
251.939	6.99
252.4	6.94
252.861	6.89
253.322	6.86
253.783	6.81
254.244	6.78
254.705	6.72
255.166	6.67
255.627	6.62
256.088	6.58
256.549	6.54
257.009	6.48
257.47	6.41
257.931	6.36
258.391	6.29
258.852	6.23
259.312	6.18
259.773	6.13
260.233	6.09
260.694	6.04
261.154	5.98
261.614	5.93
262.074	5.89
262.534	5.85
262.994	5.81
263.455	5.78
263.915	5.74
264.374	5.7
264.834	5.66
265.294	5.63
265.754	5.61
266.214	5.59
266.673	5.56
267.133	5.54
267.593	5.51
268.052	5.49
268.512	5.47
268.971	5.46
269.431	5.44
269.89	5.43
270.349	5.41
270.809	5.39
271.268	5.37
271.727	5.36
272.186	5.34
272.645	5.33
273.104	5.32
273.563	5.3
274.022	5.28
274.481	5.27
274.94	5.25
275.399	5.23
275.857	5.21
276.316	5.2
276.775	5.19
277.233	5.17
277.692	5.16
278.15	5.15
278.609	5.14
279.067	5.12
279.525	5.11
279.984	5.1
280.442	5.1
280.9	5.09
281.358	5.08
281.816	5.07
282.274	5.05
282.732	5.04
283.19	5.04
283.648	5.02
284.106	5.01
284.564	5
285.021	4.99
285.479	4.98
285.937	4.97
286.394	4.96
286.852	4.95
287.309	4.93
287.767	4.91
288.224	4.89
288.682	4.87
289.139	4.84
289.596	4.81
290.053	4.79
290.511	4.76
290.968	4.74
291.425	4.71
291.882	4.69
292.339	4.68
292.796	4.65
293.252	4.63
293.709	4.62
294.166	4.61
294.623	4.59
295.079	4.57
295.536	4.56
295.992	4.55
296.449	4.54
296.905	4.53
297.362	4.51
297.818	4.5
298.274	4.49
298.731	4.47
299.187	4.45
299.643	4.44
300.099	4.44
300.555	4.43
301.011	4.41
301.467	4.41
301.923	4.39
302.379	4.39
302.835	4.39
303.291	4.37
303.746	4.37
304.202	4.37
304.658	4.37
305.113	4.36
305.569	4.36
306.024	4.36
306.479	4.35
306.935	4.35
307.39	4.34
307.845	4.34
308.301	4.34
308.756	4.34
309.211	4.34
309.666	4.35
310.121	4.35
310.576	4.35
311.031	4.34
311.486	4.34
311.94	4.33
312.395	4.33
312.85	4.33
313.305	4.32
313.759	4.32
314.214	4.32
314.668	4.3
315.123	4.3
315.577	4.29
316.032	4.29
316.486	4.28
316.94	4.27
317.394	4.26
317.849	4.25
318.303	4.24
318.757	4.22
319.211	4.2
319.665	4.19
320.119	4.17
320.572	4.15
321.026	4.13
321.48	4.12
321.934	4.1
322.387	4.09
322.841	4.08
323.295	4.07
323.748	4.06
324.202	4.05
324.655	4.05
325.108	4.05
325.562	4.05
326.015	4.05
326.468	4.05
326.921	4.04
327.374	4.04
327.827	4.04
328.28	4.04
328.733	4.04
329.186	4.04
329.639	4.04
330.092	4.04
330.545	4.03
330.997	4.03
331.45	4.03
331.903	4.03
332.355	4.04
332.808	4.04
333.26	4.04
333.713	4.03
334.165	4.04
334.617	4.04
335.069	4.04
335.522	4.05
335.974	4.05
336.426	4.06
336.878	4.04
337.33	4.04
337.782	4.04
338.234	4.04
338.686	4.03
339.137	4.03
339.589	4.02
340.041	4
340.493	3.98
340.944	3.97
341.396	3.95
341.847	3.94
342.299	3.92
342.75	3.9
343.201	3.87
343.653	3.86
344.104	3.83
344.555	3.82
345.006	3.81
345.457	3.8
345.908	3.79
346.359	3.79
346.81	3.78
347.261	3.77
347.712	3.77
348.163	3.76
348.613	3.76
349.064	3.76
349.515	3.76
349.965	3.76
350.416	3.75
350.866	3.75
351.317	3.73
351.767	3.74
352.217	3.73
352.668	3.73
353.118	3.74
353.568	3.73
354.018	3.74
354.468	3.73
354.918	3.73
355.368	3.73
355.818	3.74
356.268	3.74
356.718	3.74
357.168	3.73
357.617	3.73
358.067	3.72
358.517	3.73
358.966	3.72
359.416	3.73
359.865	3.73
360.315	3.74
360.764	3.73
361.213	3.73
361.663	3.73
362.112	3.74
362.561	3.74
363.01	3.74
363.459	3.72
363.908	3.71
364.357	3.7
364.806	3.69
365.255	3.68
365.703	3.68
366.152	3.68
366.601	3.68
367.05	3.68
367.498	3.67
367.947	3.68
368.395	3.69
368.844	3.69
369.292	3.68
369.74	3.68
370.189	3.67
370.637	3.66
371.085	3.65
371.533	3.63
371.981	3.62
372.429	3.62
372.877	3.61
373.325	3.59
373.773	3.58
374.221	3.58
374.669	3.57
375.116	3.56
375.564	3.56
376.012	3.56
376.459	3.55
376.907	3.56
377.354	3.55
377.801	3.55
378.249	3.55
378.696	3.55
379.143	3.54
379.591	3.54
380.038	3.54
380.485	3.53
380.932	3.53
381.379	3.53
381.826	3.53
382.273	3.53
382.72	3.51
383.166	3.49
383.613	3.48
384.06	3.48
384.506	3.47
384.953	3.46
385.4	3.45
385.846	3.45
386.292	3.44
386.739	3.43
387.185	3.42
387.631	3.43
388.078	3.42
388.524	3.42
388.97	3.42
389.416	3.41
389.862	3.42
390.308	3.43
390.754	3.43
391.2	3.44
391.645	3.45
392.091	3.47
392.537	3.48
392.983	3.49
393.428	3.51
393.874	3.51
394.319	3.53
394.765	3.53
395.21	3.54
395.655	3.54
396.101	3.56
396.546	3.57
396.991	3.58
397.436	3.59
397.881	3.62
398.326	3.64
398.771	3.66
399.216	3.68
399.661	3.69
400.106	3.71
400.551	3.73
400.995	3.73
401.44	3.73
401.885	3.74
402.329	3.75
402.774	3.75
403.218	3.77
403.663	3.78
404.107	3.79
404.551	3.81
404.995	3.83
405.44	3.83
405.884	3.86
406.328	3.88
406.772	3.9
407.216	3.92
407.66	3.94
408.104	3.94
408.547	3.96
408.991	3.98
409.435	4
409.879	4.02
410.322	4.05
410.766	4.07
411.209	4.1
411.653	4.14
412.096	4.16
412.54	4.18
412.983	4.21
413.426	4.25
413.869	4.27
414.312	4.3
414.756	4.33
415.199	4.34
415.642	4.36
416.085	4.38
416.527	4.38
416.97	4.38
417.413	4.4
417.856	4.4
418.298	4.38
418.741	4.38
419.184	4.38
419.626	4.39
420.069	4.4
420.511	4.41
420.953	4.42
421.396	4.45
421.838	4.47
422.28	4.48
422.722	4.51
423.164	4.54
423.606	4.55
424.048	4.58
424.49	4.59
424.932	4.59
425.374	4.58
425.816	4.56
426.258	4.55
426.699	4.54
427.141	4.54
427.582	4.54
428.024	4.56
428.465	4.57
428.907	4.56
429.348	4.56
429.789	4.56
430.231	4.59
430.672	4.63
431.113	4.67
431.554	4.69
431.995	4.71
432.436	4.72
432.877	4.73
433.318	4.75
433.759	4.78
434.2	4.81
434.64	4.85
435.081	4.87
435.522	4.89
435.962	4.9
436.403	4.94
436.843	4.96
437.284	4.96
437.724	4.97
438.164	4.97
438.604	5
439.045	5
439.485	5
439.925	5
440.365	5
440.805	5
441.245	5.01
441.685	5.03
442.125	5.04
442.564	5.07
443.004	5.07
443.444	5.08
443.883	5.1
444.323	5.11
444.762	5.12
445.202	5.15
445.641	5.17
446.081	5.18
446.52	5.19
446.959	5.22
447.398	5.25
447.837	5.29
448.276	5.29
448.716	5.31
449.154	5.34
449.593	5.36
450.032	5.37
450.471	5.35
450.91	5.36
451.349	5.37
451.787	5.35
452.226	5.33
452.664	5.31
453.103	5.3
453.541	5.29
453.98	5.28
454.418	5.25
454.856	5.24
455.295	5.23
455.733	5.2
456.171	5.18
456.609	5.18
457.047	5.17
457.485	5.16
457.923	5.14
458.361	5.12
458.798	5.12
459.236	5.12
459.674	5.11
460.111	5.11
460.549	5.13
460.987	5.13
461.424	5.14
461.862	5.15
462.299	5.16
462.736	5.16
463.173	5.18
463.611	5.19
464.048	5.19
464.485	5.2
464.922	5.2
465.359	5.2
465.796	5.22
466.233	5.23
466.67	5.24
467.106	5.25
467.543	5.26
467.98	5.24
468.416	5.23
468.853	5.23
469.29	5.23
469.726	5.23
470.162	5.22
470.599	5.21
471.035	5.2
471.471	5.18
471.907	5.17
472.344	5.17
472.78	5.18
473.216	5.18
473.652	5.17
474.088	5.15
474.523	5.15
474.959	5.15
475.395	5.13
475.831	5.11
476.266	5.11
476.702	5.1
477.138	5.08
477.573	5.05
478.008	5.05
478.444	5.03
478.879	5.04
479.314	5.02
479.75	5.01
480.185	4.99
480.62	4.98
481.055	4.96
481.49	4.95
481.925	4.95
482.36	4.94
482.795	4.94
483.229	4.93
483.664	4.92
484.099	4.92
484.534	4.91
484.968	4.92
485.403	4.92
485.837	4.93
486.271	4.94
486.706	4.95
487.14	4.96
487.574	4.97
488.009	4.99
488.443	5
488.877	5.03
489.311	5.05
489.745	5.08
490.179	5.12
490.613	5.16
491.046	5.19
491.48	5.22
491.914	5.26
492.348	5.3
492.781	5.35
493.215	5.4
493.648	5.45
494.082	5.5
494.515	5.55
494.948	5.6
495.382	5.65
495.815	5.73
496.248	5.8
496.681	5.88
497.114	5.95
497.547	6.03
497.98	6.12
498.413	6.2
498.846	6.31
499.279	6.41
499.711	6.49
500.144	6.6
500.577	6.71
501.009	6.82
501.442	6.93
501.874	7.06
502.306	7.19
502.739	7.33
503.171	7.47
503.603	7.6
504.036	7.76
504.468	7.92
504.9	8.08
505.332	8.25
505.764	8.43
506.196	8.6
506.627	8.79
507.059	8.98
507.491	9.17
507.923	9.38
508.354	9.6
508.786	9.82
509.217	10.04
509.649	10.26
510.08	10.49
510.512	10.72
510.943	10.96
511.374	11.2
511.805	11.44
512.237	11.68
512.668	11.93
513.099	12.18
513.53	12.43
513.961	12.7
514.391	12.97
514.822	13.24
515.253	13.51
515.684	13.78
516.114	14.06
516.545	14.33
516.975	14.62
517.406	14.89
517.836	15.15
518.267	15.43
518.697	15.7
519.127	15.97
519.558	16.23
519.988	16.5
520.418	16.76
520.848	17.01
521.278	17.25
521.708	17.64
522.138	17.89
522.567	18.13
522.997	18.34
523.427	18.56
523.857	18.76
524.286	18.96
524.716	19.16
525.145	19.35
525.575	19.55
526.004	19.75
526.433	19.77
526.863	19.94
527.292	20.11
527.721	20.26
528.15	20.43
528.579	20.58
529.008	20.74
529.437	20.87
529.866	21.01
530.295	21.13
530.724	21.26
531.152	21.38
531.581	21.51
532.01	21.61
532.438	21.72
532.867	21.81
533.295	21.89
533.723	21.97
534.152	22.06
534.58	22.13
535.008	22.2
535.436	22.26
535.865	22.32
536.293	22.36
536.721	22.42
537.149	22.49
537.576	22.53
538.004	22.6
538.432	22.65
538.86	22.69
539.287	22.71
539.715	22.75
540.143	22.79
540.57	22.81
540.998	22.84
541.425	22.87
541.852	22.89
542.28	22.92
542.707	22.94
543.134	22.96
543.561	22.98
543.988	23.01
544.415	23.02
544.842	23.04
545.269	23.06
545.696	23.11
546.123	23.12
546.549	23.15
546.976	23.17
547.403	23.2
547.829	23.21
548.256	23.23
548.682	23.26
549.108	23.28
549.535	23.31
549.961	23.31
550.387	23.31
550.813	23.31
551.24	23.32
551.666	23.31
552.092	23.31
552.518	23.32
552.943	23.29
553.369	23.27
553.795	23.26
554.221	23.25
554.646	23.23
555.072	23.2
555.498	23.15
555.923	23.11
556.349	23.06
556.774	23.01
557.199	22.95
557.625	22.9
558.05	22.84
558.475	22.78
558.9	22.7
559.325	22.63
559.75	22.56
560.175	22.5
560.6	22.4
561.025	22.32
561.449	22.22
561.874	22.13
562.299	22.04
562.723	21.94
563.148	21.82
563.572	21.7
563.997	21.59
564.421	21.46
564.846	21.34
565.27	21.23
565.694	21.11
566.118	20.98
566.542	20.84
566.966	20.71
567.39	20.58
567.814	20.46
568.238	20.33
568.662	20.19
569.086	20.07
569.509	19.94
569.933	19.81
570.357	19.68
570.78	19.55
571.204	19.42
571.627	19.31
572.05	19.17
572.474	19.06
572.897	18.96
573.32	18.85
573.743	18.74
574.166	18.63
574.589	18.53
575.012	18.41
575.435	18.31
575.858	18.23
576.281	18.13
576.704	18.04
577.126	17.95
577.549	17.85
577.972	17.75
578.394	17.67
578.817	17.59
579.239	17.51
579.661	17.44
580.084	17.38
580.506	17.3
580.928	17.22
581.35	17.14
581.772	17.06
582.194	16.99
582.616	16.93
583.038	16.86
583.46	16.78
583.882	16.71
584.303	16.65
584.725	16.57
585.147	16.51
585.568	16.45
585.99	16.41
586.411	16.35
586.833	16.28
587.254	16.22
587.675	16.17
588.096	16.13
588.518	16.08
588.939	16.04
589.36	15.99
589.781	15.95
590.202	15.92
590.623	15.88
591.043	15.83
591.464	15.8
591.885	15.76
592.305	15.73
592.726	15.69
593.147	15.66
593.567	15.62
593.987	15.59
594.408	15.56
594.828	15.51
595.248	15.48
595.669	15.46
596.089	15.43
596.509	15.4
596.929	15.36
597.349	15.32
597.769	15.28
598.189	15.25
598.608	15.21
599.028	15.17
599.448	15.12
599.867	15.08
600.287	15.04
600.706	15
601.126	14.95
601.545	14.92
601.965	14.88
602.384	14.83
602.803	14.79
603.222	14.73
603.641	14.68
604.061	14.65
604.48	14.58
604.898	14.52
605.317	14.46
605.736	14.4
606.155	14.34
606.574	14.27
606.992	14.2
607.411	14.13
607.829	14.03
608.248	13.95
608.666	13.87
609.085	13.81
609.503	13.74
609.921	13.66
610.339	13.6
610.758	13.53
611.176	13.44
611.594	13.37
612.012	13.3
612.43	13.24
612.847	13.17
613.265	13.11
613.683	13.04
614.101	12.97
614.518	12.89
614.936	12.81
615.353	12.74
615.771	12.68
616.188	12.62
616.606	12.56
617.023	12.51
617.44	12.47
617.857	12.41
618.274	12.35
618.691	12.3
619.108	12.25
619.525	12.21
619.942	12.18
620.359	12.13
620.776	12.1
621.192	12.07
621.609	12.04
622.026	12
622.442	11.98
622.859	11.96
623.275	11.94
623.691	11.92
624.108	11.9
624.524	11.88
624.94	11.88
625.356	11.86
625.772	11.86
626.188	11.86
626.604	11.84
627.02	11.83
627.436	11.81
627.852	11.81
628.268	11.81
628.683	11.8
629.099	11.78
629.514	11.76
629.93	11.75
630.345	11.73
630.761	11.68
631.176	11.67
631.591	11.64
632.007	11.61
632.422	11.56
632.837	11.52
633.252	11.48
633.667	11.42
634.082	11.36
634.497	11.3
634.911	11.24
635.326	11.17
635.741	11.09
636.155	11.01
636.57	10.94
636.984	10.85
637.399	10.76
637.813	10.67
638.228	10.57
638.642	10.46
639.056	10.35
639.47	10.25
639.884	10.14
640.298	10.03
640.712	9.92
641.126	9.81
641.54	9.69
641.954	9.57
642.368	9.46
642.781	9.35
643.195	9.24
643.609	9.15
644.022	9.03
644.436	8.93
644.849	8.83
645.262	8.73
645.676	8.64
646.089	8.56
646.502	8.48
646.915	8.41
647.328	8.34
647.741	8.27
648.154	8.2
648.567	8.15
648.98	8.1
649.393	8.05
649.805	8.01
650.218	7.97
650.631	7.92
651.043	7.87
651.456	7.82
651.868	7.79
652.28	7.74
652.693	7.71
653.105	7.66
653.517	7.6
653.929	7.55
654.341	7.48
654.753	7.42
655.165	7.35
655.577	7.3
655.989	7.23
656.401	7.15
656.813	7.09
657.224	7
657.636	6.9
658.047	6.82
658.459	6.73
658.87	6.65
659.282	6.56
659.693	6.48
660.104	6.39
660.515	6.29
660.926	6.2
661.338	6.11
661.749	6.03
662.159	5.96
662.57	5.88
662.981	5.81
663.392	5.74
663.803	5.67
664.213	5.6
664.624	5.53
665.035	5.48
665.445	5.43
665.855	5.38
666.266	5.34
666.676	5.3
667.086	5.26
667.497	5.22
667.907	5.2
668.317	5.18
668.727	5.15
669.137	5.13
669.547	5.12
669.956	5.1
670.366	5.09
670.776	5.06
671.186	5.05
671.595	5.04
672.005	5.04
672.414	5.03
672.824	5.03
673.233	5.03
673.642	5.04
674.052	5.04
674.461	5.05
674.87	5.06
675.279	5.08
675.688	5.1
676.097	5.12
676.506	5.15
676.915	5.17
677.323	5.21
677.732	5.23
678.141	5.26
678.549	5.3
678.958	5.34
679.366	5.41
679.775	5.45
680.183	5.52
680.592	5.6
681	5.68
681.408	5.76
681.816	5.87
682.224	5.99
682.632	6.12
683.04	6.26
683.448	6.42
683.856	6.57
684.264	6.76
684.671	6.96
685.079	7.18
685.487	7.42
685.894	7.69
686.302	7.98
686.709	8.28
687.116	8.6
687.524	8.95
687.931	9.33
688.338	9.74
688.745	10.14
689.152	10.57
689.559	11.02
689.966	11.48
690.373	11.96
690.78	12.45
691.187	12.95
691.593	13.45
692	13.97
692.407	14.47
692.813	14.99
693.22	15.51
693.626	16.04
694.032	16.56
694.439	17.07
694.845	17.59
695.251	18.1
695.657	18.6
696.063	19.11
696.469	19.62
696.875	20.12
697.281	20.61
697.687	21.1
698.093	21.58
698.498	22.04
698.904	22.51
699.31	22.96
699.715	23.4
700.12	23.85
700.526	24.27
700.931	24.67
701.337	25.09
701.742	25.49
702.147	25.87
702.552	26.25
702.957	26.62
703.362	26.99
703.767	27.35
704.172	27.7
704.577	28.04
704.981	28.39
705.386	28.73
705.791	29.04
706.195	29.36
706.6	29.68
707.004	29.98
707.408	30.3
707.813	30.6
708.217	30.9
708.621	31.2
709.025	31.47
709.43	31.73
709.834	32
710.237	32.27
710.641	32.52
711.045	32.76
711.449	33.03
711.853	33.27
712.256	33.49
712.66	33.72
713.064	33.93
713.467	34.16
713.87	34.39
714.274	34.61
714.677	34.82
715.08	35.04
715.484	35.26
715.887	35.48
716.29	35.66
716.693	35.86
717.096	36.05
717.499	36.24
717.901	36.44
718.304	36.61
718.707	36.79
719.109	36.98
719.512	37.14
719.915	37.3
720.317	37.42
720.719	37.56
721.122	37.7
721.524	37.83
721.926	37.97
722.328	38.08
722.731	38.22
723.133	38.35
723.535	38.46
723.937	38.57
724.338	38.67
724.74	38.78
725.142	38.99
725.544	39.09
725.945	39.23
726.347	39.31
726.748	39.41
727.15	39.48
727.551	39.57
727.952	39.65
728.354	39.74
728.755	39.82
729.156	39.91
729.557	39.89
729.958	39.98
730.359	40.03
730.76	40.12
731.161	40.2
731.562	40.3
731.962	40.33
732.363	40.4
732.763	40.46
733.164	40.52
733.564	40.58
733.965	40.63
734.365	40.69
734.766	40.71
735.166	40.75
735.566	40.76
735.966	40.78
736.366	40.82
736.766	40.83
737.166	40.88
737.566	40.91
737.966	40.92
738.365	40.96
738.765	41.01
739.165	41.05
739.564	41.09
739.964	41.14
740.363	41.15
740.763	41.19
741.162	41.22
741.561	41.23
741.96	41.26
742.36	41.28
742.759	41.31
743.158	41.3
743.557	41.3
743.955	41.32
744.354	41.32
744.753	41.36
745.152	41.39
745.55	41.4
745.949	41.42
746.348	41.44
746.746	41.45
747.144	41.45
747.543	41.46
747.941	41.48
748.339	41.46
748.737	41.47
749.136	41.47
749.534	41.44
749.932	41.44
750.33	41.44
750.727	41.44
751.125	41.46
751.523	41.45
751.921	41.46
752.318	41.45
752.716	41.47
753.113	41.47
753.511	41.49
753.908	41.53
754.305	41.54
754.703	41.53
755.1	41.51
755.497	41.5
755.894	41.49
756.291	41.49
756.688	41.48
757.085	41.48
757.482	41.49
757.878	41.47
758.275	41.44
758.672	41.43
759.068	41.46
759.465	41.48
759.861	41.5
760.258	41.51
760.654	41.53
761.05	41.56
761.447	41.56
761.843	41.57
762.239	41.58
762.635	41.59
763.031	41.58
763.427	41.57
763.822	41.58
764.218	41.59
764.614	41.6
765.01	41.57
765.405	41.57
765.801	41.56
766.196	41.58
766.592	41.55
766.987	41.56
767.382	41.57
767.778	41.58
768.173	41.58
768.568	41.55
768.963	41.54
769.358	41.57
769.753	41.57
770.148	41.55
770.542	41.53
770.937	41.55
771.332	41.55
771.726	41.55
772.121	41.55
772.515	41.56
772.91	41.55
773.304	41.57
773.699	41.58
774.093	41.55
774.487	41.58
774.881	41.61
775.275	41.6
775.669	41.57
776.063	41.58
776.457	41.57
776.851	41.58
777.245	41.57
777.638	41.58
778.032	41.56
778.425	41.61
778.819	41.6
779.212	41.59
779.606	41.61
779.999	41.64
780.392	41.64
780.786	41.66
781.179	41.68
781.572	41.72
781.965	41.7
782.358	41.75
782.751	41.73
783.143	41.74
783.536	41.73
783.929	41.73
784.322	41.74
784.714	41.76
785.107	41.78
785.499	41.75
785.891	41.76
786.284	41.79
786.676	41.76
787.068	41.77
787.46	41.79
787.852	41.81
788.245	41.82
788.636	41.81
789.028	41.79
789.42	41.76
789.812	41.76
790.204	41.75
790.595	41.74
790.987	41.76
791.378	41.79
791.77	41.77
792.161	41.75
792.553	41.74
792.944	41.73
793.335	41.76
793.726	41.78
794.117	41.76
794.508	41.75
794.899	41.75
795.29	41.72
795.681	41.67
796.072	41.68
796.463	41.72
796.853	41.72
797.244	41.74
797.634	41.74
798.025	41.73
798.415	41.75
798.806	41.76
799.196	41.74
799.586	41.76
799.976	41.79
800.366	41.79
800.756	41.76
801.146	41.79
801.536	41.79
801.926	41.78
802.316	41.77
802.706	41.78
803.095	41.78
803.485	41.79
803.874	41.8
804.264	41.81
804.653	41.8
805.043	41.79
805.432	41.77
805.821	41.77
806.21	41.79
806.599	41.84
806.988	41.85
807.377	41.85
807.766	41.85
808.155	41.82
808.544	41.8
808.933	41.8
809.321	41.78
809.71	41.79
810.098	41.76
810.487	41.73
810.875	41.71
811.264	41.69
811.652	41.69
812.04	41.7
812.428	41.74
812.816	41.73
813.204	41.72
813.592	41.72
813.98	41.73
814.368	41.74
814.756	41.77
815.144	41.74
815.531	41.75
815.919	41.74
816.306	41.72
816.694	41.67
817.081	41.67
817.469	41.68
817.856	41.68
818.243	41.67
818.63	41.64
819.017	41.62
819.404	41.62
819.791	41.6
820.178	41.6
820.565	41.58
820.952	41.57
821.339	41.54
821.725	41.54
822.112	41.57
822.498	41.55
822.885	41.58
823.271	41.56
823.657	41.53
824.044	41.54
824.43	41.57
824.816	41.58
825.202	41.59
825.588	41.58
825.974	41.58
826.36	41.55
826.746	41.53
827.132	41.5
827.517	41.51
827.903	41.54
828.289	41.53
828.674	41.5
829.06	41.47
829.445	41.48
829.83	41.49
830.216	41.46
830.601	41.46
830.986	41.49
831.371	41.49
831.756	41.48
832.141	41.45
832.526	41.43
832.911	41.43
833.295	41.45
833.68	41.45
834.065	41.44
834.449	41.44
834.834	41.43
835.218	41.41
835.603	41.42
835.987	41.39
836.371	41.39
836.755	41.39
837.139	41.37
837.524	41.36
837.908	41.35
838.291	41.37
838.675	41.39
839.059	41.39
839.443	41.38
839.827	41.38
840.21	41.42
840.594	41.41
840.977	41.39
841.361	41.39
841.744	41.37
842.127	41.33
842.511	41.3
842.894	41.28
843.277	41.25
843.66	41.24
844.043	41.24
844.426	41.22
844.809	41.24
845.191	41.26
845.574	41.26
845.957	41.29
846.339	41.3
846.722	41.33
847.104	41.34
847.487	41.35
847.869	41.37
848.252	41.36
848.634	41.36
849.016	41.35
849.398	41.35
849.78	41.35
850.162	41.32
850.544	41.3
850.926	41.28
851.307	41.28
851.689	41.29
852.071	41.29
852.452	41.27
852.834	41.26
853.215	41.25
853.597	41.25
853.978	41.24
854.359	41.26
854.741	41.26
855.122	41.25
855.503	41.26
855.884	41.24
856.265	41.24
856.646	41.23
857.026	41.27
857.407	41.27
857.788	41.24
858.169	41.25
858.549	41.25
858.93	41.26
859.31	41.26
859.69	41.27
860.071	41.3
860.451	41.31
860.831	41.33
861.211	41.29
861.591	41.3
861.971	41.32
862.351	41.35
862.731	41.35
863.111	41.35
863.491	41.35
863.87	41.32
864.25	41.29
864.629	41.28
865.009	41.28
865.388	41.27
865.768	41.28
866.147	41.28
866.526	41.27
866.905	41.3
867.284	41.31
867.663	41.31
868.042	41.33
868.421	41.35
868.8	41.36
869.179	41.38
869.558	41.41
869.936	41.4
870.315	41.39
870.693	41.37
871.072	41.37
871.45	41.38
871.828	41.38
872.207	41.38
872.585	41.36
872.963	41.35
873.341	41.33
873.719	41.32
874.097	41.32
874.475	41.34
874.853	41.34
875.23	41.34
875.608	41.34
875.986	41.38
876.363	41.4
876.741	41.43
877.118	41.45
877.495	41.46
877.873	41.48
878.25	41.5
878.627	41.51
879.004	41.49
879.381	41.48
879.758	41.43
880.135	41.4
880.512	41.39
880.889	41.37
881.265	41.35
881.642	41.34
882.019	41.33
882.395	41.32
882.772	41.29
883.148	41.28
883.524	41.28
883.901	41.29
884.277	41.27
884.653	41.24
885.029	41.23
885.405	41.22
885.781	41.21
886.157	41.2
886.532	41.18
886.908	41.15
887.284	41.15
887.659	41.14
888.035	41.13
888.411	41.13
888.786	41.13
889.161	41.12
889.537	41.12
889.912	41.11
890.287	41.12
890.662	41.12
891.037	41.14
891.412	41.13
891.787	41.1
892.162	41.09
892.536	41.09
892.911	41.07
893.286	41.06
893.66	41.06
894.035	41.07
894.409	41.05
894.784	41.05
895.158	41.04
895.532	41.05
895.906	41.07
896.281	41.08
896.655	41.07
897.029	41.09
897.402	41.09
897.776	41.1
898.15	41.1
898.524	41.1
898.898	41.1
899.271	41.11
899.645	41.14
900.018	41.16
900.392	41.18
900.765	41.22
901.138	41.2
901.511	41.22
901.884	41.22
902.258	41.23
902.631	41.25
903.003	41.26
903.376	41.27
903.749	41.24
904.122	41.25
904.495	41.25
904.867	41.25
905.24	41.29
905.612	41.32
905.985	41.31
906.357	41.33
906.729	41.34
907.102	41.34
907.474	41.33
907.846	41.36
908.218	41.35
908.59	41.35
908.962	41.37
909.334	41.38
909.705	41.36
910.077	41.4
910.449	41.41
910.82	41.41
911.192	41.4
911.563	41.42
911.935	41.41
912.306	41.43
912.677	41.45
913.048	41.45
913.419	41.43
913.79	41.45
914.161	41.46
914.532	41.45
914.903	41.44
915.274	41.43
915.645	41.45
916.015	41.46
916.386	41.46
916.756	41.48
917.127	41.48
917.497	41.49
917.868	41.48
918.238	41.44
918.608	41.46
918.978	41.48
919.348	41.51
919.718	41.49
920.088	41.51
920.458	41.52
920.828	41.5
921.198	41.49
921.567	41.48
921.937	41.5
922.306	41.51
922.676	41.51
923.045	41.51
923.415	41.51
923.784	41.55
924.153	41.56
924.522	41.54
924.891	41.54
925.26	41.55
925.629	41.56
925.998	41.57
926.367	41.58
926.736	41.59
927.104	41.6
927.473	41.6
927.842	41.56
928.21	41.55
928.578	41.56
928.947	41.57
929.315	41.57
929.683	41.56
930.051	41.53
930.42	41.53
930.788	41.51
931.156	41.5
931.523	41.52
931.891	41.58
932.259	41.57
932.627	41.59
932.994	41.62
933.362	41.64
933.729	41.68
934.097	41.73
934.464	41.78
934.831	41.82
935.199	41.86
935.566	41.9
935.933	41.86
936.3	41.9
936.667	41.9
937.034	41.96
937.401	42
937.767	42.03
938.134	42.03
938.501	42.09
938.867	42.14
939.234	42.19
939.6	42.22
939.967	42.3
940.333	42.35
940.699	42.41
941.065	42.35
941.431	42.34
941.798	42.36
942.163	42.39
942.529	42.37
942.895	42.37
943.261	42.35
943.627	42.33
943.992	42.28
944.358	42.26
944.723	42.24
945.089	42.25
945.454	42.3
945.82	42.31
946.185	42.31
946.55	42.24
946.915	42.21
947.28	42.17
947.645	42.16
948.01	42.15
948.375	42.14
948.74	42.12
949.104	42.14
949.469	42.09
949.834	42.02
950.198	41.99
950.562	41.94
950.927	41.91
951.291	41.88
951.655	41.8
952.02	41.76
952.384	41.7
952.748	41.7
953.112	41.71
953.476	41.67
953.839	41.63
954.203	41.63
954.567	41.62
954.931	41.57
955.294	41.53
955.658	41.58
956.021	41.57
956.385	41.55
956.748	41.47
957.111	41.41
957.474	41.43
957.837	41.41
958.2	41.34
958.563	41.33
958.926	41.39
959.289	41.39
959.652	41.33
960.015	41.36
960.377	41.33
960.74	41.34
961.102	41.32
961.465	41.29
961.827	41.33
962.189	41.38
962.552	41.41
962.914	41.38
963.276	41.44
963.638	41.45
964	41.46
964.362	41.5
964.724	41.53
965.085	41.53
965.447	41.47
965.809	41.47
966.17	41.4
966.532	41.37
966.893	41.37
967.255	41.35
967.616	41.38
967.977	41.35
968.338	41.37
968.699	41.38
969.061	41.39
969.421	41.51
969.782	41.5
970.143	41.51
970.504	41.56
970.865	41.62
971.225	41.56
971.586	41.56
971.946	41.59
972.307	41.56
972.667	41.52
973.027	41.55
973.388	41.47
973.748	41.49
974.108	41.59
974.468	41.58
974.828	41.58
975.188	41.63
975.548	41.64
975.907	41.64
976.267	41.68
976.627	41.78
976.986	41.72
977.346	41.73
977.705	41.77
978.064	41.77
978.424	41.79
978.783	41.74
979.142	41.74
979.501	41.8
979.86	41.91
980.219	41.93
980.578	41.93
980.937	42
981.296	42.04
981.654	42.01
982.013	41.98
982.371	42.02
982.73	42.06
983.088	42.03
983.447	41.98
983.805	41.95
984.163	41.95
984.521	41.86
984.879	41.9
985.237	41.96
985.595	42.04
985.953	42.06
986.311	42.03
986.669	42.03
987.026	42.07
987.384	42.13
987.741	42.1
988.099	42.17
988.456	42.23
988.814	42.31
989.171	42.3
989.528	42.3
989.885	42.3
990.242	42.39
990.599	42.5
990.956	42.53
991.313	42.61
991.67	42.65
992.027	42.78
992.383	42.91
992.74	42.99
993.096	43.11
993.453	43.17
993.809	43.21
994.165	43.33
994.522	43.42
994.878	43.56
995.234	43.52
995.59	43.5
995.946	43.51
996.302	43.55
996.658	43.59
997.013	43.59
997.369	43.65
997.725	43.74
998.08	43.76
998.436	43.71
998.791	43.75
999.147	43.82
999.502	43.99
999.857	44
1000.212	43.9
1000.567	43.85
1000.922	43.91
1001.277	43.89
1001.632	43.93
1001.987	43.91
1002.342	43.94
1002.696	44.11
1003.051	44.3
1003.406	44.49
1003.76	44.53
1004.114	44.66
1004.469	44.72
1004.823	44.97
1005.177	45.06
1005.531	45.21
1005.885	45.27
1006.239	45.38
1006.593	45.38
1006.947	45.37
1007.301	45.16
1007.655	45.25
1008.008	45.45
1008.362	45.58
1008.715	45.45
1009.069	45.58
1009.422	45.67
1009.776	45.83
1010.129	45.96
1010.482	46.05
1010.835	46.13
1011.188	46.36
1011.541	46.53
1011.894	46.47
1012.247	46.58
1012.6	46.74
1012.952	46.8
1013.305	46.98
1013.657	47.09
1014.01	47.26
1014.362	47.36
1014.715	47.53
1015.067	47.6
1015.419	47.61
1015.771	47.84
1016.123	47.95
1016.475	48.02
1016.827	48.17
1017.179	48.11
1017.531	48.15
1017.883	48.22
1018.234	48.33
1018.586	48.49
1018.938	48.84
1019.289	49.03
1019.64	49.15
1019.992	49.21
1020.343	49.46
1020.694	49.6
1021.045	49.69
1021.396	49.97
1021.747	50.25
1022.098	50.59
1022.449	50.72
1022.8	50.89
1023.151	51.13
1023.501	51.54
1023.852	51.96
1024.202	51.98
1024.553	52.32
1024.903	52.76
1025.253	52.93
1025.604	53.06
1025.954	52.88
1026.304	52.97
1026.654	53.04
1027.004	53.01
1027.354	52.96
1027.703	52.76
1028.053	53.12
1028.403	53.03
1028.753	53.03
1029.102	53.22
1029.452	53.35
1029.801	53.75
1030.15	53.84
1030.499	53.74
897.758	1493.08
901.051	1493.94
904.343	1490.57
907.636	1521.55
910.928	1478.34
914.22	1476.74
917.511	1456.12
920.803	1392.02
924.094	1386.23
927.384	1353.73
930.675	1299.13
933.965	1291.94
937.255	1218.34
940.544	1169.41
943.834	1114.11
947.123	1106.6
950.411	1039.24
953.7	1018.49
956.988	964.2
960.276	926.24
963.563	911.97
966.851	879.21
970.138	870.15
973.424	843.73
976.711	847.58
979.997	802.93
983.283	796.93
986.568	783.3
989.853	758.21
993.138	745.01
996.423	714.91
999.708	694.89
1002.992	686.01
1006.275	654.61
1009.559	648.85
1012.842	625.54
1016.125	606.62
1019.408	597.39
1022.69	587.52
1025.972	576.92
1029.254	562.21
1032.536	553.04
1035.817	541.02
1039.098	534.31
1042.379	523.8
1045.659	517.23
1048.939	504.11
1052.219	496.51
1055.498	486.4
1058.778	476.52
1062.057	464.44
1065.335	459.03
1068.614	454.32
1071.892	448.57
1075.17	433.34
1078.447	425.28
1081.724	422.67
1085.001	420.11
1088.278	409.76
1091.554	403.53
1094.83	402.87
1098.106	400.25
1101.382	396.78
1104.657	393.76
1107.932	387.22
1111.206	390.34
1114.481	380.43
1117.755	376.83
1121.029	373.48
1124.302	374.05
1127.575	365.98
1130.848	361.82
1134.121	357.82
1137.393	356.23
1140.665	348.26
1143.937	347.1
1147.208	343.85
1150.48	343.8
1153.75	338.43
1157.021	333.5
1160.291	333.21
1163.561	329.89
1166.831	329.4
1170.101	326.88
1173.37	326.35
1176.639	326.96
1179.907	323.56
1183.176	320.5
1186.444	319.43
1189.711	319.64
1192.979	318.41
1196.246	316.29
1199.513	317.95
1202.78	315.82
1206.046	315.77
1209.312	312.2
1212.578	312.8
1215.843	315.27
1219.108	313.03
1222.373	320.4
1225.638	322.4
1228.902	327.1
1232.166	327.16
1235.43	329.93
1238.693	334.23
1241.956	335.65
1245.219	341.48
1248.482	341.16
1251.744	340.88
1255.006	343.04
1258.268	333.79
1261.529	330.41
1264.79	328.35
1268.051	326.5
1271.312	322.48
1274.572	318.67
1277.832	315.43
1281.092	310.32
1284.351	307.8
1287.61	307.77
1290.869	302.78
1294.128	300.96
1297.386	301.69
1300.644	298.01
1303.902	299.33
1307.159	297.68
1310.416	298.26
1313.673	298.55
1316.93	301.06
1320.186	301.32
1323.442	302.1
1326.697	307.86
1329.953	309
1333.208	309.6
1336.463	313.8
1339.717	314.07
1342.972	318.15
1346.226	320.41
1349.479	320.94
1352.733	322.85
1355.986	324.5
1359.238	324.22
1362.491	326.1
1365.743	328.25
1368.995	329.52
1372.247	328.48
1375.498	328.9
1378.749	331.42
1382	327.98
1385.251	329.72
1388.501	327.61
1391.751	329.05
1395	328.22
1398.25	325.04
1401.499	324.79
1404.748	323.71
1407.996	320.95
1411.244	319.44
1414.492	317.74
1417.74	315.28
1420.987	310.66
1424.234	311.21
1427.481	306.66
1430.728	306.6
1433.974	303.12
1437.22	300.81
1440.465	300
1443.711	297.92
1446.956	296.39
1450.201	292.16
1453.445	290.15
1456.689	289.14
1459.933	283.18
1463.177	281.49
1466.42	276.91
1469.663	273.49
1472.906	271.57
1476.148	264.47
1479.391	261.17
1482.633	258.43
1485.874	254.51
1489.115	252.27
1492.356	248.88
1495.597	248.95
1498.838	244.92
1502.078	243.22
1505.318	242.73
1508.557	242.32
1511.797	242.07
1515.036	240.71
1518.274	239.64
1521.513	237.48
1524.751	237.04
1527.989	236.68
1531.227	235.41
1534.464	236.04
1537.701	233.93
1540.938	233.26
1544.174	230.83
1547.41	230.41
1550.646	229
1553.882	229.07
1557.117	226.49
1560.352	224.9
1563.587	223.89
1566.821	222.44
1570.055	219.91
1573.289	218.63
1576.523	218.51
1579.756	215.66
1582.989	214.39
1586.222	214.75
1589.454	213.11
1592.686	214.82
1595.918	214.24
1599.15	213.44
1602.381	213.52
1605.612	213.4
1608.843	214.74
1612.073	214.06
1615.303	216.07
1618.533	216.25
1621.762	215.43
1624.992	215.8
1628.221	215.35
1631.449	215.03
1634.678	214.14
1637.906	215.36
1641.134	215.41
1644.361	214.42
1647.588	215.1
1650.815	214.26
1654.042	213.19
1657.269	214.48
1660.495	214.61
1663.72	213.28
1666.946	214.4
1670.171	215.26
1673.396	214.78
1676.621	214.84
1679.845	214.77
1683.069	215.27
1686.293	216.37
1689.517	217.38
1692.74	216.89
1695.963	217.73
1699.185	220.46
1702.408	219.8
1705.63	220.93
1708.852	221.6
1712.073	222.43
1715.294	223.29
1718.515	224.25
1721.736	224.12
1724.956	224.73
1728.176	224.83
1731.396	227.17
1734.616	226.33
1737.835	227.52
1741.054	226.21
1744.272	226.25
1747.491	228.44
1750.709	229.27
1753.927	228.99
1757.144	228.29
1760.361	229.84
1763.578	229.68
1766.795	228.68
1770.011	230.42
1773.227	230.41
1776.443	233.32
1779.658	234.76
1782.874	233.98
1786.089	234.82
1789.303	235.39
1792.518	238.26
1795.732	238.07
1798.945	241.18
1802.159	241.19
1805.372	241.82
1808.585	246.42
1811.797	246.89
1815.01	247.16
1818.222	249.07
1821.434	250.9
1824.645	252
1827.856	255.92
1831.067	257.78
1834.278	256.93
1837.488	258.91
1840.698	260.6
1843.908	257.68
1847.117	259.47
1850.326	261.33
1853.535	260.18
1856.744	264.23
1859.952	264.16
1863.16	262.83
1866.368	261.49
1869.575	265.14
1872.782	261.24
1875.989	260
1879.196	259.75
1882.402	257.84
1885.608	258.81
1888.814	260.1
1892.019	258.81
1895.224	258.24
1898.429	257.01
1901.634	258.69
1904.838	257.85
1908.042	261.19
1911.246	262.69
1914.449	263.99
1917.652	264.17
1920.855	264.29
1924.058	263.52
1927.26	262.2
1930.462	263.1
1933.664	266.32
1936.865	263.91
1940.066	263.98
1943.267	262.84
1946.467	262.16
1949.668	263.98
1952.868	266.85
1956.067	266.08
1959.267	267.61
1962.466	268.46
1965.665	267.31
1968.863	267.59
1972.061	271.23
1975.259	273.75
1978.457	275.68
1981.654	278.51
1984.852	278.93
1988.048	278.29
1991.245	281.25
1994.441	284.57
1997.637	285.9
2000.833	292.06
2004.028	295.43
2007.223	296.79
2010.418	299.75
2013.613	304.55
2016.807	307.29
2020.001	310.46
2023.194	314.79
2026.388	321.86
2029.581	327.98
2032.774	331.68
2035.966	336.98
2039.158	338.11
2042.35	345.31
2045.542	348.37
2048.733	353.16
2051.924	358.02
2055.115	364.35
2058.306	365.6
2061.496	368.83
2064.686	369.55
2067.875	375.77
2071.065	376.99
2074.254	375.56
2077.442	380.26
2080.631	381.14
2083.819	384.92
2087.007	385.84
2090.195	388.79
2093.382	392.51
2096.569	389.51
2099.756	396.32
2102.942	397.31
2106.128	402.31
2109.314	411.01
2112.5	409.1
2115.685	418.5
2118.87	419.8
2122.055	427.62
2125.239	430.97
2128.424	436.09
2131.608	440.33
2134.791	444.1
2137.974	446.41
2141.157	447.04
2144.34	447.52
2147.523	456.01
2150.705	451.79
2153.887	455.14
2157.068	456.36
2160.25	453.12
2163.431	455.31
2166.611	459.52
2169.792	468.81
2172.972	473.36
2176.152	476.75
2179.331	483.44
2182.511	489.48
2185.69	496.84
2188.868	507.4
2192.047	507.83
2195.225	522.1
2198.403	534.06
2201.58	543.71
2204.758	554.71
2207.935	566.38
2211.111	576.32
2214.288	582.73
2217.464	585.28
2220.64	591.58
2223.815	600.14
2226.991	624.08
2230.166	625.63
2233.34	638.71
2236.515	649.14
2239.689	647.83
2242.863	652.31
2246.036	672.34
2249.209	665.97
2252.382	677.79
2255.555	699.3
2258.727	701.16
2261.9	705.5
2265.071	712.43
2268.243	722.4
2271.414	732.59
2274.585	751.44
2277.756	757.56
2280.926	762.76
2284.096	781.46
2287.266	797.58
2290.436	802.94
2293.605	821.73
2296.774	848.77
2299.942	875.12
2303.111	881.66
2306.279	900.04
2309.447	911.25
2312.614	934.92
2315.781	960.37
2318.948	1006.29
2322.115	991.65
2325.281	1044.97
2328.447	1022.2
2331.613	1063.9
2334.779	1050.66
2337.944	1094.99
2341.109	1106.07
2344.274	1134.76
2347.438	1176.28
2350.602	1174.93
2353.766	1212.82
2356.929	1230.72
2360.092	1220.19
2363.255	1310.23
2366.418	1303.54
2369.58	1331.98
2372.742	1415.14
2375.904	1451.35
2379.066	1442.06
2382.227	1413.21
2385.388	1531.33
2388.548	1531.47
2391.709	1550.22
2394.869	1730.08
2398.029	1656.98
2401.188	1703.21
2404.347	1692.25
2407.506	1661.55
2410.665	1711.36
2413.823	1811.22
2416.981	1919.42
2420.139	1857.57
2423.296	1833.81
2426.453	1911.78
2429.61	1841.68
2432.767	1925.97
2435.923	1907.73
2439.079	2086.61
2442.235	2115.17
2445.391	2093.22
2448.546	2085.46
2451.701	2022.03
2454.855	2021.8
2458.009	2148.23
2461.163	2240.17
2464.317	2316.8
2467.471	2377.98
2470.624	2379.5
2473.777	2312.78
2476.929	2256.32
2480.082	2189.2
2483.234	2164.06
2486.385	2277.09
2489.537	2286.44
2492.688	2369.42
2495.839	2303.2
2498.989	2257.32
2502.14	2268.58
2505.29	2292.55
2508.439	2334.5
2511.589	2324.55
2514.738	2537.23
2517.887	2480.62
2521.035	2621.97
2524.183	2638.96
2527.331	2658.47
2530.479	2648.22
2533.627	2667.02
