Data from N_2_DIV_PA_2N_Splice17_13-39-00-496.txt Node
Date: Sat Mar 07 13:39:00 EST 2020
User: sa697716
Spectrometer: NQ5500242
Trigger mode: 0
Integration Time (sec): 1.450000E-1
Scans to average: 20
Nonlinearity correction enabled: false
Boxcar width: 5
Storing dark spectrum: false
XAxis mode: Wavelengths
Number of Pixels in Spectrum: 512
>>>>>Begin Spectral Data<<<<<
187.83	156.27
188.298	173.4
188.766	158.32
189.233	125.19
189.701	132.77
190.169	139.14
190.636	142.03
191.104	117.08
191.571	-66.88
192.039	-129.31
192.506	-134.88
192.974	80.05
193.441	205.45
193.908	89.13
194.375	79.08
194.842	38.62
195.31	18.99
195.777	166.8
196.244	90.79
196.711	90.35
197.177	92.83
197.644	92.06
198.111	92.64
198.578	92.22
199.045	92.96
199.511	92.68
199.978	92.78
200.445	93.25
200.911	93.14
201.378	92.99
201.844	92.67
202.31	92.32
202.777	92.17
203.243	91.78
203.709	91.44
204.176	90.55
204.642	90.12
205.108	89.76
205.574	88.66
206.04	87.45
206.506	86.61
206.972	86.42
207.438	85.45
207.903	84.21
208.369	82.66
208.835	80.69
209.301	78.65
209.766	76.18
210.232	73.58
210.697	71.31
211.163	69.22
211.628	67.41
212.094	65.22
212.559	63.57
213.024	61.89
213.49	60.33
213.955	58.95
214.42	57.51
214.885	55.61
215.35	53.36
215.815	50.33
216.28	46.45
216.745	41.92
217.21	37.57
217.675	33.41
218.14	29.84
218.604	26.71
219.069	24.13
219.534	22.02
219.998	20.22
220.463	18.8
220.927	17.55
221.392	16.62
221.856	15.85
222.32	15.18
222.785	14.61
223.249	14.12
223.713	13.65
224.177	13.27
224.642	12.88
225.106	12.53
225.57	12.17
226.034	11.9
226.497	11.62
226.961	11.35
227.425	11.1
227.889	10.87
228.353	10.63
228.816	10.43
229.28	10.22
229.744	10.05
230.207	9.89
230.671	9.73
231.134	9.57
231.597	9.43
232.061	9.3
232.524	9.18
232.987	9.06
233.45	8.96
233.914	8.84
234.377	8.72
234.84	8.61
235.303	8.53
235.766	8.45
236.229	8.36
236.691	8.27
237.154	8.2
237.617	8.13
238.08	8.05
238.542	7.98
239.005	7.93
239.468	7.86
239.93	7.8
240.393	7.73
240.855	7.65
241.317	7.58
241.78	7.51
242.242	7.43
242.704	7.37
243.166	7.31
243.629	7.26
244.091	7.19
244.553	7.13
245.015	7.06
245.477	7
245.939	6.95
246.4	6.89
246.862	6.83
247.324	6.78
247.786	6.71
248.247	6.65
248.709	6.58
249.17	6.51
249.632	6.47
250.093	6.43
250.555	6.38
251.016	6.34
251.477	6.29
251.939	6.27
252.4	6.23
252.861	6.19
253.322	6.17
253.783	6.15
254.244	6.12
254.705	6.07
255.166	6.04
255.627	6
256.088	5.97
256.549	5.94
257.009	5.89
257.47	5.85
257.931	5.8
258.391	5.75
258.852	5.71
259.312	5.67
259.773	5.63
260.233	5.59
260.694	5.55
261.154	5.49
261.614	5.46
262.074	5.42
262.534	5.38
262.994	5.35
263.455	5.32
263.915	5.29
264.374	5.25
264.834	5.23
265.294	5.2
265.754	5.18
266.214	5.16
266.673	5.14
267.133	5.13
267.593	5.11
268.052	5.09
268.512	5.08
268.971	5.07
269.431	5.05
269.89	5.03
270.349	5.03
270.809	5.01
271.268	5.01
271.727	4.99
272.186	4.98
272.645	4.98
273.104	4.96
273.563	4.94
274.022	4.93
274.481	4.93
274.94	4.92
275.399	4.91
275.857	4.9
276.316	4.89
276.775	4.89
277.233	4.88
277.692	4.87
278.15	4.87
278.609	4.87
279.067	4.87
279.525	4.87
279.984	4.86
280.442	4.86
280.9	4.87
281.358	4.87
281.816	4.88
282.274	4.88
282.732	4.87
283.19	4.86
283.648	4.86
284.106	4.85
284.564	4.84
285.021	4.84
285.479	4.84
285.937	4.83
286.394	4.82
286.852	4.8
287.309	4.79
287.767	4.78
288.224	4.76
288.682	4.74
289.139	4.72
289.596	4.71
290.053	4.68
290.511	4.66
290.968	4.63
291.425	4.61
291.882	4.6
292.339	4.59
292.796	4.57
293.252	4.56
293.709	4.56
294.166	4.55
294.623	4.54
295.079	4.53
295.536	4.52
295.992	4.52
296.449	4.51
296.905	4.5
297.362	4.49
297.818	4.48
298.274	4.48
298.731	4.46
299.187	4.46
299.643	4.44
300.099	4.45
300.555	4.44
301.011	4.44
301.467	4.44
301.923	4.43
302.379	4.43
302.835	4.44
303.291	4.44
303.746	4.44
304.202	4.46
304.658	4.47
305.113	4.47
305.569	4.48
306.024	4.49
306.479	4.49
306.935	4.5
307.39	4.51
307.845	4.51
308.301	4.52
308.756	4.53
309.211	4.53
309.666	4.54
310.121	4.54
310.576	4.54
311.031	4.55
311.486	4.55
311.94	4.54
312.395	4.55
312.85	4.55
313.305	4.56
313.759	4.56
314.214	4.55
314.668	4.54
315.123	4.55
315.577	4.55
316.032	4.54
316.486	4.53
316.94	4.54
317.394	4.53
317.849	4.5
318.303	4.49
318.757	4.47
319.211	4.47
319.665	4.44
320.119	4.42
320.572	4.41
321.026	4.4
321.48	4.39
321.934	4.37
322.387	4.37
322.841	4.36
323.295	4.37
323.748	4.37
324.202	4.37
324.655	4.38
325.108	4.39
325.562	4.39
326.015	4.39
326.468	4.39
326.921	4.4
327.374	4.39
327.827	4.4
328.28	4.4
328.733	4.4
329.186	4.41
329.639	4.41
330.092	4.41
330.545	4.41
330.997	4.42
331.45	4.43
331.903	4.44
332.355	4.46
332.808	4.46
333.26	4.46
333.713	4.47
334.165	4.47
334.617	4.48
335.069	4.48
335.522	4.49
335.974	4.49
336.426	4.48
336.878	4.48
337.33	4.48
337.782	4.48
338.234	4.5
338.686	4.49
339.137	4.5
339.589	4.47
340.041	4.47
340.493	4.45
340.944	4.43
341.396	4.43
341.847	4.41
342.299	4.4
342.75	4.37
343.201	4.34
343.653	4.32
344.104	4.29
344.555	4.29
345.006	4.27
345.457	4.26
345.908	4.25
346.359	4.24
346.81	4.23
347.261	4.23
347.712	4.23
348.163	4.22
348.613	4.23
349.064	4.23
349.515	4.23
349.965	4.23
350.416	4.22
350.866	4.22
351.317	4.22
351.767	4.23
352.217	4.23
352.668	4.23
353.118	4.24
353.568	4.23
354.018	4.24
354.468	4.25
354.918	4.25
355.368	4.26
355.818	4.27
356.268	4.27
356.718	4.27
357.168	4.27
357.617	4.26
358.067	4.25
358.517	4.27
358.966	4.28
359.416	4.29
359.865	4.29
360.315	4.29
360.764	4.3
361.213	4.3
361.663	4.29
362.112	4.3
362.561	4.31
363.01	4.32
363.459	4.31
363.908	4.3
364.357	4.3
364.806	4.3
365.255	4.31
365.703	4.32
366.152	4.33
366.601	4.35
367.05	4.36
367.498	4.35
367.947	4.37
368.395	4.39
368.844	4.39
369.292	4.4
369.74	4.41
370.189	4.41
370.637	4.4
371.085	4.4
371.533	4.4
371.981	4.41
372.429	4.41
372.877	4.41
373.325	4.4
373.773	4.41
374.221	4.41
374.669	4.42
375.116	4.41
375.564	4.41
376.012	4.43
376.459	4.44
376.907	4.46
377.354	4.47
377.801	4.49
378.249	4.51
378.696	4.51
379.143	4.53
379.591	4.54
380.038	4.56
380.485	4.59
380.932	4.6
381.379	4.61
381.826	4.63
382.273	4.65
382.72	4.66
383.166	4.68
383.613	4.69
384.06	4.7
384.506	4.72
384.953	4.75
385.4	4.77
385.846	4.8
386.292	4.81
386.739	4.82
387.185	4.84
387.631	4.86
388.078	4.88
388.524	4.91
388.97	4.95
389.416	4.98
389.862	5.01
390.308	5.05
390.754	5.08
391.2	5.12
391.645	5.14
392.091	5.18
392.537	5.23
392.983	5.26
393.428	5.31
393.874	5.33
394.319	5.36
394.765	5.39
395.21	5.4
395.655	5.43
396.101	5.47
396.546	5.52
396.991	5.56
397.436	5.6
397.881	5.65
398.326	5.7
398.771	5.75
399.216	5.8
399.661	5.84
400.106	5.9
400.551	5.94
400.995	5.96
401.44	5.98
401.885	6.01
402.329	6.06
402.774	6.1
403.218	6.15
403.663	6.18
404.107	6.23
404.551	6.26
404.995	6.29
405.44	6.32
405.884	6.37
406.328	6.42
406.772	6.45
407.216	6.47
407.66	6.5
408.104	6.5
408.547	6.53
408.991	6.57
409.435	6.6
409.879	6.64
410.322	6.69
410.766	6.74
411.209	6.77
411.653	6.82
412.096	6.87
412.54	6.91
412.983	6.95
413.426	7.03
413.869	7.06
414.312	7.12
414.756	7.16
415.199	7.18
415.642	7.21
416.085	7.23
416.527	7.23
416.97	7.23
417.413	7.24
417.856	7.24
418.298	7.22
418.741	7.23
419.184	7.23
419.626	7.24
420.069	7.26
420.511	7.28
420.953	7.29
421.396	7.33
421.838	7.37
422.28	7.39
422.722	7.44
423.164	7.46
423.606	7.48
424.048	7.49
424.49	7.51
424.932	7.5
425.374	7.47
425.816	7.46
426.258	7.44
426.699	7.41
427.141	7.44
427.582	7.45
428.024	7.46
428.465	7.46
428.907	7.45
429.348	7.45
429.789	7.47
430.231	7.52
430.672	7.56
431.113	7.59
431.554	7.62
431.995	7.63
432.436	7.63
432.877	7.66
433.318	7.69
433.759	7.73
434.2	7.76
434.64	7.78
435.081	7.79
435.522	7.79
435.962	7.81
436.403	7.84
436.843	7.85
437.284	7.84
437.724	7.84
438.164	7.82
438.604	7.83
439.045	7.83
439.485	7.83
439.925	7.82
440.365	7.82
440.805	7.82
441.245	7.81
441.685	7.83
442.125	7.84
442.564	7.85
443.004	7.86
443.444	7.86
443.883	7.86
444.323	7.85
444.762	7.85
445.202	7.85
445.641	7.87
446.081	7.87
446.52	7.84
446.959	7.87
447.398	7.86
447.837	7.85
448.276	7.84
448.716	7.85
449.154	7.86
449.593	7.85
450.032	7.82
450.471	7.79
450.91	7.76
451.349	7.75
451.787	7.71
452.226	7.69
452.664	7.68
453.103	7.65
453.541	7.62
453.98	7.59
454.418	7.57
454.856	7.56
455.295	7.54
455.733	7.52
456.171	7.5
456.609	7.5
457.047	7.46
457.485	7.44
457.923	7.43
458.361	7.42
458.798	7.41
459.236	7.41
459.674	7.41
460.111	7.4
460.549	7.41
460.987	7.42
461.424	7.41
461.862	7.41
462.299	7.43
462.736	7.43
463.173	7.44
463.611	7.45
464.048	7.45
464.485	7.46
464.922	7.47
465.359	7.47
465.796	7.5
466.233	7.51
466.67	7.52
467.106	7.52
467.543	7.52
467.98	7.52
468.416	7.49
468.853	7.48
469.29	7.47
469.726	7.45
470.162	7.44
470.599	7.41
471.035	7.4
471.471	7.38
471.907	7.36
472.344	7.35
472.78	7.34
473.216	7.32
473.652	7.31
474.088	7.28
474.523	7.27
474.959	7.25
475.395	7.23
475.831	7.21
476.266	7.2
476.702	7.17
477.138	7.15
477.573	7.13
478.008	7.11
478.444	7.08
478.879	7.08
479.314	7.05
479.75	7.04
480.185	7.01
480.62	7
481.055	6.98
481.49	6.95
481.925	6.94
482.36	6.92
482.795	6.9
483.229	6.89
483.664	6.88
484.099	6.86
484.534	6.84
484.968	6.83
485.403	6.81
485.837	6.8
486.271	6.8
486.706	6.78
487.14	6.77
487.574	6.78
488.009	6.77
488.443	6.76
488.877	6.77
489.311	6.77
489.745	6.78
490.179	6.79
490.613	6.8
491.046	6.81
491.48	6.82
491.914	6.82
492.348	6.82
492.781	6.84
493.215	6.85
493.648	6.86
494.082	6.87
494.515	6.86
494.948	6.87
495.382	6.87
495.815	6.89
496.248	6.9
496.681	6.91
497.114	6.91
497.547	6.93
497.98	6.94
498.413	6.95
498.846	6.97
499.279	6.98
499.711	6.99
500.144	7.01
500.577	7.01
501.009	7.03
501.442	7.05
501.874	7.08
502.306	7.09
502.739	7.13
503.171	7.15
503.603	7.17
504.036	7.21
504.468	7.24
504.9	7.26
505.332	7.3
505.764	7.33
506.196	7.36
506.627	7.4
507.059	7.45
507.491	7.46
507.923	7.51
508.354	7.57
508.786	7.62
509.217	7.67
509.649	7.74
510.08	7.79
510.512	7.86
510.943	7.92
511.374	7.98
511.805	8.06
512.237	8.15
512.668	8.22
513.099	8.28
513.53	8.36
513.961	8.45
514.391	8.54
514.822	8.64
515.253	8.72
515.684	8.82
516.114	8.92
516.545	9.01
516.975	9.11
517.406	9.22
517.836	9.33
518.267	9.45
518.697	9.55
519.127	9.65
519.558	9.76
519.988	9.89
520.418	10
520.848	10.1
521.278	10.22
521.708	10.53
522.138	10.65
522.567	10.76
522.997	10.87
523.427	10.99
523.857	11.1
524.286	11.2
524.716	11.3
525.145	11.4
525.575	11.52
526.004	11.63
526.433	11.53
526.863	11.63
527.292	11.74
527.721	11.83
528.15	11.93
528.579	12.02
529.008	12.11
529.437	12.2
529.866	12.28
530.295	12.36
530.724	12.44
531.152	12.52
531.581	12.59
532.01	12.65
532.438	12.72
532.867	12.78
533.295	12.84
533.723	12.9
534.152	12.95
534.58	13.01
535.008	13.05
535.436	13.1
535.865	13.14
536.293	13.17
536.721	13.2
537.149	13.23
537.576	13.27
538.004	13.3
538.432	13.34
538.86	13.37
539.287	13.38
539.715	13.43
540.143	13.43
540.57	13.46
540.998	13.48
541.425	13.51
541.852	13.54
542.28	13.56
542.707	13.58
543.134	13.61
543.561	13.63
543.988	13.66
544.415	13.68
544.842	13.7
545.269	13.73
545.696	13.76
546.123	13.78
546.549	13.79
546.976	13.82
547.403	13.84
547.829	13.86
548.256	13.87
548.682	13.87
549.108	13.89
549.535	13.91
549.961	13.91
550.387	13.92
550.813	13.93
551.24	13.93
551.666	13.92
552.092	13.92
552.518	13.91
552.943	13.91
553.369	13.91
553.795	13.88
554.221	13.86
554.646	13.84
555.072	13.8
555.498	13.76
555.923	13.73
556.349	13.69
556.774	13.65
557.199	13.61
557.625	13.56
558.05	13.51
558.475	13.46
558.9	13.41
559.325	13.36
559.75	13.31
560.175	13.25
560.6	13.16
561.025	13.08
561.449	13
561.874	12.93
562.299	12.85
562.723	12.77
563.148	12.69
563.572	12.6
563.997	12.51
564.421	12.42
564.846	12.32
565.27	12.25
565.694	12.17
566.118	12.08
566.542	11.99
566.966	11.9
567.39	11.81
567.814	11.72
568.238	11.64
568.662	11.56
569.086	11.49
569.509	11.42
569.933	11.35
570.357	11.27
570.78	11.18
571.204	11.11
571.627	11.03
572.05	10.96
572.474	10.9
572.897	10.84
573.32	10.77
573.743	10.7
574.166	10.64
574.589	10.59
575.012	10.54
575.435	10.49
575.858	10.43
576.281	10.39
576.704	10.34
577.126	10.3
577.549	10.25
577.972	10.2
578.394	10.15
578.817	10.11
579.239	10.07
579.661	10.03
580.084	10
580.506	9.98
580.928	9.93
581.35	9.9
581.772	9.86
582.194	9.84
582.616	9.81
583.038	9.8
583.46	9.75
583.882	9.72
584.303	9.68
584.725	9.64
585.147	9.61
585.568	9.59
585.99	9.57
586.411	9.54
586.833	9.52
587.254	9.49
587.675	9.45
588.096	9.43
588.518	9.41
588.939	9.4
589.36	9.39
589.781	9.36
590.202	9.35
590.623	9.34
591.043	9.32
591.464	9.31
591.885	9.28
592.305	9.27
592.726	9.27
593.147	9.26
593.567	9.23
593.987	9.2
594.408	9.18
594.828	9.15
595.248	9.13
595.669	9.11
596.089	9.1
596.509	9.09
596.929	9.07
597.349	9.04
597.769	9.02
598.189	9.01
598.608	8.99
599.028	8.98
599.448	8.95
599.867	8.94
600.287	8.91
600.706	8.88
601.126	8.86
601.545	8.85
601.965	8.83
602.384	8.81
602.803	8.78
603.222	8.76
603.641	8.73
604.061	8.72
604.48	8.69
604.898	8.66
605.317	8.64
605.736	8.61
606.155	8.58
606.574	8.55
606.992	8.53
607.411	8.51
607.829	8.45
608.248	8.42
608.666	8.38
609.085	8.35
609.503	8.34
609.921	8.3
610.339	8.28
610.758	8.26
611.176	8.23
611.594	8.2
612.012	8.16
612.43	8.17
612.847	8.15
613.265	8.13
613.683	8.1
614.101	8.08
614.518	8.06
614.936	8.03
615.353	8
615.771	7.98
616.188	7.96
616.606	7.96
617.023	7.94
617.44	7.93
617.857	7.91
618.274	7.89
618.691	7.87
619.108	7.86
619.525	7.84
619.942	7.84
620.359	7.83
620.776	7.82
621.192	7.81
621.609	7.79
622.026	7.77
622.442	7.77
622.859	7.76
623.275	7.75
623.691	7.74
624.108	7.74
624.524	7.73
624.94	7.73
625.356	7.72
625.772	7.71
626.188	7.71
626.604	7.72
627.02	7.71
627.436	7.71
627.852	7.72
628.268	7.73
628.683	7.73
629.099	7.73
629.514	7.73
629.93	7.73
630.345	7.73
630.761	7.72
631.176	7.71
631.591	7.71
632.007	7.71
632.422	7.69
632.837	7.68
633.252	7.67
633.667	7.66
634.082	7.64
634.497	7.63
634.911	7.62
635.326	7.61
635.741	7.6
636.155	7.57
636.57	7.57
636.984	7.55
637.399	7.53
637.813	7.51
638.228	7.49
638.642	7.47
639.056	7.45
639.47	7.43
639.884	7.42
640.298	7.39
640.712	7.39
641.126	7.35
641.54	7.33
641.954	7.3
642.368	7.28
642.781	7.27
643.195	7.26
643.609	7.24
644.022	7.22
644.436	7.2
644.849	7.18
645.262	7.16
645.676	7.14
646.089	7.13
646.502	7.13
646.915	7.12
647.328	7.11
647.741	7.09
648.154	7.08
648.567	7.08
648.98	7.07
649.393	7.06
649.805	7.06
650.218	7.05
650.631	7.05
651.043	7.04
651.456	7.03
651.868	7.02
652.28	7.01
652.693	7
653.105	7
653.517	6.98
653.929	6.97
654.341	6.95
654.753	6.95
655.165	6.94
655.577	6.92
655.989	6.91
656.401	6.9
656.813	6.9
657.224	6.88
657.636	6.85
658.047	6.85
658.459	6.84
658.87	6.82
659.282	6.8
659.693	6.78
660.104	6.77
660.515	6.75
660.926	6.74
661.338	6.72
661.749	6.71
662.159	6.71
662.57	6.7
662.981	6.69
663.392	6.69
663.803	6.69
664.213	6.67
664.624	6.66
665.035	6.65
665.445	6.65
665.855	6.65
666.266	6.66
666.676	6.65
667.086	6.64
667.497	6.64
667.907	6.63
668.317	6.63
668.727	6.64
669.137	6.65
669.547	6.65
669.956	6.64
670.366	6.65
670.776	6.66
671.186	6.67
671.595	6.66
672.005	6.67
672.414	6.68
672.824	6.68
673.233	6.68
673.642	6.7
674.052	6.71
674.461	6.74
674.87	6.74
675.279	6.76
675.688	6.78
676.097	6.81
676.506	6.83
676.915	6.85
677.323	6.88
677.732	6.9
678.141	6.92
678.549	6.94
678.958	6.95
679.366	6.98
679.775	6.99
680.183	7.02
680.592	7.05
681	7.08
681.408	7.11
681.816	7.15
682.224	7.18
682.632	7.22
683.04	7.25
683.448	7.28
683.856	7.31
684.264	7.35
684.671	7.37
685.079	7.4
685.487	7.45
685.894	7.49
686.302	7.55
686.709	7.61
687.116	7.68
687.524	7.76
687.931	7.86
688.338	7.95
688.745	8.05
689.152	8.16
689.559	8.3
689.966	8.43
690.373	8.57
690.78	8.7
691.187	8.86
691.593	9.03
692	9.21
692.407	9.41
692.813	9.64
693.22	9.87
693.626	10.12
694.032	10.38
694.439	10.66
694.845	10.94
695.251	11.25
695.657	11.56
696.063	11.89
696.469	12.23
696.875	12.59
697.281	12.94
697.687	13.32
698.093	13.69
698.498	14.09
698.904	14.47
699.31	14.87
699.715	15.29
700.12	15.71
700.526	16.12
700.931	16.55
701.337	16.97
701.742	17.38
702.147	17.79
702.552	18.23
702.957	18.64
703.362	19.08
703.767	19.51
704.172	19.93
704.577	20.35
704.981	20.79
705.386	21.21
705.791	21.66
706.195	22.09
706.6	22.54
707.004	22.97
707.408	23.42
707.813	23.85
708.217	24.29
708.621	24.74
709.025	25.18
709.43	25.6
709.834	26.06
710.237	26.48
710.641	26.93
711.045	27.37
711.449	27.83
711.853	28.28
712.256	28.71
712.66	29.13
713.064	29.55
713.467	29.97
713.87	30.42
714.274	30.82
714.677	31.26
715.08	31.68
715.484	32.1
715.887	32.51
716.29	32.91
716.693	33.34
717.096	33.75
717.499	34.18
717.901	34.6
718.304	35.01
718.707	35.41
719.109	35.79
719.512	36.16
719.915	36.55
720.317	36.91
720.719	37.25
721.122	37.6
721.524	37.94
721.926	38.3
722.328	38.62
722.731	38.93
723.133	39.26
723.535	39.57
723.937	39.9
724.338	40.21
724.74	40.52
725.142	40.97
725.544	41.24
725.945	41.57
726.347	41.8
726.748	42.06
727.15	42.32
727.551	42.6
727.952	42.86
728.354	43.11
728.755	43.31
729.156	43.53
729.557	43.6
729.958	43.83
730.359	43.98
730.76	44.23
731.161	44.44
731.562	44.63
731.962	44.79
732.363	44.98
732.763	45.15
733.164	45.33
733.564	45.51
733.965	45.67
734.365	45.83
734.766	46.01
735.166	46.14
735.566	46.29
735.966	46.46
736.366	46.61
736.766	46.73
737.166	46.89
737.566	47.01
737.966	47.13
738.365	47.25
738.765	47.37
739.165	47.46
739.564	47.58
739.964	47.67
740.363	47.73
740.763	47.8
741.162	47.88
741.561	47.94
741.96	48.02
742.36	48.11
742.759	48.19
743.158	48.25
743.557	48.32
743.955	48.39
744.354	48.45
744.753	48.54
745.152	48.64
745.55	48.71
745.949	48.77
746.348	48.83
746.746	48.87
747.144	48.94
747.543	48.98
747.941	49.02
748.339	49.04
748.737	49.07
749.136	49.08
749.534	49.09
749.932	49.11
750.33	49.12
750.727	49.12
751.125	49.16
751.523	49.16
751.921	49.21
752.318	49.24
752.716	49.28
753.113	49.3
753.511	49.36
753.908	49.41
754.305	49.45
754.703	49.48
755.1	49.53
755.497	49.55
755.894	49.58
756.291	49.59
756.688	49.62
757.085	49.63
757.482	49.68
757.878	49.68
758.275	49.68
758.672	49.7
759.068	49.74
759.465	49.75
759.861	49.77
760.258	49.82
760.654	49.84
761.05	49.87
761.447	49.92
761.843	49.91
762.239	49.92
762.635	49.94
763.031	49.97
763.427	49.95
763.822	49.99
764.218	50.01
764.614	50.01
765.01	49.99
765.405	49.99
765.801	49.95
766.196	49.97
766.592	49.97
766.987	49.98
767.382	49.98
767.778	50
768.173	49.98
768.568	49.97
768.963	49.96
769.358	50.01
769.753	50.01
770.148	50.04
770.542	50.05
770.937	50.08
771.332	50.08
771.726	50.08
772.121	50.11
772.515	50.13
772.91	50.13
773.304	50.17
773.699	50.15
774.093	50.19
774.487	50.18
774.881	50.2
775.275	50.21
775.669	50.19
776.063	50.21
776.457	50.18
776.851	50.16
777.245	50.16
777.638	50.12
778.032	50.12
778.425	50.14
778.819	50.14
779.212	50.14
779.606	50.16
779.999	50.18
780.392	50.21
780.786	50.22
781.179	50.27
781.572	50.32
781.965	50.34
782.358	50.37
782.751	50.34
783.143	50.33
783.536	50.3
783.929	50.3
784.322	50.32
784.714	50.32
785.107	50.34
785.499	50.33
785.891	50.32
786.284	50.33
786.676	50.34
787.068	50.37
787.46	50.41
787.852	50.45
788.245	50.44
788.636	50.43
789.028	50.45
789.42	50.45
789.812	50.44
790.204	50.45
790.595	50.46
790.987	50.46
791.378	50.47
791.77	50.45
792.161	50.44
792.553	50.45
792.944	50.44
793.335	50.42
793.726	50.42
794.117	50.43
794.508	50.41
794.899	50.42
795.29	50.41
795.681	50.35
796.072	50.37
796.463	50.44
796.853	50.46
797.244	50.48
797.634	50.48
798.025	50.49
798.415	50.48
798.806	50.51
799.196	50.53
799.586	50.55
799.976	50.57
800.366	50.56
800.756	50.5
801.146	50.51
801.536	50.5
801.926	50.48
802.316	50.48
802.706	50.52
803.095	50.51
803.485	50.49
803.874	50.48
804.264	50.51
804.653	50.55
805.043	50.55
805.432	50.54
805.821	50.58
806.21	50.62
806.599	50.62
806.988	50.63
807.377	50.59
807.766	50.59
808.155	50.58
808.544	50.58
808.933	50.55
809.321	50.54
809.71	50.52
810.098	50.5
810.487	50.49
810.875	50.5
811.264	50.47
811.652	50.52
812.04	50.53
812.428	50.58
812.816	50.56
813.204	50.53
813.592	50.51
813.98	50.54
814.368	50.55
814.756	50.53
815.144	50.52
815.531	50.51
815.919	50.46
816.306	50.44
816.694	50.42
817.081	50.42
817.469	50.45
817.856	50.44
818.243	50.42
818.63	50.39
819.017	50.4
819.404	50.37
819.791	50.37
820.178	50.38
820.565	50.39
820.952	50.38
821.339	50.38
821.725	50.34
822.112	50.37
822.498	50.4
822.885	50.42
823.271	50.41
823.657	50.42
824.044	50.44
824.43	50.45
824.816	50.46
825.202	50.46
825.588	50.46
825.974	50.46
826.36	50.45
826.746	50.43
827.132	50.39
827.517	50.39
827.903	50.43
828.289	50.44
828.674	50.44
829.06	50.41
829.445	50.38
829.83	50.37
830.216	50.36
830.601	50.37
830.986	50.36
831.371	50.33
831.756	50.33
832.141	50.31
832.526	50.3
832.911	50.28
833.295	50.29
833.68	50.33
834.065	50.32
834.449	50.32
834.834	50.29
835.218	50.31
835.603	50.34
835.987	50.31
836.371	50.28
836.755	50.25
837.139	50.23
837.524	50.23
837.908	50.22
838.291	50.24
838.675	50.25
839.059	50.26
839.443	50.22
839.827	50.2
840.21	50.22
840.594	50.24
840.977	50.25
841.361	50.27
841.744	50.23
842.127	50.21
842.511	50.17
842.894	50.16
843.277	50.17
843.66	50.16
844.043	50.18
844.426	50.16
844.809	50.15
845.191	50.16
845.574	50.16
845.957	50.18
846.339	50.19
846.722	50.21
847.104	50.23
847.487	50.21
847.869	50.23
848.252	50.23
848.634	50.25
849.016	50.25
849.398	50.26
849.78	50.26
850.162	50.28
850.544	50.28
850.926	50.27
851.307	50.26
851.689	50.28
852.071	50.28
852.452	50.29
852.834	50.28
853.215	50.26
853.597	50.27
853.978	50.26
854.359	50.26
854.741	50.25
855.122	50.25
855.503	50.25
855.884	50.22
856.265	50.21
856.646	50.19
857.026	50.22
857.407	50.24
857.788	50.22
858.169	50.24
858.549	50.22
858.93	50.24
859.31	50.27
859.69	50.29
860.071	50.33
860.451	50.34
860.831	50.35
861.211	50.32
861.591	50.32
861.971	50.32
862.351	50.32
862.731	50.32
863.111	50.31
863.491	50.29
863.87	50.28
864.25	50.24
864.629	50.23
865.009	50.22
865.388	50.22
865.768	50.23
866.147	50.24
866.526	50.23
866.905	50.24
867.284	50.25
867.663	50.27
868.042	50.27
868.421	50.3
868.8	50.3
869.179	50.32
869.558	50.33
869.936	50.32
870.315	50.32
870.693	50.36
871.072	50.36
871.45	50.36
871.828	50.33
872.207	50.35
872.585	50.35
872.963	50.38
873.341	50.37
873.719	50.39
874.097	50.4
874.475	50.42
874.853	50.38
875.23	50.41
875.608	50.4
875.986	50.45
876.363	50.45
876.741	50.44
877.118	50.45
877.495	50.46
877.873	50.42
878.25	50.46
878.627	50.46
879.004	50.46
879.381	50.44
879.758	50.42
880.135	50.42
880.512	50.41
880.889	50.41
881.265	50.37
881.642	50.36
882.019	50.37
882.395	50.31
882.772	50.29
883.148	50.27
883.524	50.26
883.901	50.25
884.277	50.2
884.653	50.16
885.029	50.14
885.405	50.14
885.781	50.12
886.157	50.11
886.532	50.13
886.908	50.11
887.284	50.09
887.659	50.06
888.035	50.03
888.411	50.04
888.786	50.05
889.161	50.03
889.537	50.02
889.912	50.02
890.287	50
890.662	49.97
891.037	49.97
891.412	49.96
891.787	49.97
892.162	49.98
892.536	49.98
892.911	49.98
893.286	49.99
893.66	49.99
894.035	49.99
894.409	49.98
894.784	50
895.158	50
895.532	50.02
895.906	50.03
896.281	50.03
896.655	50.03
897.029	50.05
897.402	50.06
897.776	50.08
898.15	50.1
898.524	50.17
898.898	50.16
899.271	50.18
899.645	50.22
900.018	50.24
900.392	50.27
900.765	50.3
901.138	50.29
901.511	50.3
901.884	50.3
902.258	50.3
902.631	50.29
903.003	50.31
903.376	50.32
903.749	50.29
904.122	50.32
904.495	50.34
904.867	50.35
905.24	50.4
905.612	50.41
905.985	50.43
906.357	50.44
906.729	50.45
907.102	50.48
907.474	50.52
907.846	50.56
908.218	50.57
908.59	50.57
908.962	50.59
909.334	50.59
909.705	50.58
910.077	50.58
910.449	50.6
910.82	50.62
911.192	50.62
911.563	50.58
911.935	50.54
912.306	50.54
912.677	50.56
913.048	50.58
913.419	50.58
913.79	50.59
914.161	50.6
914.532	50.59
914.903	50.58
915.274	50.57
915.645	50.61
916.015	50.65
916.386	50.65
916.756	50.64
917.127	50.65
917.497	50.63
917.868	50.65
918.238	50.67
918.608	50.69
918.978	50.73
919.348	50.75
919.718	50.73
920.088	50.73
920.458	50.72
920.828	50.72
921.198	50.71
921.567	50.72
921.937	50.74
922.306	50.73
922.676	50.74
923.045	50.7
923.415	50.7
923.784	50.7
924.153	50.69
924.522	50.72
924.891	50.72
925.26	50.72
925.629	50.71
925.998	50.68
926.367	50.68
926.736	50.66
927.104	50.7
927.473	50.68
927.842	50.66
928.21	50.69
928.578	50.67
928.947	50.7
929.315	50.67
929.683	50.69
930.051	50.72
930.42	50.73
930.788	50.71
931.156	50.66
931.523	50.69
931.891	50.79
932.259	50.81
932.627	50.88
932.994	50.91
933.362	50.94
933.729	51.01
934.097	51.06
934.464	51.14
934.831	51.2
935.199	51.27
935.566	51.36
935.933	51.33
936.3	51.35
936.667	51.36
937.034	51.47
937.401	51.55
937.767	51.58
938.134	51.61
938.501	51.62
938.867	51.7
939.234	51.72
939.6	51.72
939.967	51.78
940.333	51.8
940.699	51.82
941.065	51.71
941.431	51.67
941.798	51.69
942.163	51.63
942.529	51.6
942.895	51.51
943.261	51.48
943.627	51.4
943.992	51.39
944.358	51.38
944.723	51.33
945.089	51.3
945.454	51.31
945.82	51.26
946.185	51.26
946.55	51.21
946.915	51.16
947.28	51.13
947.645	51.13
948.01	51.07
948.375	51.01
948.74	51.01
949.104	50.99
949.469	50.93
949.834	50.82
950.198	50.79
950.562	50.73
950.927	50.72
951.291	50.66
951.655	50.58
952.02	50.51
952.384	50.4
952.748	50.32
953.112	50.27
953.476	50.17
953.839	50.16
954.203	50.17
954.567	50.16
954.931	50.12
955.294	50.1
955.658	50.17
956.021	50.2
956.385	50.15
956.748	50.13
957.111	50.07
957.474	50.09
957.837	50.08
958.2	50.01
958.563	49.98
958.926	49.95
959.289	49.97
959.652	49.88
960.015	49.85
960.377	49.9
960.74	49.96
961.102	50.02
961.465	50.08
961.827	50.15
962.189	50.2
962.552	50.19
962.914	50.21
963.276	50.18
963.638	50.17
964	50.17
964.362	50.21
964.724	50.19
965.085	50.18
965.447	50.1
965.809	50.07
966.17	50.07
966.532	50.08
966.893	50.13
967.255	50.15
967.616	50.17
967.977	50.2
968.338	50.18
968.699	50.18
969.061	50.17
969.421	50.23
969.782	50.27
970.143	50.26
970.504	50.28
970.865	50.29
971.225	50.32
971.586	50.36
971.946	50.35
972.307	50.32
972.667	50.28
973.027	50.27
973.388	50.25
973.748	50.22
974.108	50.31
974.468	50.27
974.828	50.34
975.188	50.32
975.548	50.35
975.907	50.41
976.267	50.43
976.627	50.48
976.986	50.52
977.346	50.55
977.705	50.55
978.064	50.54
978.424	50.62
978.783	50.5
979.142	50.53
979.501	50.52
979.86	50.52
980.219	50.56
980.578	50.61
980.937	50.64
981.296	50.58
981.654	50.59
982.013	50.56
982.371	50.55
982.73	50.62
983.088	50.6
983.447	50.62
983.805	50.72
984.163	50.71
984.521	50.71
984.879	50.69
985.237	50.79
985.595	50.9
985.953	50.97
986.311	50.97
986.669	51
987.026	51.09
987.384	51.21
987.741	51.12
988.099	51.24
988.456	51.32
988.814	51.38
989.171	51.41
989.528	51.38
989.885	51.35
990.242	51.46
990.599	51.56
990.956	51.64
991.313	51.66
991.67	51.72
992.027	51.88
992.383	51.93
992.74	51.99
993.096	52.09
993.453	52.14
993.809	52.19
994.165	52.28
994.522	52.36
994.878	52.38
995.234	52.32
995.59	52.31
995.946	52.25
996.302	52.32
996.658	52.39
997.013	52.36
997.369	52.44
997.725	52.55
998.08	52.58
998.436	52.57
998.791	52.6
999.147	52.69
999.502	52.88
999.857	52.98
1000.212	52.92
1000.567	52.96
1000.922	53.07
1001.277	53.18
1001.632	53.21
1001.987	53.25
1002.342	53.23
1002.696	53.31
1003.051	53.46
1003.406	53.62
1003.76	53.52
1004.114	53.67
1004.469	53.81
1004.823	54.14
1005.177	54.17
1005.531	54.33
1005.885	54.38
1006.239	54.54
1006.593	54.62
1006.947	54.79
1007.301	54.66
1007.655	54.71
1008.008	54.86
1008.362	55.09
1008.715	54.96
1009.069	55.06
1009.422	55.08
1009.776	55.2
1010.129	55.28
1010.482	55.29
1010.835	55.27
1011.188	55.34
1011.541	55.56
1011.894	55.68
1012.247	55.6
1012.6	55.79
1012.952	55.79
1013.305	55.99
1013.657	56.15
1014.01	56.32
1014.362	56.41
1014.715	56.68
1015.067	57.02
1015.419	57.24
1015.771	57.04
1016.123	57.23
1016.475	57.21
1016.827	57.51
1017.179	57.55
1017.531	57.53
1017.883	57.48
1018.234	57.84
1018.586	57.85
1018.938	58.08
1019.289	58.06
1019.64	58.54
1019.992	58.39
1020.343	58.49
1020.694	58.54
1021.045	58.72
1021.396	58.94
1021.747	59.33
1022.098	59.45
1022.449	59.48
1022.8	59.59
1023.151	59.93
1023.501	60.26
1023.852	60.48
1024.202	60.65
1024.553	60.78
1024.903	61.04
1025.253	61.34
1025.604	61.38
1025.954	61.34
1026.304	61.5
1026.654	61.48
1027.004	61.32
1027.354	61.05
1027.703	61.2
1028.053	61.45
1028.403	61.82
1028.753	61.52
1029.102	61.68
1029.452	61.84
1029.801	62.17
1030.15	62.24
1030.499	62.25
897.758	1802.94
901.051	1812.69
904.343	1801.94
907.636	1838.59
910.928	1789.91
914.22	1788.55
917.511	1764.28
920.803	1686.82
924.094	1681.75
927.384	1642.27
930.675	1572.4
933.965	1562.55
937.255	1472.74
940.544	1416.43
943.834	1341.45
947.123	1328.76
950.411	1251.03
953.7	1224.39
956.988	1158.18
960.276	1110.58
963.563	1093.97
966.851	1055.2
970.138	1045.78
973.424	1010.88
976.711	1019.03
979.997	969.65
983.283	965.11
986.568	944.31
989.853	912.78
993.138	898.18
996.423	862.88
999.708	837.79
1002.992	829.42
1006.275	790.1
1009.559	782.59
1012.842	752.26
1016.125	732.91
1019.408	719.85
1022.69	708.85
1025.972	697.44
1029.254	678.79
1032.536	667.05
1035.817	653.42
1039.098	644.53
1042.379	631.01
1045.659	623.8
1048.939	608.53
1052.219	596.92
1055.498	586.2
1058.778	574.81
1062.057	558.28
1065.335	552.93
1068.614	546.34
1071.892	540.47
1075.17	522.34
1078.447	512.96
1081.724	509.98
1085.001	505.68
1088.278	493.96
1091.554	484.52
1094.83	483.85
1098.106	482.29
1101.382	477.61
1104.657	474.33
1107.932	465.78
1111.206	469.88
1114.481	457.51
1117.755	452.77
1121.029	449.48
1124.302	449.84
1127.575	440.49
1130.848	435.09
1134.121	430.42
1137.393	428.64
1140.665	418.99
1143.937	417.36
1147.208	412.42
1150.48	412.83
1153.75	406.9
1157.021	400.38
1160.291	400.68
1163.561	397.12
1166.831	396.9
1170.101	393.43
1173.37	391.8
1176.639	392.84
1179.907	388.16
1183.176	384.69
1186.444	383.77
1189.711	384.16
1192.979	382.13
1196.246	379.15
1199.513	380.49
1202.78	378.06
1206.046	378.55
1209.312	375.07
1212.578	375.85
1215.843	379.48
1219.108	376.8
1222.373	385.43
1225.638	386.94
1228.902	394.44
1232.166	394.29
1235.43	397.96
1238.693	403.06
1241.956	405.25
1245.219	411.99
1248.482	411.62
1251.744	411.47
1255.006	412.97
1258.268	402.28
1261.529	398.76
1264.79	394.41
1268.051	392.2
1271.312	387.47
1274.572	382.86
1277.832	378.91
1281.092	372.03
1284.351	368.94
1287.61	369.1
1290.869	363.31
1294.128	360.88
1297.386	361.04
1300.644	357.85
1303.902	359.21
1307.159	356.41
1310.416	356.65
1313.673	356.67
1316.93	360.45
1320.186	360.69
1323.442	361.57
1326.697	368.35
1329.953	369.09
1333.208	370.55
1336.463	374.66
1339.717	375.25
1342.972	380.75
1346.226	382.81
1349.479	382.59
1352.733	385.41
1355.986	386.1
1359.238	385.71
1362.491	388.67
1365.743	392.75
1368.995	392.58
1372.247	390.72
1375.498	391.28
1378.749	394.45
1382	389.53
1385.251	392.3
1388.501	388.22
1391.751	391.91
1395	389.47
1398.25	385.62
1401.499	383.31
1404.748	382.77
1407.996	379.4
1411.244	377.03
1414.492	375.17
1417.74	372.99
1420.987	366.81
1424.234	367.86
1427.481	361.43
1430.728	362.35
1433.974	357.55
1437.22	354.89
1440.465	353.87
1443.711	352.14
1446.956	350.6
1450.201	344.76
1453.445	341.32
1456.689	340.37
1459.933	334.33
1463.177	332.57
1466.42	326.51
1469.663	323.1
1472.906	320.93
1476.148	312.57
1479.391	307.9
1482.633	304.18
1485.874	299.95
1489.115	298.25
1492.356	293.48
1495.597	293.34
1498.838	288.16
1502.078	286.17
1505.318	284.79
1508.557	284.46
1511.797	284.14
1515.036	282.99
1518.274	282.06
1521.513	279.38
1524.751	279.05
1527.989	278.59
1531.227	276.4
1534.464	277.56
1537.701	275.11
1540.938	274.39
1544.174	271.09
1547.41	270.55
1550.646	269.26
1553.882	269.35
1557.117	266.08
1560.352	264.06
1563.587	263.73
1566.821	261.94
1570.055	259.02
1573.289	257.2
1576.523	256.92
1579.756	254.61
1582.989	252.85
1586.222	252.93
1589.454	250.7
1592.686	252.68
1595.918	251.7
1599.15	250.57
1602.381	250.99
1605.612	250.75
1608.843	252.46
1612.073	251.81
1615.303	253.34
1618.533	254.13
1621.762	252.83
1624.992	253.13
1628.221	253.04
1631.449	252.62
1634.678	252.33
1637.906	253.08
1641.134	253.03
1644.361	252.15
1647.588	253.68
1650.815	252.58
1654.042	251.29
1657.269	252.7
1660.495	253.23
1663.72	251.08
1666.946	252.62
1670.171	252.75
1673.396	252.77
1676.621	252.69
1679.845	252.58
1683.069	251.84
1686.293	253.73
1689.517	255.04
1692.74	254.62
1695.963	255.91
1699.185	259.53
1702.408	258.96
1705.63	259.99
1708.852	260.85
1712.073	261.36
1715.294	262.19
1718.515	263.86
1721.736	263.37
1724.956	263.87
1728.176	264.16
1731.396	266.75
1734.616	265.1
1737.835	266.27
1741.054	264.77
1744.272	265.46
1747.491	268.77
1750.709	268.96
1753.927	268.63
1757.144	267.2
1760.361	269.26
1763.578	269.27
1766.795	268.1
1770.011	270.19
1773.227	270.54
1776.443	273.95
1779.658	275.31
1782.874	273.54
1786.089	275.24
1789.303	276.3
1792.518	280.32
1795.732	279.61
1798.945	283.57
1802.159	282.98
1805.372	284.69
1808.585	289.68
1811.797	290.49
1815.01	290.44
1818.222	293.28
1821.434	295.89
1824.645	296.84
1827.856	302.09
1831.067	305.17
1834.278	302.73
1837.488	305.67
1840.698	307.64
1843.908	304.3
1847.117	306.36
1850.326	308.48
1853.535	307.42
1856.744	312.12
1859.952	312
1863.16	310.22
1866.368	307.63
1869.575	313.22
1872.782	308.14
1875.989	307.32
1879.196	306.61
1882.402	304.99
1885.608	306.97
1888.814	308.62
1892.019	307.12
1895.224	306.75
1898.429	306.26
1901.634	309.14
1904.838	308.35
1908.042	313.87
1911.246	314.75
1914.449	317.22
1917.652	317.66
1920.855	316.75
1924.058	316.42
1927.26	315.34
1930.462	317.42
1933.664	320.33
1936.865	317.35
1940.066	318
1943.267	315.11
1946.467	315.34
1949.668	317.47
1952.868	321.05
1956.067	320.43
1959.267	321.23
1962.466	322.31
1965.665	320.36
1968.863	320.74
1972.061	324.95
1975.259	327.24
1978.457	330.05
1981.654	332.19
1984.852	333.09
1988.048	331.61
1991.245	335.48
1994.441	339.01
1997.637	341.17
2000.833	347.75
2004.028	352.07
2007.223	353.76
2010.418	357.98
2013.613	363.4
2016.807	367.49
2020.001	370.03
2023.194	375.63
2026.388	383.46
2029.581	391.8
2032.774	395.46
2035.966	402.36
2039.158	403.49
2042.35	412.14
2045.542	413.83
2048.733	420
2051.924	426.7
2055.115	433.45
2058.306	433.95
2061.496	439.59
2064.686	438.9
2067.875	446.82
2071.065	449.01
2074.254	446.82
2077.442	451.22
2080.631	454.06
2083.819	458.9
2087.007	458.63
2090.195	464.25
2093.382	468.16
2096.569	463.74
2099.756	472
2102.942	472.43
2106.128	477.52
2109.314	488.55
2112.5	486.82
2115.685	497.7
2118.87	498.49
2122.055	508.15
2125.239	512.41
2128.424	519.12
2131.608	523.68
2134.791	529.78
2137.974	532.32
2141.157	533.77
2144.34	534.5
2147.523	543.83
2150.705	538.6
2153.887	542.94
2157.068	544.1
2160.25	537.86
2163.431	539.99
2166.611	546.11
2169.792	556.52
2172.972	564.28
2176.152	565.83
2179.331	574.39
2182.511	584.18
2185.69	592.33
2188.868	604.81
2192.047	606.54
2195.225	624.71
2198.403	641.28
2201.58	652.45
2204.758	666.63
2207.935	679.12
2211.111	693.33
2214.288	701.32
2217.464	703
2220.64	711.18
2223.815	722.47
2226.991	751.18
2230.166	754.06
2233.34	768.05
2236.515	779.62
2239.689	779.73
2242.863	783.81
2246.036	807.63
2249.209	799.65
2252.382	812.18
2255.555	839.09
2258.727	840.76
2261.9	843.7
2265.071	852.08
2268.243	866.39
2271.414	877.08
2274.585	897.97
2277.756	906.71
2280.926	911.44
2284.096	934.41
2287.266	956.54
2290.436	962.33
2293.605	986.69
2296.774	1019.76
2299.942	1052.73
2303.111	1057.19
2306.279	1083.73
2309.447	1095.1
2312.614	1124.3
2315.781	1156.17
2318.948	1208.76
2322.115	1189
2325.281	1254.54
2328.447	1226.41
2331.613	1277.99
2334.779	1261.39
2337.944	1317.47
2341.109	1329.4
2344.274	1365.16
2347.438	1417
2350.602	1418.12
2353.766	1458.37
2356.929	1480.9
2360.092	1469.87
2363.255	1580.98
2366.418	1572.9
2369.58	1605.19
2372.742	1706.47
2375.904	1750.27
2379.066	1739.32
2382.227	1705.66
2385.388	1852.41
2388.548	1863.38
2391.709	1885.72
2394.869	2098.81
2398.029	2002.33
2401.188	2061.41
2404.347	2050.67
2407.506	2012.5
2410.665	2067.35
2413.823	2200.54
2416.981	2325.73
2420.139	2239.23
2423.296	2212.72
2426.453	2307.44
2429.61	2222.8
2432.767	2329.61
2435.923	2307.85
2439.079	2510.11
2442.235	2545.73
2445.391	2522.84
2448.546	2498.08
2451.701	2432.47
2454.855	2437.52
2458.009	2590.05
2461.163	2686.71
2464.317	2792.06
2467.471	2861.41
2470.624	2860.58
2473.777	2797.87
2476.929	2735.75
2480.082	2654.28
2483.234	2621.67
2486.385	2745.76
2489.537	2758.86
2492.688	2861.09
2495.839	2785.15
2498.989	2724.77
2502.14	2742.82
2505.29	2775.56
2508.439	2811.25
2511.589	2794.85
2514.738	3055.63
2517.887	2988.85
2521.035	3165.3
2524.183	3188.63
2527.331	3207.76
2530.479	3207.32
2533.627	3224.09
