Data from N_2_HIR_WI_4N_Splice17_13-34-01-551.txt Node
Date: Sat Mar 07 13:34:01 EST 2020
User: sa697716
Spectrometer: NQ5500242
Trigger mode: 0
Integration Time (sec): 1.450000E-1
Scans to average: 20
Nonlinearity correction enabled: false
Boxcar width: 5
Storing dark spectrum: false
XAxis mode: Wavelengths
Number of Pixels in Spectrum: 512
>>>>>Begin Spectral Data<<<<<
187.83	230.67
188.298	246.62
188.766	229.79
189.233	184.48
189.701	178.58
190.169	213.1
190.636	207.35
191.104	239.46
191.571	-125.24
192.039	-187.9
192.506	-420.19
192.974	116.69
193.441	138.6
193.908	36.79
194.375	26.39
194.842	-25.57
195.31	7.27
195.777	-204.3
196.244	59.13
196.711	77.36
197.177	83.5
197.644	84.94
198.111	85.59
198.578	86.32
199.045	87
199.511	86.55
199.978	86.31
200.445	86.56
200.911	86.77
201.378	87.02
201.844	87.15
202.31	86.69
202.777	86.68
203.243	86.32
203.709	85.59
204.176	84.9
204.642	84.39
205.108	83.89
205.574	83.05
206.04	82.19
206.506	81.52
206.972	80.7
207.438	80.02
207.903	78.63
208.369	76.85
208.835	75.16
209.301	73.21
209.766	71.1
210.232	69.18
210.697	67.36
211.163	65.47
211.628	63.72
212.094	61.9
212.559	60.34
213.024	58.67
213.49	57.48
213.955	56.39
214.42	55.11
214.885	53.65
215.35	51.51
215.815	48.66
216.28	45.2
216.745	41.36
217.21	37.6
217.675	34.03
218.14	31.04
218.604	28.32
219.069	26.04
219.534	24.17
219.998	22.64
220.463	21.43
220.927	20.33
221.392	19.45
221.856	18.7
222.32	18.08
222.785	17.54
223.249	17.04
223.713	16.62
224.177	16.21
224.642	15.81
225.106	15.44
225.57	15.05
226.034	14.75
226.497	14.48
226.961	14.21
227.425	13.95
227.889	13.66
228.353	13.41
228.816	13.14
229.28	12.92
229.744	12.7
230.207	12.49
230.671	12.28
231.134	12.08
231.597	11.9
232.061	11.71
232.524	11.54
232.987	11.4
233.45	11.26
233.914	11.11
234.377	10.97
234.84	10.83
235.303	10.7
235.766	10.58
236.229	10.47
236.691	10.34
237.154	10.22
237.617	10.12
238.08	10
238.542	9.88
239.005	9.78
239.468	9.68
239.93	9.58
240.393	9.49
240.855	9.38
241.317	9.28
241.78	9.17
242.242	9.06
242.704	8.98
243.166	8.89
243.629	8.81
244.091	8.73
244.553	8.63
245.015	8.55
245.477	8.46
245.939	8.38
246.4	8.31
246.862	8.24
247.324	8.17
247.786	8.09
248.247	8.01
248.709	7.91
249.17	7.83
249.632	7.77
250.093	7.7
250.555	7.63
251.016	7.57
251.477	7.51
251.939	7.45
252.4	7.39
252.861	7.33
253.322	7.28
253.783	7.24
254.244	7.2
254.705	7.14
255.166	7.09
255.627	7.04
256.088	7
256.549	6.94
257.009	6.89
257.47	6.84
257.931	6.77
258.391	6.7
258.852	6.65
259.312	6.6
259.773	6.54
260.233	6.5
260.694	6.44
261.154	6.39
261.614	6.35
262.074	6.3
262.534	6.26
262.994	6.23
263.455	6.19
263.915	6.15
264.374	6.11
264.834	6.08
265.294	6.04
265.754	6.02
266.214	5.99
266.673	5.96
267.133	5.93
267.593	5.91
268.052	5.89
268.512	5.87
268.971	5.85
269.431	5.83
269.89	5.8
270.349	5.78
270.809	5.76
271.268	5.74
271.727	5.72
272.186	5.71
272.645	5.69
273.104	5.66
273.563	5.65
274.022	5.63
274.481	5.61
274.94	5.6
275.399	5.58
275.857	5.57
276.316	5.55
276.775	5.54
277.233	5.52
277.692	5.5
278.15	5.49
278.609	5.47
279.067	5.46
279.525	5.45
279.984	5.43
280.442	5.41
280.9	5.41
281.358	5.39
281.816	5.39
282.274	5.38
282.732	5.37
283.19	5.35
283.648	5.34
284.106	5.32
284.564	5.3
285.021	5.29
285.479	5.28
285.937	5.26
286.394	5.24
286.852	5.22
287.309	5.2
287.767	5.17
288.224	5.16
288.682	5.14
289.139	5.12
289.596	5.1
290.053	5.07
290.511	5.04
290.968	5.02
291.425	4.99
291.882	4.97
292.339	4.94
292.796	4.93
293.252	4.9
293.709	4.88
294.166	4.86
294.623	4.84
295.079	4.82
295.536	4.81
295.992	4.8
296.449	4.78
296.905	4.77
297.362	4.75
297.818	4.73
298.274	4.72
298.731	4.7
299.187	4.69
299.643	4.68
300.099	4.67
300.555	4.66
301.011	4.65
301.467	4.64
301.923	4.63
302.379	4.62
302.835	4.62
303.291	4.62
303.746	4.61
304.202	4.61
304.658	4.6
305.113	4.59
305.569	4.58
306.024	4.58
306.479	4.57
306.935	4.56
307.39	4.56
307.845	4.55
308.301	4.56
308.756	4.56
309.211	4.54
309.666	4.55
310.121	4.54
310.576	4.54
311.031	4.54
311.486	4.54
311.94	4.54
312.395	4.54
312.85	4.54
313.305	4.53
313.759	4.53
314.214	4.52
314.668	4.51
315.123	4.5
315.577	4.5
316.032	4.48
316.486	4.46
316.94	4.46
317.394	4.44
317.849	4.42
318.303	4.4
318.757	4.38
319.211	4.37
319.665	4.34
320.119	4.31
320.572	4.3
321.026	4.28
321.48	4.27
321.934	4.24
322.387	4.22
322.841	4.22
323.295	4.21
323.748	4.19
324.202	4.19
324.655	4.18
325.108	4.19
325.562	4.18
326.015	4.18
326.468	4.18
326.921	4.18
327.374	4.19
327.827	4.18
328.28	4.18
328.733	4.18
329.186	4.18
329.639	4.18
330.092	4.17
330.545	4.16
330.997	4.16
331.45	4.16
331.903	4.16
332.355	4.17
332.808	4.17
333.26	4.17
333.713	4.17
334.165	4.16
334.617	4.16
335.069	4.16
335.522	4.17
335.974	4.18
336.426	4.17
336.878	4.16
337.33	4.15
337.782	4.14
338.234	4.15
338.686	4.14
339.137	4.14
339.589	4.13
340.041	4.12
340.493	4.1
340.944	4.08
341.396	4.07
341.847	4.06
342.299	4.05
342.75	4.02
343.201	4
343.653	3.98
344.104	3.96
344.555	3.94
345.006	3.93
345.457	3.92
345.908	3.9
346.359	3.9
346.81	3.88
347.261	3.87
347.712	3.87
348.163	3.86
348.613	3.86
349.064	3.86
349.515	3.85
349.965	3.85
350.416	3.84
350.866	3.84
351.317	3.82
351.767	3.83
352.217	3.83
352.668	3.82
353.118	3.82
353.568	3.81
354.018	3.8
354.468	3.81
354.918	3.8
355.368	3.81
355.818	3.8
356.268	3.81
356.718	3.81
357.168	3.8
357.617	3.8
358.067	3.79
358.517	3.8
358.966	3.8
359.416	3.79
359.865	3.79
360.315	3.79
360.764	3.78
361.213	3.78
361.663	3.77
362.112	3.78
362.561	3.78
363.01	3.78
363.459	3.76
363.908	3.76
364.357	3.76
364.806	3.74
365.255	3.74
365.703	3.75
366.152	3.75
366.601	3.75
367.05	3.75
367.498	3.74
367.947	3.73
368.395	3.73
368.844	3.73
369.292	3.73
369.74	3.73
370.189	3.72
370.637	3.71
371.085	3.69
371.533	3.68
371.981	3.68
372.429	3.67
372.877	3.66
373.325	3.65
373.773	3.65
374.221	3.64
374.669	3.63
375.116	3.62
375.564	3.61
376.012	3.61
376.459	3.6
376.907	3.59
377.354	3.6
377.801	3.61
378.249	3.61
378.696	3.6
379.143	3.59
379.591	3.59
380.038	3.6
380.485	3.6
380.932	3.6
381.379	3.6
381.826	3.59
382.273	3.58
382.72	3.56
383.166	3.55
383.613	3.54
384.06	3.53
384.506	3.52
384.953	3.52
385.4	3.51
385.846	3.51
386.292	3.5
386.739	3.49
387.185	3.48
387.631	3.47
388.078	3.47
388.524	3.47
388.97	3.46
389.416	3.47
389.862	3.47
390.308	3.47
390.754	3.48
391.2	3.49
391.645	3.5
392.091	3.51
392.537	3.53
392.983	3.53
393.428	3.54
393.874	3.54
394.319	3.54
394.765	3.54
395.21	3.53
395.655	3.53
396.101	3.55
396.546	3.56
396.991	3.57
397.436	3.58
397.881	3.6
398.326	3.61
398.771	3.63
399.216	3.65
399.661	3.67
400.106	3.69
400.551	3.7
400.995	3.7
401.44	3.69
401.885	3.7
402.329	3.71
402.774	3.72
403.218	3.75
403.663	3.76
404.107	3.77
404.551	3.78
404.995	3.79
405.44	3.8
405.884	3.81
406.328	3.85
406.772	3.85
407.216	3.86
407.66	3.88
408.104	3.87
408.547	3.88
408.991	3.9
409.435	3.92
409.879	3.94
410.322	3.97
410.766	4
411.209	4.02
411.653	4.06
412.096	4.08
412.54	4.11
412.983	4.13
413.426	4.17
413.869	4.2
414.312	4.23
414.756	4.26
415.199	4.27
415.642	4.29
416.085	4.31
416.527	4.3
416.97	4.3
417.413	4.3
417.856	4.3
418.298	4.29
418.741	4.29
419.184	4.29
419.626	4.28
420.069	4.29
420.511	4.31
420.953	4.32
421.396	4.34
421.838	4.36
422.28	4.39
422.722	4.42
423.164	4.44
423.606	4.45
424.048	4.45
424.49	4.47
424.932	4.47
425.374	4.44
425.816	4.42
426.258	4.41
426.699	4.39
427.141	4.39
427.582	4.38
428.024	4.39
428.465	4.4
428.907	4.41
429.348	4.4
429.789	4.41
430.231	4.46
430.672	4.49
431.113	4.52
431.554	4.55
431.995	4.57
432.436	4.59
432.877	4.61
433.318	4.64
433.759	4.67
434.2	4.71
434.64	4.74
435.081	4.74
435.522	4.76
435.962	4.77
436.403	4.8
436.843	4.81
437.284	4.81
437.724	4.81
438.164	4.78
438.604	4.79
439.045	4.79
439.485	4.78
439.925	4.78
440.365	4.8
440.805	4.81
441.245	4.83
441.685	4.85
442.125	4.88
442.564	4.9
443.004	4.93
443.444	4.94
443.883	4.96
444.323	4.98
444.762	5.01
445.202	5.02
445.641	5.04
446.081	5.03
446.52	5.03
446.959	5.05
447.398	5.06
447.837	5.07
448.276	5.09
448.716	5.11
449.154	5.12
449.593	5.13
450.032	5.13
450.471	5.12
450.91	5.12
451.349	5.13
451.787	5.12
452.226	5.11
452.664	5.1
453.103	5.07
453.541	5.05
453.98	5.05
454.418	5.02
454.856	5.01
455.295	5
455.733	4.97
456.171	4.95
456.609	4.95
457.047	4.93
457.485	4.92
457.923	4.91
458.361	4.91
458.798	4.9
459.236	4.9
459.674	4.9
460.111	4.89
460.549	4.91
460.987	4.92
461.424	4.92
461.862	4.93
462.299	4.94
462.736	4.94
463.173	4.95
463.611	4.95
464.048	4.95
464.485	4.95
464.922	4.97
465.359	4.97
465.796	4.99
466.233	4.99
466.67	5
467.106	5.01
467.543	5
467.98	5
468.416	5
468.853	4.99
469.29	4.99
469.726	4.98
470.162	4.97
470.599	4.95
471.035	4.94
471.471	4.92
471.907	4.9
472.344	4.91
472.78	4.91
473.216	4.9
473.652	4.9
474.088	4.88
474.523	4.87
474.959	4.85
475.395	4.84
475.831	4.83
476.266	4.84
476.702	4.82
477.138	4.8
477.573	4.79
478.008	4.78
478.444	4.77
478.879	4.78
479.314	4.76
479.75	4.76
480.185	4.73
480.62	4.72
481.055	4.7
481.49	4.7
481.925	4.69
482.36	4.68
482.795	4.66
483.229	4.65
483.664	4.64
484.099	4.64
484.534	4.64
484.968	4.64
485.403	4.64
485.837	4.64
486.271	4.65
486.706	4.66
487.14	4.67
487.574	4.69
488.009	4.71
488.443	4.72
488.877	4.74
489.311	4.76
489.745	4.79
490.179	4.83
490.613	4.87
491.046	4.9
491.48	4.93
491.914	4.96
492.348	4.99
492.781	5.04
493.215	5.08
493.648	5.12
494.082	5.18
494.515	5.23
494.948	5.27
495.382	5.31
495.815	5.38
496.248	5.45
496.681	5.51
497.114	5.59
497.547	5.65
497.98	5.73
498.413	5.81
498.846	5.88
499.279	5.97
499.711	6.05
500.144	6.16
500.577	6.24
501.009	6.34
501.442	6.45
501.874	6.57
502.306	6.69
502.739	6.82
503.171	6.95
503.603	7.08
504.036	7.22
504.468	7.36
504.9	7.51
505.332	7.67
505.764	7.82
506.196	7.99
506.627	8.16
507.059	8.32
507.491	8.48
507.923	8.67
508.354	8.86
508.786	9.05
509.217	9.26
509.649	9.46
510.08	9.67
510.512	9.89
510.943	10.11
511.374	10.33
511.805	10.56
512.237	10.79
512.668	11.02
513.099	11.25
513.53	11.49
513.961	11.73
514.391	11.97
514.822	12.21
515.253	12.44
515.684	12.69
516.114	12.93
516.545	13.18
516.975	13.43
517.406	13.68
517.836	13.93
518.267	14.18
518.697	14.41
519.127	14.65
519.558	14.89
519.988	15.14
520.418	15.38
520.848	15.61
521.278	15.83
521.708	16.22
522.138	16.43
522.567	16.65
522.997	16.86
523.427	17.06
523.857	17.26
524.286	17.44
524.716	17.61
525.145	17.8
525.575	17.97
526.004	18.15
526.433	18.15
526.863	18.31
527.292	18.46
527.721	18.61
528.15	18.76
528.579	18.9
529.008	19.04
529.437	19.17
529.866	19.28
530.295	19.39
530.724	19.51
531.152	19.62
531.581	19.73
532.01	19.81
532.438	19.9
532.867	19.98
533.295	20.07
533.723	20.14
534.152	20.21
534.58	20.29
535.008	20.35
535.436	20.41
535.865	20.46
536.293	20.5
536.721	20.55
537.149	20.59
537.576	20.62
538.004	20.66
538.432	20.69
538.86	20.72
539.287	20.74
539.715	20.79
540.143	20.81
540.57	20.85
540.998	20.88
541.425	20.9
541.852	20.93
542.28	20.97
542.707	20.99
543.134	21.03
543.561	21.07
543.988	21.1
544.415	21.1
544.842	21.13
545.269	21.16
545.696	21.18
546.123	21.2
546.549	21.22
546.976	21.25
547.403	21.28
547.829	21.28
548.256	21.29
548.682	21.3
549.108	21.33
549.535	21.35
549.961	21.34
550.387	21.34
550.813	21.36
551.24	21.36
551.666	21.37
552.092	21.35
552.518	21.36
552.943	21.35
553.369	21.34
553.795	21.31
554.221	21.29
554.646	21.27
555.072	21.24
555.498	21.2
555.923	21.15
556.349	21.08
556.774	21.04
557.199	20.98
557.625	20.92
558.05	20.86
558.475	20.8
558.9	20.73
559.325	20.67
559.75	20.6
560.175	20.53
560.6	20.45
561.025	20.38
561.449	20.3
561.874	20.21
562.299	20.12
562.723	20.03
563.148	19.93
563.572	19.81
563.997	19.71
564.421	19.59
564.846	19.48
565.27	19.36
565.694	19.25
566.118	19.13
566.542	19.02
566.966	18.89
567.39	18.77
567.814	18.65
568.238	18.52
568.662	18.4
569.086	18.29
569.509	18.17
569.933	18.05
570.357	17.93
570.78	17.81
571.204	17.69
571.627	17.57
572.05	17.45
572.474	17.35
572.897	17.25
573.32	17.14
573.743	17.03
574.166	16.94
574.589	16.84
575.012	16.75
575.435	16.66
575.858	16.57
576.281	16.48
576.704	16.4
577.126	16.31
577.549	16.23
577.972	16.16
578.394	16.07
578.817	15.98
579.239	15.91
579.661	15.84
580.084	15.78
580.506	15.71
580.928	15.65
581.35	15.57
581.772	15.5
582.194	15.44
582.616	15.37
583.038	15.31
583.46	15.25
583.882	15.19
584.303	15.11
584.725	15.05
585.147	15
585.568	14.95
585.99	14.9
586.411	14.85
586.833	14.8
587.254	14.75
587.675	14.7
588.096	14.66
588.518	14.62
588.939	14.6
589.36	14.55
589.781	14.51
590.202	14.47
590.623	14.43
591.043	14.4
591.464	14.38
591.885	14.34
592.305	14.3
592.726	14.27
593.147	14.24
593.567	14.21
593.987	14.17
594.408	14.14
594.828	14.1
595.248	14.07
595.669	14.05
596.089	14
596.509	13.97
596.929	13.94
597.349	13.91
597.769	13.87
598.189	13.83
598.608	13.8
599.028	13.76
599.448	13.72
599.867	13.69
600.287	13.65
600.706	13.61
601.126	13.56
601.545	13.52
601.965	13.49
602.384	13.44
602.803	13.39
603.222	13.34
603.641	13.28
604.061	13.24
604.48	13.17
604.898	13.11
605.317	13.06
605.736	13.01
606.155	12.96
606.574	12.89
606.992	12.83
607.411	12.77
607.829	12.68
608.248	12.62
608.666	12.55
609.085	12.5
609.503	12.45
609.921	12.37
610.339	12.31
610.758	12.24
611.176	12.18
611.594	12.12
612.012	12.05
612.43	12.01
612.847	11.95
613.265	11.88
613.683	11.82
614.101	11.76
614.518	11.69
614.936	11.63
615.353	11.55
615.771	11.49
616.188	11.43
616.606	11.38
617.023	11.34
617.44	11.31
617.857	11.26
618.274	11.21
618.691	11.16
619.108	11.11
619.525	11.07
619.942	11.04
620.359	11.02
620.776	10.99
621.192	10.95
621.609	10.92
622.026	10.88
622.442	10.86
622.859	10.84
623.275	10.82
623.691	10.81
624.108	10.79
624.524	10.77
624.94	10.75
625.356	10.74
625.772	10.72
626.188	10.72
626.604	10.72
627.02	10.71
627.436	10.7
627.852	10.69
628.268	10.67
628.683	10.66
629.099	10.66
629.514	10.65
629.93	10.64
630.345	10.63
630.761	10.6
631.176	10.56
631.591	10.54
632.007	10.51
632.422	10.48
632.837	10.45
633.252	10.4
633.667	10.35
634.082	10.28
634.497	10.23
634.911	10.17
635.326	10.1
635.741	10.04
636.155	9.96
636.57	9.89
636.984	9.81
637.399	9.73
637.813	9.64
638.228	9.56
638.642	9.46
639.056	9.36
639.47	9.27
639.884	9.17
640.298	9.06
640.712	8.96
641.126	8.86
641.54	8.76
641.954	8.65
642.368	8.55
642.781	8.46
643.195	8.36
643.609	8.27
644.022	8.17
644.436	8.09
644.849	7.99
645.262	7.91
645.676	7.82
646.089	7.75
646.502	7.68
646.915	7.62
647.328	7.56
647.741	7.51
648.154	7.45
648.567	7.41
648.98	7.36
649.393	7.32
649.805	7.29
650.218	7.26
650.631	7.23
651.043	7.19
651.456	7.15
651.868	7.1
652.28	7.06
652.693	7.02
653.105	6.98
653.517	6.92
653.929	6.88
654.341	6.82
654.753	6.77
655.165	6.71
655.577	6.65
655.989	6.6
656.401	6.54
656.813	6.48
657.224	6.41
657.636	6.33
658.047	6.27
658.459	6.2
658.87	6.12
659.282	6.04
659.693	5.96
660.104	5.88
660.515	5.8
660.926	5.72
661.338	5.64
661.749	5.56
662.159	5.49
662.57	5.42
662.981	5.36
663.392	5.3
663.803	5.24
664.213	5.19
664.624	5.14
665.035	5.1
665.445	5.05
665.855	5.02
666.266	4.98
666.676	4.96
667.086	4.92
667.497	4.89
667.907	4.86
668.317	4.84
668.727	4.81
669.137	4.79
669.547	4.77
669.956	4.76
670.366	4.75
670.776	4.73
671.186	4.72
671.595	4.71
672.005	4.71
672.414	4.71
672.824	4.72
673.233	4.73
673.642	4.74
674.052	4.74
674.461	4.75
674.87	4.76
675.279	4.79
675.688	4.81
676.097	4.84
676.506	4.86
676.915	4.88
677.323	4.91
677.732	4.92
678.141	4.96
678.549	4.99
678.958	5.04
679.366	5.08
679.775	5.12
680.183	5.17
680.592	5.24
681	5.31
681.408	5.39
681.816	5.48
682.224	5.58
682.632	5.69
683.04	5.8
683.448	5.94
683.856	6.09
684.264	6.25
684.671	6.41
685.079	6.59
685.487	6.8
685.894	7.04
686.302	7.29
686.709	7.54
687.116	7.83
687.524	8.14
687.931	8.47
688.338	8.8
688.745	9.17
689.152	9.56
689.559	9.96
689.966	10.37
690.373	10.79
690.78	11.23
691.187	11.68
691.593	12.15
692	12.61
692.407	13.07
692.813	13.56
693.22	14.03
693.626	14.5
694.032	14.97
694.439	15.45
694.845	15.93
695.251	16.42
695.657	16.89
696.063	17.36
696.469	17.83
696.875	18.3
697.281	18.76
697.687	19.22
698.093	19.69
698.498	20.13
698.904	20.57
699.31	20.99
699.715	21.42
700.12	21.82
700.526	22.23
700.931	22.62
701.337	23.01
701.742	23.38
702.147	23.73
702.552	24.08
702.957	24.43
703.362	24.77
703.767	25.1
704.172	25.41
704.577	25.75
704.981	26.07
705.386	26.38
705.791	26.69
706.195	27
706.6	27.32
707.004	27.61
707.408	27.91
707.813	28.2
708.217	28.46
708.621	28.74
709.025	28.99
709.43	29.23
709.834	29.48
710.237	29.73
710.641	29.96
711.045	30.18
711.449	30.42
711.853	30.66
712.256	30.88
712.66	31.11
713.064	31.31
713.467	31.55
713.87	31.78
714.274	31.99
714.677	32.21
715.08	32.4
715.484	32.62
715.887	32.81
716.29	33
716.693	33.19
717.096	33.38
717.499	33.57
717.901	33.73
718.304	33.87
718.707	34.05
719.109	34.21
719.512	34.37
719.915	34.51
720.317	34.65
720.719	34.77
721.122	34.91
721.524	35.05
721.926	35.19
722.328	35.32
722.731	35.47
723.133	35.57
723.535	35.67
723.937	35.79
724.338	35.9
724.74	36.01
725.142	36.22
725.544	36.3
725.945	36.41
726.347	36.5
726.748	36.58
727.15	36.66
727.551	36.76
727.952	36.84
728.354	36.93
728.755	37
729.156	37.08
729.557	37.05
729.958	37.11
730.359	37.17
730.76	37.23
731.161	37.3
731.562	37.37
731.962	37.41
732.363	37.48
732.763	37.54
733.164	37.61
733.564	37.67
733.965	37.74
734.365	37.8
734.766	37.85
735.166	37.91
735.566	37.94
735.966	37.98
736.366	38
736.766	38.02
737.166	38.05
737.566	38.07
737.966	38.09
738.365	38.1
738.765	38.14
739.165	38.17
739.564	38.2
739.964	38.24
740.363	38.25
740.763	38.29
741.162	38.33
741.561	38.31
741.96	38.34
742.36	38.35
742.759	38.39
743.158	38.41
743.557	38.42
743.955	38.42
744.354	38.43
744.753	38.48
745.152	38.52
745.55	38.53
745.949	38.58
746.348	38.6
746.746	38.6
747.144	38.59
747.543	38.56
747.941	38.57
748.339	38.57
748.737	38.57
749.136	38.55
749.534	38.53
749.932	38.5
750.33	38.5
750.727	38.49
751.125	38.49
751.523	38.5
751.921	38.54
752.318	38.54
752.716	38.56
753.113	38.55
753.511	38.56
753.908	38.6
754.305	38.65
754.703	38.65
755.1	38.66
755.497	38.69
755.894	38.69
756.291	38.69
756.688	38.68
757.085	38.68
757.482	38.69
757.878	38.7
758.275	38.67
758.672	38.64
759.068	38.66
759.465	38.66
759.861	38.66
760.258	38.68
760.654	38.68
761.05	38.7
761.447	38.7
761.843	38.7
762.239	38.71
762.635	38.71
763.031	38.72
763.427	38.71
763.822	38.71
764.218	38.7
764.614	38.68
765.01	38.67
765.405	38.66
765.801	38.66
766.196	38.64
766.592	38.61
766.987	38.63
767.382	38.65
767.778	38.64
768.173	38.64
768.568	38.65
768.963	38.64
769.358	38.65
769.753	38.65
770.148	38.67
770.542	38.7
770.937	38.74
771.332	38.73
771.726	38.72
772.121	38.73
772.515	38.73
772.91	38.7
773.304	38.71
773.699	38.71
774.093	38.71
774.487	38.7
774.881	38.72
775.275	38.7
775.669	38.7
776.063	38.66
776.457	38.65
776.851	38.64
777.245	38.62
777.638	38.64
778.032	38.65
778.425	38.66
778.819	38.65
779.212	38.62
779.606	38.62
779.999	38.63
780.392	38.66
780.786	38.67
781.179	38.69
781.572	38.75
781.965	38.73
782.358	38.73
782.751	38.73
783.143	38.76
783.536	38.75
783.929	38.74
784.322	38.73
784.714	38.73
785.107	38.74
785.499	38.75
785.891	38.73
786.284	38.72
786.676	38.73
787.068	38.7
787.46	38.69
787.852	38.69
788.245	38.69
788.636	38.7
789.028	38.7
789.42	38.67
789.812	38.67
790.204	38.68
790.595	38.69
790.987	38.69
791.378	38.7
791.77	38.69
792.161	38.7
792.553	38.71
792.944	38.74
793.335	38.75
793.726	38.76
794.117	38.75
794.508	38.73
794.899	38.73
795.29	38.71
795.681	38.69
796.072	38.7
796.463	38.72
796.853	38.73
797.244	38.68
797.634	38.68
798.025	38.73
798.415	38.73
798.806	38.75
799.196	38.74
799.586	38.77
799.976	38.81
800.366	38.79
800.756	38.79
801.146	38.8
801.536	38.81
801.926	38.78
802.316	38.74
802.706	38.76
803.095	38.74
803.485	38.75
803.874	38.74
804.264	38.72
804.653	38.7
805.043	38.69
805.432	38.68
805.821	38.67
806.21	38.71
806.599	38.71
806.988	38.7
807.377	38.71
807.766	38.71
808.155	38.69
808.544	38.69
808.933	38.7
809.321	38.69
809.71	38.66
810.098	38.66
810.487	38.64
810.875	38.62
811.264	38.61
811.652	38.62
812.04	38.6
812.428	38.6
812.816	38.6
813.204	38.61
813.592	38.59
813.98	38.61
814.368	38.6
814.756	38.59
815.144	38.59
815.531	38.58
815.919	38.55
816.306	38.56
816.694	38.54
817.081	38.56
817.469	38.56
817.856	38.56
818.243	38.53
818.63	38.52
819.017	38.52
819.404	38.51
819.791	38.5
820.178	38.5
820.565	38.49
820.952	38.5
821.339	38.47
821.725	38.45
822.112	38.45
822.498	38.45
822.885	38.46
823.271	38.46
823.657	38.43
824.044	38.44
824.43	38.44
824.816	38.44
825.202	38.42
825.588	38.42
825.974	38.41
826.36	38.4
826.746	38.4
827.132	38.38
827.517	38.39
827.903	38.39
828.289	38.39
828.674	38.36
829.06	38.34
829.445	38.34
829.83	38.33
830.216	38.31
830.601	38.32
830.986	38.32
831.371	38.33
831.756	38.32
832.141	38.31
832.526	38.3
832.911	38.29
833.295	38.29
833.68	38.31
834.065	38.29
834.449	38.27
834.834	38.25
835.218	38.21
835.603	38.22
835.987	38.2
836.371	38.2
836.755	38.18
837.139	38.17
837.524	38.17
837.908	38.15
838.291	38.17
838.675	38.18
839.059	38.18
839.443	38.19
839.827	38.15
840.21	38.14
840.594	38.13
840.977	38.14
841.361	38.15
841.744	38.12
842.127	38.1
842.511	38.08
842.894	38.07
843.277	38.04
843.66	38.03
844.043	38.05
844.426	38.06
844.809	38.05
845.191	38.06
845.574	38.04
845.957	38.05
846.339	38.05
846.722	38.05
847.104	38.08
847.487	38.06
847.869	38.05
848.252	38.04
848.634	38.05
849.016	38.06
849.398	38.06
849.78	38.05
850.162	38.04
850.544	38.02
850.926	38.01
851.307	38
851.689	38.02
852.071	38.02
852.452	38.03
852.834	38
853.215	37.98
853.597	37.98
853.978	37.97
854.359	37.99
854.741	37.98
855.122	37.98
855.503	37.97
855.884	37.94
856.265	37.95
856.646	37.93
857.026	37.95
857.407	37.96
857.788	37.95
858.169	37.97
858.549	37.94
858.93	37.94
859.31	37.96
859.69	37.96
860.071	37.99
860.451	37.98
860.831	37.98
861.211	37.94
861.591	37.93
861.971	37.94
862.351	37.93
862.731	37.94
863.111	37.95
863.491	37.94
863.87	37.92
864.25	37.92
864.629	37.92
865.009	37.93
865.388	37.95
865.768	37.96
866.147	37.96
866.526	37.95
866.905	37.96
867.284	37.98
867.663	37.96
868.042	37.96
868.421	37.97
868.8	37.97
869.179	37.97
869.558	37.96
869.936	37.96
870.315	37.96
870.693	37.97
871.072	37.98
871.45	37.97
871.828	37.99
872.207	38.02
872.585	38
872.963	38
873.341	38.01
873.719	38.01
874.097	38.02
874.475	38.03
874.853	38.02
875.23	38.04
875.608	38.05
875.986	38.06
876.363	38.04
876.741	38.06
877.118	38.05
877.495	38.05
877.873	38.05
878.25	38.06
878.627	38.06
879.004	38.08
879.381	38.04
879.758	38.02
880.135	37.99
880.512	37.99
880.889	37.98
881.265	37.98
881.642	37.97
882.019	37.97
882.395	37.96
882.772	37.94
883.148	37.92
883.524	37.93
883.901	37.94
884.277	37.94
884.653	37.94
885.029	37.93
885.405	37.93
885.781	37.93
886.157	37.91
886.532	37.9
886.908	37.89
887.284	37.88
887.659	37.85
888.035	37.82
888.411	37.79
888.786	37.77
889.161	37.76
889.537	37.75
889.912	37.72
890.287	37.71
890.662	37.7
891.037	37.69
891.412	37.67
891.787	37.66
892.162	37.65
892.536	37.65
892.911	37.65
893.286	37.65
893.66	37.65
894.035	37.64
894.409	37.65
894.784	37.64
895.158	37.64
895.532	37.66
895.906	37.67
896.281	37.67
896.655	37.67
897.029	37.68
897.402	37.69
897.776	37.69
898.15	37.7
898.524	37.72
898.898	37.72
899.271	37.73
899.645	37.73
900.018	37.75
900.392	37.77
900.765	37.79
901.138	37.79
901.511	37.8
901.884	37.84
902.258	37.84
902.631	37.85
903.003	37.89
903.376	37.89
903.749	37.89
904.122	37.89
904.495	37.91
904.867	37.95
905.24	37.97
905.612	37.97
905.985	37.96
906.357	37.96
906.729	37.97
907.102	37.97
907.474	37.98
907.846	38
908.218	38
908.59	38
908.962	37.96
909.334	37.96
909.705	37.96
910.077	37.94
910.449	37.95
910.82	37.98
911.192	37.98
911.563	37.96
911.935	37.97
912.306	37.96
912.677	37.99
913.048	38.03
913.419	38.02
913.79	38
914.161	38.03
914.532	38.03
914.903	38
915.274	38
915.645	38.02
916.015	38.03
916.386	38.05
916.756	38.04
917.127	38.05
917.497	38.04
917.868	38.08
918.238	38.08
918.608	38.1
918.978	38.11
919.348	38.11
919.718	38.13
920.088	38.12
920.458	38.12
920.828	38.13
921.198	38.12
921.567	38.17
921.937	38.17
922.306	38.15
922.676	38.16
923.045	38.18
923.415	38.17
923.784	38.17
924.153	38.19
924.522	38.21
924.891	38.19
925.26	38.17
925.629	38.15
925.998	38.14
926.367	38.16
926.736	38.15
927.104	38.16
927.473	38.16
927.842	38.15
928.21	38.16
928.578	38.16
928.947	38.19
929.315	38.22
929.683	38.23
930.051	38.24
930.42	38.26
930.788	38.26
931.156	38.24
931.523	38.29
931.891	38.36
932.259	38.38
932.627	38.4
932.994	38.44
933.362	38.44
933.729	38.47
934.097	38.54
934.464	38.57
934.831	38.59
935.199	38.67
935.566	38.68
935.933	38.61
936.3	38.65
936.667	38.68
937.034	38.72
937.401	38.79
937.767	38.86
938.134	38.87
938.501	38.92
938.867	39.02
939.234	39.01
939.6	39.05
939.967	39.14
940.333	39.16
940.699	39.19
941.065	39.18
941.431	39.17
941.798	39.14
942.163	39.15
942.529	39.14
942.895	39.1
943.261	39.07
943.627	39.05
943.992	39.06
944.358	39.03
944.723	39.01
945.089	38.95
945.454	38.99
945.82	38.96
946.185	38.95
946.55	38.91
946.915	38.89
947.28	38.87
947.645	38.87
948.01	38.84
948.375	38.83
948.74	38.81
949.104	38.86
949.469	38.84
949.834	38.81
950.198	38.8
950.562	38.73
950.927	38.68
951.291	38.62
951.655	38.59
952.02	38.57
952.384	38.53
952.748	38.46
953.112	38.41
953.476	38.31
953.839	38.31
954.203	38.25
954.567	38.27
954.931	38.28
955.294	38.33
955.658	38.32
956.021	38.28
956.385	38.24
956.748	38.23
957.111	38.21
957.474	38.24
957.837	38.15
958.2	38.14
958.563	38.08
958.926	38.08
959.289	38.04
959.652	38.03
960.015	38.03
960.377	38.04
960.74	38.04
961.102	38.04
961.465	38.06
961.827	38.14
962.189	38.18
962.552	38.2
962.914	38.14
963.276	38.22
963.638	38.21
964	38.23
964.362	38.24
964.724	38.23
965.085	38.22
965.447	38.17
965.809	38.12
966.17	38.09
966.532	38.09
966.893	38.17
967.255	38.11
967.616	38.12
967.977	38.16
968.338	38.18
968.699	38.21
969.061	38.23
969.421	38.3
969.782	38.35
970.143	38.34
970.504	38.38
970.865	38.36
971.225	38.38
971.586	38.4
971.946	38.36
972.307	38.33
972.667	38.28
973.027	38.31
973.388	38.28
973.748	38.28
974.108	38.41
974.468	38.4
974.828	38.5
975.188	38.5
975.548	38.48
975.907	38.54
976.267	38.62
976.627	38.68
976.986	38.68
977.346	38.68
977.705	38.72
978.064	38.71
978.424	38.81
978.783	38.74
979.142	38.73
979.501	38.72
979.86	38.74
980.219	38.74
980.578	38.8
980.937	38.89
981.296	38.93
981.654	38.96
982.013	38.93
982.371	38.88
982.73	38.94
983.088	39
983.447	39.07
983.805	39.11
984.163	39.1
984.521	39.08
984.879	39.02
985.237	39.08
985.595	39.17
985.953	39.18
986.311	39.18
986.669	39.22
987.026	39.26
987.384	39.29
987.741	39.29
988.099	39.39
988.456	39.42
988.814	39.49
989.171	39.49
989.528	39.47
989.885	39.46
990.242	39.55
990.599	39.57
990.956	39.66
991.313	39.74
991.67	39.76
992.027	39.83
992.383	39.88
992.74	39.98
993.096	39.96
993.453	39.94
993.809	40.01
994.165	40.05
994.522	40.16
994.878	40.15
995.234	40.22
995.59	40.28
995.946	40.32
996.302	40.39
996.658	40.46
997.013	40.57
997.369	40.73
997.725	40.93
998.08	41.01
998.436	40.96
998.791	41.11
999.147	41.06
999.502	41.09
999.857	41.13
1000.212	41.14
1000.567	41.17
1000.922	41.22
1001.277	41.15
1001.632	41.05
1001.987	41.16
1002.342	41.22
1002.696	41.16
1003.051	41.35
1003.406	41.53
1003.76	41.5
1004.114	41.5
1004.469	41.56
1004.823	41.79
1005.177	41.99
1005.531	42.2
1005.885	42.25
1006.239	42.27
1006.593	42.49
1006.947	42.56
1007.301	42.51
1007.655	42.62
1008.008	42.76
1008.362	42.87
1008.715	42.76
1009.069	42.82
1009.422	42.99
1009.776	43.02
1010.129	43.32
1010.482	43.41
1010.835	43.46
1011.188	43.53
1011.541	43.63
1011.894	43.82
1012.247	43.98
1012.6	44.11
1012.952	44.16
1013.305	44.2
1013.657	44.3
1014.01	44.33
1014.362	44.21
1014.715	44.42
1015.067	44.64
1015.419	44.86
1015.771	44.82
1016.123	44.85
1016.475	45
1016.827	45.14
1017.179	45.09
1017.531	45.19
1017.883	45.28
1018.234	45.58
1018.586	45.64
1018.938	45.81
1019.289	45.83
1019.64	46.03
1019.992	46.12
1020.343	46.26
1020.694	46.33
1021.045	46.51
1021.396	46.75
1021.747	46.97
1022.098	47.21
1022.449	47.39
1022.8	47.63
1023.151	47.8
1023.501	48.11
1023.852	48.21
1024.202	48.33
1024.553	48.42
1024.903	48.85
1025.253	49.17
1025.604	49.14
1025.954	49.17
1026.304	49.35
1026.654	49.54
1027.004	49.49
1027.354	49.54
1027.703	49.87
1028.053	50.04
1028.403	50.39
1028.753	50.01
1029.102	50.25
1029.452	50.78
1029.801	51.31
1030.15	51.31
1030.499	51.16
897.758	1512.96
901.051	1519.97
904.343	1514.18
907.636	1538.92
910.928	1495.93
914.22	1496.65
917.511	1474.52
920.803	1411.8
924.094	1406.64
927.384	1374.96
930.675	1314.88
933.965	1307.12
937.255	1232.56
940.544	1182.64
943.834	1127.4
947.123	1118.89
950.411	1050.38
953.7	1027.76
956.988	970.73
960.276	931.26
963.563	917.3
966.851	886.29
970.138	876.94
973.424	848.18
976.711	852.79
979.997	808.78
983.283	804.57
986.568	788.55
989.853	765.65
993.138	753.13
996.423	722.11
999.708	702.54
1002.992	693.43
1006.275	662.36
1009.559	656.56
1012.842	633.88
1016.125	616.35
1019.408	605.18
1022.69	597.22
1025.972	584.18
1029.254	569.83
1032.536	560.91
1035.817	549.28
1039.098	541.49
1042.379	529.52
1045.659	523.75
1048.939	509.42
1052.219	499.7
1055.498	491.07
1058.778	479.42
1062.057	467.46
1065.335	461.83
1068.614	457.2
1071.892	450.7
1075.17	436.38
1078.447	429.43
1081.724	425.19
1085.001	422.4
1088.278	413.04
1091.554	405.46
1094.83	405.7
1098.106	403.3
1101.382	399.3
1104.657	396.16
1107.932	389.82
1111.206	391.87
1114.481	381.59
1117.755	377.79
1121.029	374.67
1124.302	374.74
1127.575	366.97
1130.848	361.83
1134.121	358.4
1137.393	357.21
1140.665	348.6
1143.937	347.7
1147.208	344.15
1150.48	343.16
1153.75	339.17
1157.021	333.76
1160.291	334.33
1163.561	331.37
1166.831	331.13
1170.101	328.42
1173.37	327.07
1176.639	328.25
1179.907	324.44
1183.176	321.45
1186.444	321.39
1189.711	320.67
1192.979	319.86
1196.246	316.85
1199.513	318.27
1202.78	316.65
1206.046	316.5
1209.312	313.55
1212.578	314.12
1215.843	316.32
1219.108	315.17
1222.373	321.87
1225.638	323.62
1228.902	328.69
1232.166	329.31
1235.43	331.99
1238.693	335.76
1241.956	337.32
1245.219	343.05
1248.482	342.35
1251.744	342.59
1255.006	343.47
1258.268	335.52
1261.529	332.7
1264.79	329.78
1268.051	328.37
1271.312	323.95
1274.572	319.8
1277.832	317.02
1281.092	311.39
1284.351	309.38
1287.61	309.3
1290.869	304.67
1294.128	301.83
1297.386	302.27
1300.644	299.41
1303.902	299.97
1307.159	298.33
1310.416	299.32
1313.673	299.31
1316.93	302.44
1320.186	302.49
1323.442	302.92
1326.697	308.93
1329.953	310.37
1333.208	311.14
1336.463	315.22
1339.717	315.71
1342.972	320.59
1346.226	322.33
1349.479	322.51
1352.733	324.27
1355.986	326.14
1359.238	326.16
1362.491	327.21
1365.743	330.17
1368.995	331.07
1372.247	330.18
1375.498	330.68
1378.749	332.65
1382	329.2
1385.251	330.97
1388.501	329.22
1391.751	330.52
1395	329.64
1398.25	327.63
1401.499	326.2
1404.748	326.02
1407.996	322.63
1411.244	321.03
1414.492	319.5
1417.74	317.86
1420.987	312.65
1424.234	313.37
1427.481	308.84
1430.728	308.41
1433.974	304.84
1437.22	302.54
1440.465	301.47
1443.711	299.85
1446.956	298.11
1450.201	294.06
1453.445	291.28
1456.689	290.5
1459.933	284.77
1463.177	283.2
1466.42	278.92
1469.663	275.59
1472.906	273.59
1476.148	266.47
1479.391	262.81
1482.633	260.19
1485.874	256.55
1489.115	254.82
1492.356	251.45
1495.597	251.36
1498.838	246.96
1502.078	245.22
1505.318	244.23
1508.557	244.05
1511.797	243.28
1515.036	242.26
1518.274	241.16
1521.513	238.5
1524.751	237.84
1527.989	237.42
1531.227	235.95
1534.464	236.96
1537.701	234.81
1540.938	234.01
1544.174	231.34
1547.41	231.35
1550.646	229.62
1553.882	229.79
1557.117	226.75
1560.352	225.44
1563.587	224.69
1566.821	222.96
1570.055	220.59
1573.289	219.28
1576.523	219.36
1579.756	216.71
1582.989	215.27
1586.222	215.35
1589.454	213.86
1592.686	215.71
1595.918	214.61
1599.15	213.65
1602.381	213.74
1605.612	213.35
1608.843	214.46
1612.073	213.62
1615.303	215.59
1618.533	215.59
1621.762	215.39
1624.992	215.41
1628.221	215.1
1631.449	215.03
1634.678	214.27
1637.906	215.39
1641.134	214.86
1644.361	214.34
1647.588	215.44
1650.815	214.38
1654.042	213.73
1657.269	214.67
1660.495	214.69
1663.72	213.12
1666.946	214.58
1670.171	215.37
1673.396	215.06
1676.621	215.76
1679.845	215.58
1683.069	215.6
1686.293	217.14
1689.517	218.07
1692.74	217.68
1695.963	218.8
1699.185	222
1702.408	221.16
1705.63	222.42
1708.852	223.26
1712.073	223.81
1715.294	224.44
1718.515	225.76
1721.736	225.27
1724.956	226.24
1728.176	226.37
1731.396	228.32
1734.616	227.25
1737.835	228.45
1741.054	226.82
1744.272	227.12
1747.491	229.36
1750.709	229.89
1753.927	229.2
1757.144	228.78
1760.361	229.83
1763.578	230.06
1766.795	229.24
1770.011	230.93
1773.227	231.21
1776.443	234.02
1779.658	235
1782.874	234.75
1786.089	235.77
1789.303	236.78
1792.518	239.15
1795.732	238.85
1798.945	241.98
1802.159	241.94
1805.372	242.63
1808.585	246.84
1811.797	247.35
1815.01	248.7
1818.222	250.22
1821.434	252.3
1824.645	252.92
1827.856	257.36
1831.067	259.68
1834.278	258.6
1837.488	260.58
1840.698	262.69
1843.908	259.95
1847.117	262
1850.326	262.97
1853.535	261.84
1856.744	266.29
1859.952	266.71
1863.16	265.45
1866.368	263.04
1869.575	266.78
1872.782	263.61
1875.989	262.11
1879.196	261.62
1882.402	259.73
1885.608	260.73
1888.814	262.22
1892.019	260.65
1895.224	259.94
1898.429	258.8
1901.634	261.29
1904.838	261.15
1908.042	264.19
1911.246	265.47
1914.449	267.36
1917.652	266.95
1920.855	267.12
1924.058	266.24
1927.26	265.09
1930.462	265.86
1933.664	269.65
1936.865	266.84
1940.066	266.29
1943.267	264.7
1946.467	264.24
1949.668	265.72
1952.868	270
1956.067	269.38
1959.267	270.12
1962.466	271.15
1965.665	269.57
1968.863	270.14
1972.061	274.18
1975.259	276.77
1978.457	278.98
1981.654	281.65
1984.852	282.12
1988.048	280.55
1991.245	282.93
1994.441	287.22
1997.637	288.52
2000.833	294.72
2004.028	297.68
2007.223	299.15
2010.418	301.85
2013.613	307.4
2016.807	310.98
2020.001	313.88
2023.194	318.56
2026.388	326.11
2029.581	332.3
2032.774	335.64
2035.966	342.32
2039.158	342.92
2042.35	350.31
2045.542	352.86
2048.733	357.67
2051.924	361.85
2055.115	368.12
2058.306	368.79
2061.496	372.6
2064.686	372.19
2067.875	379.22
2071.065	380.28
2074.254	378.89
2077.442	383.34
2080.631	384.39
2083.819	387.72
2087.007	389.83
2090.195	393.54
2093.382	397.39
2096.569	394.18
2099.756	401.2
2102.942	401.83
2106.128	406.45
2109.314	415.02
2112.5	413.23
2115.685	422.35
2118.87	423.69
2122.055	430.51
2125.239	433.69
2128.424	438.96
2131.608	442.94
2134.791	448.65
2137.974	450.28
2141.157	451.41
2144.34	452.24
2147.523	459.45
2150.705	455.82
2153.887	460.32
2157.068	461.24
2160.25	457.76
2163.431	460.22
2166.611	464.16
2169.792	472.98
2172.972	478.46
2176.152	481.85
2179.331	487.72
2182.511	495.5
2185.69	503.09
2188.868	512.06
2192.047	513.38
2195.225	527.71
2198.403	540.57
2201.58	550.87
2204.758	561.65
2207.935	574.12
2211.111	583.19
2214.288	591.04
2217.464	592.7
2220.64	599.23
2223.815	608.71
2226.991	634.01
2230.166	635.16
2233.34	646.43
2236.515	658.87
2239.689	657.46
2242.863	661.63
2246.036	681.77
2249.209	675.69
2252.382	688.11
2255.555	708.21
2258.727	709.43
2261.9	713.57
2265.071	721.18
2268.243	732.07
2271.414	739.89
2274.585	757.65
2277.756	764.1
2280.926	769.78
2284.096	787.52
2287.266	805.53
2290.436	811.29
2293.605	831.55
2296.774	857.44
2299.942	884.22
2303.111	889
2306.279	908.89
2309.447	921.25
2312.614	945.38
2315.781	969.76
2318.948	1016.16
2322.115	999.8
2325.281	1055.97
2328.447	1032.29
2331.613	1073.39
2334.779	1060.92
2337.944	1108.28
2341.109	1119.07
2344.274	1149.12
2347.438	1190.19
2350.602	1189.72
2353.766	1225.45
2356.929	1243.67
2360.092	1237.26
2363.255	1328.76
2366.418	1322.69
2369.58	1351.19
2372.742	1434.62
2375.904	1471.03
2379.066	1459.85
2382.227	1430.26
2385.388	1550.38
2388.548	1554.65
2391.709	1574.34
2394.869	1750.44
2398.029	1671.73
2401.188	1724.2
2404.347	1712.75
2407.506	1681.99
2410.665	1734.24
2413.823	1837.59
2416.981	1947.46
2420.139	1883.25
2423.296	1864.95
2426.453	1942.71
2429.61	1870.12
2432.767	1962.57
2435.923	1937.91
2439.079	2119.66
2442.235	2146.55
2445.391	2120.26
2448.546	2106.12
2451.701	2044.64
2454.855	2047.12
2458.009	2169.62
2461.163	2260.02
2464.317	2339.96
2467.471	2400.06
2470.624	2402.66
2473.777	2335.04
2476.929	2281.74
2480.082	2215.95
2483.234	2192.29
2486.385	2308.61
2489.537	2317.33
2492.688	2405.5
2495.839	2339.82
2498.989	2289.99
2502.14	2299.28
2505.29	2327.19
2508.439	2367.23
2511.589	2355.77
2514.738	2573.82
2517.887	2515.1
2521.035	2657.23
2524.183	2672.09
2527.331	2686.32
2530.479	2675.18
2533.627	2696.89
