Data from N_2_DEC_NC_4N_Splice17_13-26-41-969.txt Node
Date: Sat Mar 07 13:26:41 EST 2020
User: sa697716
Spectrometer: NQ5500242
Trigger mode: 0
Integration Time (sec): 1.450000E-1
Scans to average: 20
Nonlinearity correction enabled: false
Boxcar width: 5
Storing dark spectrum: false
XAxis mode: Wavelengths
Number of Pixels in Spectrum: 512
>>>>>Begin Spectral Data<<<<<
187.83	181.29
188.298	188.32
188.766	178.08
189.233	155.48
189.701	148.42
190.169	163.89
190.636	200.58
191.104	257.48
191.571	201.63
192.039	182.09
192.506	-249.84
192.974	169.91
193.441	154.65
193.908	128.27
194.375	114.93
194.842	16.22
195.31	12.65
195.777	10.38
196.244	50.33
196.711	52.16
197.177	53.95
197.644	52.06
198.111	51.7
198.578	51.91
199.045	52.03
199.511	51.55
199.978	51.5
200.445	51.65
200.911	51.82
201.378	51.34
201.844	50.84
202.31	50.06
202.777	49.85
203.243	49.51
203.709	48.75
204.176	47.8
204.642	47.76
205.108	47.81
205.574	47.05
206.04	46.29
206.506	45.78
206.972	45.49
207.438	45.08
207.903	44.43
208.369	43.21
208.835	42.54
209.301	41.73
209.766	40.2
210.232	38.7
210.697	37.61
211.163	36.4
211.628	35.47
212.094	34.47
212.559	33.49
213.024	32.55
213.49	31.65
213.955	30.7
214.42	29.99
214.885	29.04
215.35	27.82
215.815	26.36
216.28	24.51
216.745	22.25
217.21	20.04
217.675	18.04
218.14	16.31
218.604	14.85
219.069	13.58
219.534	12.47
219.998	11.55
220.463	10.85
220.927	10.18
221.392	9.67
221.856	9.27
222.32	8.93
222.785	8.64
223.249	8.36
223.713	8.12
224.177	7.93
224.642	7.74
225.106	7.56
225.57	7.35
226.034	7.19
226.497	7.05
226.961	6.91
227.425	6.77
227.889	6.64
228.353	6.52
228.816	6.39
229.28	6.26
229.744	6.15
230.207	6.04
230.671	5.96
231.134	5.86
231.597	5.79
232.061	5.7
232.524	5.63
232.987	5.56
233.45	5.51
233.914	5.45
234.377	5.37
234.84	5.31
235.303	5.27
235.766	5.22
236.229	5.17
236.691	5.11
237.154	5.07
237.617	5.02
238.08	4.97
238.542	4.9
239.005	4.87
239.468	4.84
239.93	4.8
240.393	4.77
240.855	4.71
241.317	4.67
241.78	4.63
242.242	4.57
242.704	4.54
243.166	4.51
243.629	4.49
244.091	4.44
244.553	4.4
245.015	4.37
245.477	4.33
245.939	4.3
246.4	4.27
246.862	4.24
247.324	4.21
247.786	4.18
248.247	4.15
248.709	4.11
249.17	4.07
249.632	4.06
250.093	4.04
250.555	4.01
251.016	3.99
251.477	3.96
251.939	3.95
252.4	3.92
252.861	3.9
253.322	3.88
253.783	3.85
254.244	3.84
254.705	3.82
255.166	3.79
255.627	3.77
256.088	3.75
256.549	3.74
257.009	3.72
257.47	3.7
257.931	3.67
258.391	3.64
258.852	3.62
259.312	3.6
259.773	3.57
260.233	3.55
260.694	3.53
261.154	3.5
261.614	3.48
262.074	3.46
262.534	3.43
262.994	3.41
263.455	3.4
263.915	3.38
264.374	3.36
264.834	3.35
265.294	3.32
265.754	3.31
266.214	3.3
266.673	3.29
267.133	3.27
267.593	3.27
268.052	3.25
268.512	3.25
268.971	3.24
269.431	3.22
269.89	3.21
270.349	3.21
270.809	3.19
271.268	3.19
271.727	3.17
272.186	3.16
272.645	3.16
273.104	3.15
273.563	3.14
274.022	3.13
274.481	3.12
274.94	3.12
275.399	3.12
275.857	3.11
276.316	3.11
276.775	3.1
277.233	3.1
277.692	3.1
278.15	3.09
278.609	3.08
279.067	3.08
279.525	3.07
279.984	3.07
280.442	3.06
280.9	3.06
281.358	3.05
281.816	3.05
282.274	3.04
282.732	3.03
283.19	3.03
283.648	3.02
284.106	3.01
284.564	3
285.021	2.99
285.479	2.98
285.937	2.96
286.394	2.95
286.852	2.93
287.309	2.93
287.767	2.92
288.224	2.9
288.682	2.89
289.139	2.89
289.596	2.87
290.053	2.86
290.511	2.85
290.968	2.84
291.425	2.83
291.882	2.82
292.339	2.81
292.796	2.81
293.252	2.8
293.709	2.79
294.166	2.78
294.623	2.78
295.079	2.76
295.536	2.76
295.992	2.75
296.449	2.74
296.905	2.74
297.362	2.73
297.818	2.72
298.274	2.72
298.731	2.72
299.187	2.71
299.643	2.7
300.099	2.71
300.555	2.7
301.011	2.69
301.467	2.69
301.923	2.69
302.379	2.69
302.835	2.69
303.291	2.69
303.746	2.68
304.202	2.69
304.658	2.69
305.113	2.69
305.569	2.7
306.024	2.7
306.479	2.69
306.935	2.69
307.39	2.69
307.845	2.69
308.301	2.7
308.756	2.7
309.211	2.69
309.666	2.7
310.121	2.7
310.576	2.71
311.031	2.71
311.486	2.72
311.94	2.73
312.395	2.72
312.85	2.73
313.305	2.73
313.759	2.73
314.214	2.73
314.668	2.72
315.123	2.72
315.577	2.72
316.032	2.71
316.486	2.71
316.94	2.7
317.394	2.69
317.849	2.67
318.303	2.66
318.757	2.65
319.211	2.65
319.665	2.64
320.119	2.63
320.572	2.62
321.026	2.62
321.48	2.61
321.934	2.61
322.387	2.61
322.841	2.61
323.295	2.61
323.748	2.6
324.202	2.6
324.655	2.6
325.108	2.61
325.562	2.6
326.015	2.61
326.468	2.61
326.921	2.61
327.374	2.61
327.827	2.62
328.28	2.62
328.733	2.63
329.186	2.63
329.639	2.63
330.092	2.63
330.545	2.64
330.997	2.63
331.45	2.63
331.903	2.64
332.355	2.65
332.808	2.64
333.26	2.65
333.713	2.64
334.165	2.64
334.617	2.64
335.069	2.63
335.522	2.64
335.974	2.65
336.426	2.64
336.878	2.63
337.33	2.63
337.782	2.63
338.234	2.63
338.686	2.63
339.137	2.63
339.589	2.63
340.041	2.63
340.493	2.62
340.944	2.61
341.396	2.61
341.847	2.6
342.299	2.59
342.75	2.59
343.201	2.57
343.653	2.57
344.104	2.56
344.555	2.55
345.006	2.54
345.457	2.53
345.908	2.53
346.359	2.53
346.81	2.53
347.261	2.52
347.712	2.51
348.163	2.51
348.613	2.51
349.064	2.51
349.515	2.51
349.965	2.52
350.416	2.51
350.866	2.5
351.317	2.5
351.767	2.5
352.217	2.5
352.668	2.51
353.118	2.52
353.568	2.52
354.018	2.52
354.468	2.52
354.918	2.52
355.368	2.53
355.818	2.54
356.268	2.54
356.718	2.54
357.168	2.55
357.617	2.55
358.067	2.54
358.517	2.55
358.966	2.56
359.416	2.56
359.865	2.56
360.315	2.57
360.764	2.57
361.213	2.57
361.663	2.57
362.112	2.58
362.561	2.59
363.01	2.59
363.459	2.58
363.908	2.57
364.357	2.58
364.806	2.57
365.255	2.58
365.703	2.6
366.152	2.61
366.601	2.62
367.05	2.62
367.498	2.62
367.947	2.62
368.395	2.64
368.844	2.65
369.292	2.65
369.74	2.66
370.189	2.66
370.637	2.65
371.085	2.64
371.533	2.65
371.981	2.66
372.429	2.66
372.877	2.67
373.325	2.67
373.773	2.67
374.221	2.68
374.669	2.68
375.116	2.68
375.564	2.69
376.012	2.7
376.459	2.71
376.907	2.72
377.354	2.73
377.801	2.75
378.249	2.76
378.696	2.78
379.143	2.8
379.591	2.83
380.038	2.85
380.485	2.88
380.932	2.9
381.379	2.94
381.826	2.97
382.273	3.01
382.72	3.03
383.166	3.07
383.613	3.11
384.06	3.15
384.506	3.21
384.953	3.29
385.4	3.37
385.846	3.49
386.292	3.59
386.739	3.71
387.185	3.84
387.631	3.98
388.078	4.09
388.524	4.19
388.97	4.28
389.416	4.4
389.862	4.55
390.308	4.76
390.754	4.97
391.2	5.2
391.645	5.39
392.091	5.56
392.537	5.74
392.983	5.99
393.428	6.38
393.874	6.85
394.319	7.36
394.765	7.87
395.21	8.38
395.655	8.92
396.101	9.5
396.546	10.15
396.991	10.9
397.436	11.7
397.881	12.51
398.326	13.26
398.771	13.95
399.216	14.6
399.661	15.18
400.106	15.7
400.551	16.17
400.995	16.58
401.44	16.94
401.885	17.3
402.329	17.67
402.774	18.07
403.218	18.53
403.663	19.04
404.107	19.58
404.551	20.14
404.995	20.67
405.44	21.16
405.884	21.71
406.328	22.34
406.772	23.03
407.216	23.73
407.66	24.36
408.104	24.93
408.547	25.43
408.991	25.9
409.435	26.41
409.879	27.02
410.322	27.72
410.766	28.44
411.209	29.11
411.653	29.71
412.096	30.25
412.54	30.78
412.983	31.33
413.426	31.92
413.869	32.52
414.312	33.07
414.756	33.58
415.199	33.99
415.642	34.34
416.085	34.65
416.527	34.86
416.97	34.98
417.413	35.03
417.856	35.02
418.298	35.01
418.741	35.03
419.184	35.15
419.626	35.32
420.069	35.55
420.511	35.8
420.953	36.07
421.396	36.44
421.838	36.91
422.28	37.43
422.722	37.96
423.164	38.47
423.606	38.91
424.048	39.23
424.49	39.34
424.932	39.13
425.374	38.59
425.816	37.83
426.258	37.05
426.699	36.58
427.141	36.61
427.582	37.04
428.024	37.66
428.465	38.3
428.907	38.86
429.348	39.4
429.789	40.26
430.231	41.59
430.672	43.39
431.113	45.36
431.554	47.14
431.995	48.5
432.436	49.5
432.877	50.29
433.318	51
433.759	51.8
434.2	52.8
434.64	53.95
435.081	55.03
435.522	55.95
435.962	56.69
436.403	57.35
436.843	57.89
437.284	58.48
437.724	59.18
438.164	60.04
438.604	61.04
439.045	62.04
439.485	62.91
439.925	63.66
440.365	64.29
440.805	64.8
441.245	65.26
441.685	65.79
442.125	66.37
442.564	67
443.004	67.62
443.444	68.34
443.883	69.09
444.323	69.83
444.762	70.59
445.202	71.39
445.641	72.37
446.081	73.53
446.52	74.63
446.959	75.63
447.398	76.37
447.837	76.83
448.276	76.98
448.716	77.07
449.154	77.19
449.593	77.26
450.032	77.2
450.471	76.97
450.91	76.59
451.349	76.23
451.787	75.87
452.226	75.61
452.664	75.42
453.103	75.3
453.541	75.06
453.98	74.69
454.418	74.23
454.856	73.78
455.295	73.45
455.733	73.04
456.171	72.68
456.609	72.45
457.047	72.04
457.485	71.87
457.923	71.85
458.361	71.9
458.798	72.1
459.236	72.26
459.674	72.52
460.111	72.72
460.549	73.08
460.987	73.44
461.424	73.69
461.862	74.15
462.299	74.44
462.736	74.68
463.173	75.09
463.611	75.53
464.048	76.11
464.485	76.7
464.922	77.33
465.359	77.89
465.796	78.37
466.233	78.99
466.67	79.57
467.106	80.24
467.543	80.91
467.98	81.48
468.416	81.95
468.853	82.34
469.29	82.64
469.726	82.95
470.162	83.19
470.599	83.33
471.035	83.35
471.471	83.26
471.907	83.06
472.344	82.79
472.78	82.39
473.216	81.93
473.652	81.49
474.088	80.92
474.523	80.25
474.959	79.58
475.395	78.86
475.831	78.14
476.266	77.39
476.702	76.66
477.138	75.83
477.573	75
478.008	74.12
478.444	73.11
478.879	72.19
479.314	71.25
479.75	70.29
480.185	69.32
480.62	68.28
481.055	67.17
481.49	65.93
481.925	64.7
482.36	63.56
482.795	62.57
483.229	61.72
483.664	60.91
484.099	60.09
484.534	59.33
484.968	58.71
485.403	58.13
485.837	57.75
486.271	57.48
486.706	57.19
487.14	56.95
487.574	56.62
488.009	56.28
488.443	55.95
488.877	55.69
489.311	55.48
489.745	55.28
490.179	55.16
490.613	54.98
491.046	54.87
491.48	54.83
491.914	54.78
492.348	54.79
492.781	54.83
493.215	54.89
493.648	54.93
494.082	54.95
494.515	54.97
494.948	54.99
495.382	55.02
495.815	55.02
496.248	55.06
496.681	55.07
497.114	55.06
497.547	55.04
497.98	55.07
498.413	55.11
498.846	55.2
499.279	55.27
499.711	55.33
500.144	55.43
500.577	55.58
501.009	55.74
501.442	55.96
501.874	56.15
502.306	56.4
502.739	56.6
503.171	56.85
503.603	57.01
504.036	57.21
504.468	57.44
504.9	57.65
505.332	57.86
505.764	58.06
506.196	58.24
506.627	58.47
507.059	58.69
507.491	58.93
507.923	59.09
508.354	59.35
508.786	59.6
509.217	59.81
509.649	60.05
510.08	60.27
510.512	60.53
510.943	60.82
511.374	61.1
511.805	61.3
512.237	61.47
512.668	61.69
513.099	61.86
513.53	62.06
513.961	62.27
514.391	62.49
514.822	62.72
515.253	62.94
515.684	63.13
516.114	63.35
516.545	63.57
516.975	63.85
517.406	64.11
517.836	64.36
518.267	64.57
518.697	64.75
519.127	64.9
519.558	65.06
519.988	65.22
520.418	65.37
520.848	65.46
521.278	65.56
521.708	65.67
522.138	65.73
522.567	65.76
522.997	65.81
523.427	65.9
523.857	65.99
524.286	66.1
524.716	66.21
525.145	66.28
525.575	66.41
526.004	66.54
526.433	66.66
526.863	66.87
527.292	67.06
527.721	67.21
528.15	67.29
528.579	67.33
529.008	67.4
529.437	67.4
529.866	67.44
530.295	67.47
530.724	67.5
531.152	67.53
531.581	67.55
532.01	67.57
532.438	67.58
532.867	67.64
533.295	67.71
533.723	67.76
534.152	67.82
534.58	67.84
535.008	67.82
535.436	67.82
535.865	67.76
536.293	67.69
536.721	67.68
537.149	67.72
537.576	67.81
538.004	67.94
538.432	67.98
538.86	68.04
539.287	68.12
539.715	68.26
540.143	68.41
540.57	68.63
540.998	68.86
541.425	69.01
541.852	69.23
542.28	69.39
542.707	69.55
543.134	69.74
543.561	69.9
543.988	70.09
544.415	70.25
544.842	70.43
545.269	70.58
545.696	70.74
546.123	70.96
546.549	71.11
546.976	71.24
547.403	71.35
547.829	71.5
548.256	71.67
548.682	71.79
549.108	71.96
549.535	72.1
549.961	72.2
550.387	72.27
550.813	72.36
551.24	72.45
551.666	72.49
552.092	72.52
552.518	72.57
552.943	72.56
553.369	72.61
553.795	72.59
554.221	72.52
554.646	72.46
555.072	72.35
555.498	72.22
555.923	72.1
556.349	71.99
556.774	71.87
557.199	71.69
557.625	71.57
558.05	71.39
558.475	71.2
558.9	71.02
559.325	70.84
559.75	70.66
560.175	70.45
560.6	70.21
561.025	69.91
561.449	69.63
561.874	69.3
562.299	68.94
562.723	68.59
563.148	68.17
563.572	67.74
563.997	67.3
564.421	66.83
564.846	66.4
565.27	65.92
565.694	65.51
566.118	65
566.542	64.57
566.966	64.1
567.39	63.67
567.814	63.29
568.238	62.99
568.662	62.67
569.086	62.42
569.509	62.2
569.933	62.03
570.357	61.9
570.78	61.81
571.204	61.76
571.627	61.76
572.05	61.77
572.474	61.82
572.897	61.89
573.32	61.97
573.743	62.08
574.166	62.17
574.589	62.26
575.012	62.36
575.435	62.55
575.858	62.7
576.281	62.86
576.704	63.04
577.126	63.18
577.549	63.3
577.972	63.48
578.394	63.65
578.817	63.82
579.239	64.02
579.661	64.22
580.084	64.32
580.506	64.5
580.928	64.63
581.35	64.79
581.772	64.92
582.194	65.07
582.616	65.19
583.038	65.33
583.46	65.43
583.882	65.49
584.303	65.5
584.725	65.59
585.147	65.58
585.568	65.61
585.99	65.59
586.411	65.66
586.833	65.67
587.254	65.67
587.675	65.64
588.096	65.67
588.518	65.71
588.939	65.76
589.36	65.75
589.781	65.77
590.202	65.72
590.623	65.69
591.043	65.56
591.464	65.44
591.885	65.29
592.305	65.17
592.726	64.99
593.147	64.73
593.567	64.49
593.987	64.18
594.408	63.89
594.828	63.6
595.248	63.27
595.669	62.9
596.089	62.5
596.509	62.13
596.929	61.69
597.349	61.28
597.769	60.89
598.189	60.46
598.608	60.13
599.028	59.77
599.448	59.44
599.867	59.12
600.287	58.88
600.706	58.6
601.126	58.33
601.545	58.13
601.965	57.96
602.384	57.81
602.803	57.68
603.222	57.52
603.641	57.41
604.061	57.32
604.48	57.23
604.898	57.16
605.317	57.13
605.736	57.12
606.155	57.09
606.574	57.05
606.992	57.04
607.411	57.03
607.829	57.03
608.248	57.05
608.666	57.05
609.085	57.06
609.503	57.05
609.921	57.06
610.339	57.06
610.758	57.07
611.176	57.07
611.594	57.08
612.012	57.07
612.43	57.04
612.847	57.03
613.265	57
613.683	57.01
614.101	57.03
614.518	57.02
614.936	57.02
615.353	56.99
615.771	57.01
616.188	57
616.606	57.01
617.023	57.06
617.44	57.08
617.857	57.08
618.274	57.08
618.691	57.06
619.108	57.06
619.525	57.03
619.942	57.01
620.359	56.96
620.776	56.92
621.192	56.89
621.609	56.87
622.026	56.8
622.442	56.82
622.859	56.78
623.275	56.74
623.691	56.72
624.108	56.72
624.524	56.73
624.94	56.74
625.356	56.75
625.772	56.75
626.188	56.78
626.604	56.81
627.02	56.84
627.436	56.87
627.852	56.93
628.268	56.97
628.683	57.04
629.099	57.11
629.514	57.18
629.93	57.26
630.345	57.35
630.761	57.38
631.176	57.46
631.591	57.49
632.007	57.57
632.422	57.65
632.837	57.73
633.252	57.78
633.667	57.85
634.082	57.9
634.497	57.98
634.911	58.03
635.326	58.1
635.741	58.15
636.155	58.19
636.57	58.22
636.984	58.26
637.399	58.28
637.813	58.3
638.228	58.28
638.642	58.3
639.056	58.28
639.47	58.32
639.884	58.32
640.298	58.31
640.712	58.34
641.126	58.33
641.54	58.3
641.954	58.27
642.368	58.23
642.781	58.22
643.195	58.2
643.609	58.18
644.022	58.15
644.436	58.12
644.849	58.13
645.262	58.06
645.676	58.04
646.089	58.06
646.502	58.08
646.915	58.11
647.328	58.15
647.741	58.14
648.154	58.15
648.567	58.15
648.98	58.16
649.393	58.16
649.805	58.24
650.218	58.3
650.631	58.25
651.043	58.22
651.456	58.13
651.868	57.99
652.28	57.87
652.693	57.81
653.105	57.73
653.517	57.72
653.929	57.65
654.341	57.61
654.753	57.51
655.165	57.52
655.577	57.56
655.989	57.66
656.401	57.78
656.813	57.9
657.224	57.95
657.636	58.02
658.047	58.07
658.459	58.09
658.87	58.08
659.282	58.09
659.693	58.08
660.104	58.03
660.515	57.97
660.926	57.95
661.338	57.91
661.749	57.86
662.159	57.82
662.57	57.76
662.981	57.77
663.392	57.72
663.803	57.68
664.213	57.65
664.624	57.65
665.035	57.64
665.445	57.6
665.855	57.57
666.266	57.57
666.676	57.53
667.086	57.46
667.497	57.4
667.907	57.4
668.317	57.39
668.727	57.38
669.137	57.33
669.547	57.35
669.956	57.31
670.366	57.32
670.776	57.34
671.186	57.36
671.595	57.4
672.005	57.43
672.414	57.47
672.824	57.49
673.233	57.53
673.642	57.63
674.052	57.71
674.461	57.85
674.87	57.94
675.279	58.05
675.688	58.16
676.097	58.3
676.506	58.46
676.915	58.59
677.323	58.78
677.732	58.97
678.141	59.18
678.549	59.33
678.958	59.53
679.366	59.75
679.775	59.93
680.183	60.13
680.592	60.34
681	60.56
681.408	60.78
681.816	60.95
682.224	61.02
682.632	60.9
683.04	60.66
683.448	60.44
683.856	60.25
684.264	60.14
684.671	60.05
685.079	59.96
685.487	59.9
685.894	59.91
686.302	59.99
686.709	60.24
687.116	60.68
687.524	61.32
687.931	61.97
688.338	62.61
688.745	63.23
689.152	63.84
689.559	64.49
689.966	65.1
690.373	65.67
690.78	66.2
691.187	66.67
691.593	67.16
692	67.61
692.407	68.03
692.813	68.48
693.22	68.87
693.626	69.29
694.032	69.67
694.439	70
694.845	70.41
695.251	70.76
695.657	71.12
696.063	71.46
696.469	71.77
696.875	72.07
697.281	72.34
697.687	72.6
698.093	72.85
698.498	73.11
698.904	73.42
699.31	73.68
699.715	73.99
700.12	74.27
700.526	74.58
700.931	74.93
701.337	75.24
701.742	75.52
702.147	75.84
702.552	76.16
702.957	76.44
703.362	76.73
703.767	76.98
704.172	77.26
704.577	77.53
704.981	77.79
705.386	78
705.791	78.25
706.195	78.51
706.6	78.78
707.004	79
707.408	79.23
707.813	79.48
708.217	79.66
708.621	79.87
709.025	80.03
709.43	80.17
709.834	80.34
710.237	80.5
710.641	80.64
711.045	80.76
711.449	80.93
711.853	81.07
712.256	81.09
712.66	81.08
713.064	80.95
713.467	80.73
713.87	80.43
714.274	80.03
714.677	79.56
715.08	79.06
715.484	78.58
715.887	78.09
716.29	77.68
716.693	77.49
717.096	77.48
717.499	77.66
717.901	78.02
718.304	78.43
718.707	78.9
719.109	79.37
719.512	79.76
719.915	80.15
720.317	80.43
720.719	80.66
721.122	80.78
721.524	80.78
721.926	80.69
722.328	80.54
722.731	80.38
723.133	80.3
723.535	80.23
723.937	80.25
724.338	80.25
724.74	80.27
725.142	80.39
725.544	80.45
725.945	80.51
726.347	80.52
726.748	80.56
727.15	80.6
727.551	80.68
727.952	80.82
728.354	80.99
728.755	81.19
729.156	81.48
729.557	81.68
729.958	81.92
730.359	82.21
730.76	82.49
731.161	82.7
731.562	82.92
731.962	83.03
732.363	83.15
732.763	83.25
733.164	83.33
733.564	83.35
733.965	83.29
734.365	83.23
734.766	83.11
735.166	82.99
735.566	82.92
735.966	82.86
736.366	82.8
736.766	82.67
737.166	82.56
737.566	82.44
737.966	82.31
738.365	82.26
738.765	82.23
739.165	82.25
739.564	82.3
739.964	82.29
740.363	82.25
740.763	82.26
741.162	82.31
741.561	82.34
741.96	82.36
742.36	82.39
742.759	82.4
743.158	82.37
743.557	82.28
743.955	82.2
744.354	82.14
744.753	82.1
745.152	82.01
745.55	81.89
745.949	81.79
746.348	81.65
746.746	81.46
747.144	81.3
747.543	81.12
747.941	80.97
748.339	80.74
748.737	80.55
749.136	80.35
749.534	80.15
749.932	80.02
750.33	79.84
750.727	79.7
751.125	79.57
751.523	79.39
751.921	79.22
752.318	79.06
752.716	78.92
753.113	78.79
753.511	78.64
753.908	78.49
754.305	78.23
754.703	77.7
755.1	76.58
755.497	74.67
755.894	71.86
756.291	68.43
756.688	64.79
757.085	61.38
757.482	58.24
757.878	55.35
758.275	52.48
758.672	49.52
759.068	46.89
759.465	44.89
759.861	43.92
760.258	44.05
760.654	45.06
761.05	46.51
761.447	48.02
761.843	49.46
762.239	50.89
762.635	52.58
763.031	54.6
763.427	56.79
763.822	59.08
764.218	61.32
764.614	63.43
765.01	65.37
765.405	67.1
765.801	68.62
766.196	69.98
766.592	71.09
766.987	71.98
767.382	72.63
767.778	73.11
768.173	73.48
768.568	73.72
768.963	73.88
769.358	74.06
769.753	74.17
770.148	74.21
770.542	74.17
770.937	74.13
771.332	74.07
771.726	74.07
772.121	74.03
772.515	73.98
772.91	73.93
773.304	73.88
773.699	73.7
774.093	73.53
774.487	73.44
774.881	73.36
775.275	73.25
775.669	73.12
776.063	72.93
776.457	72.77
776.851	72.55
777.245	72.35
777.638	72.17
778.032	72.05
778.425	71.97
778.819	71.8
779.212	71.61
779.606	71.41
779.999	71.21
780.392	71.08
780.786	70.91
781.179	70.77
781.572	70.64
781.965	70.47
782.358	70.26
782.751	70.02
783.143	69.82
783.536	69.61
783.929	69.41
784.322	69.2
784.714	68.96
785.107	68.72
785.499	68.43
785.891	68.13
786.284	67.84
786.676	67.56
787.068	67.24
787.46	66.91
787.852	66.62
788.245	66.32
788.636	66
789.028	65.69
789.42	65.37
789.812	65.05
790.204	64.74
790.595	64.45
790.987	64.16
791.378	63.92
791.77	63.7
792.161	63.43
792.553	63.23
792.944	63
793.335	62.81
793.726	62.65
794.117	62.5
794.508	62.33
794.899	62.13
795.29	61.94
795.681	61.69
796.072	61.43
796.463	61.18
796.853	60.88
797.244	60.63
797.634	60.34
798.025	60.04
798.415	59.75
798.806	59.41
799.196	59.11
799.586	58.79
799.976	58.49
800.366	58.22
800.756	57.96
801.146	57.7
801.536	57.42
801.926	57.14
802.316	56.87
802.706	56.61
803.095	56.36
803.485	56.09
803.874	55.81
804.264	55.54
804.653	55.25
805.043	54.93
805.432	54.59
805.821	54.23
806.21	53.9
806.599	53.53
806.988	53.14
807.377	52.76
807.766	52.37
808.155	51.97
808.544	51.55
808.933	51.11
809.321	50.66
809.71	50.17
810.098	49.68
810.487	49.11
810.875	48.54
811.264	47.98
811.652	47.37
812.04	46.71
812.428	46.12
812.816	45.51
813.204	44.94
813.592	44.41
813.98	43.92
814.368	43.45
814.756	43.05
815.144	42.66
815.531	42.32
815.919	42.07
816.306	41.94
816.694	41.82
817.081	41.74
817.469	41.63
817.856	41.45
818.243	41.21
818.63	40.9
819.017	40.58
819.404	40.29
819.791	40.08
820.178	39.87
820.565	39.62
820.952	39.36
821.339	39.11
821.725	38.87
822.112	38.74
822.498	38.7
822.885	38.7
823.271	38.65
823.657	38.54
824.044	38.35
824.43	38.14
824.816	37.91
825.202	37.68
825.588	37.43
825.974	37.2
826.36	36.94
826.746	36.69
827.132	36.44
827.517	36.24
827.903	36.08
828.289	35.93
828.674	35.75
829.06	35.57
829.445	35.39
829.83	35.23
830.216	35.07
830.601	34.93
830.986	34.8
831.371	34.69
831.756	34.59
832.141	34.48
832.526	34.37
832.911	34.27
833.295	34.21
833.68	34.15
834.065	34.06
834.449	33.98
834.834	33.87
835.218	33.76
835.603	33.63
835.987	33.52
836.371	33.43
836.755	33.32
837.139	33.2
837.524	33.1
837.908	33
838.291	32.91
838.675	32.79
839.059	32.7
839.443	32.58
839.827	32.47
840.21	32.35
840.594	32.23
840.977	32.13
841.361	32.04
841.744	31.92
842.127	31.79
842.511	31.67
842.894	31.58
843.277	31.49
843.66	31.4
844.043	31.34
844.426	31.25
844.809	31.15
845.191	31.02
845.574	30.88
845.957	30.73
846.339	30.59
846.722	30.47
847.104	30.35
847.487	30.22
847.869	30.1
848.252	29.97
848.634	29.85
849.016	29.74
849.398	29.61
849.78	29.45
850.162	29.29
850.544	29.12
850.926	28.96
851.307	28.82
851.689	28.73
852.071	28.62
852.452	28.55
852.834	28.47
853.215	28.4
853.597	28.38
853.978	28.4
854.359	28.46
854.741	28.52
855.122	28.54
855.503	28.54
855.884	28.49
856.265	28.47
856.646	28.41
857.026	28.36
857.407	28.31
857.788	28.25
858.169	28.2
858.549	28.13
858.93	28.05
859.31	27.98
859.69	27.92
860.071	27.88
860.451	27.81
860.831	27.74
861.211	27.64
861.591	27.5
861.971	27.36
862.351	27.2
862.731	27.06
863.111	26.95
863.491	26.83
863.87	26.72
864.25	26.59
864.629	26.49
865.009	26.41
865.388	26.33
865.768	26.3
866.147	26.32
866.526	26.33
866.905	26.33
867.284	26.32
867.663	26.29
868.042	26.29
868.421	26.28
868.8	26.26
869.179	26.22
869.558	26.19
869.936	26.16
870.315	26.09
870.693	26.03
871.072	25.99
871.45	25.96
871.828	25.92
872.207	25.84
872.585	25.78
872.963	25.73
873.341	25.68
873.719	25.64
874.097	25.59
874.475	25.58
874.853	25.55
875.23	25.52
875.608	25.48
875.986	25.46
876.363	25.43
876.741	25.39
877.118	25.34
877.495	25.3
877.873	25.26
878.25	25.23
878.627	25.19
879.004	25.14
879.381	25.09
879.758	25.03
880.135	24.97
880.512	24.93
880.889	24.9
881.265	24.87
881.642	24.85
882.019	24.82
882.395	24.76
882.772	24.7
883.148	24.64
883.524	24.59
883.901	24.54
884.277	24.5
884.653	24.46
885.029	24.42
885.405	24.38
885.781	24.32
886.157	24.28
886.532	24.26
886.908	24.23
887.284	24.2
887.659	24.16
888.035	24.13
888.411	24.08
888.786	24.04
889.161	23.97
889.537	23.92
889.912	23.88
890.287	23.83
890.662	23.78
891.037	23.73
891.412	23.65
891.787	23.58
892.162	23.49
892.536	23.41
892.911	23.33
893.286	23.26
893.66	23.18
894.035	23.1
894.409	22.99
894.784	22.87
895.158	22.76
895.532	22.68
895.906	22.58
896.281	22.51
896.655	22.43
897.029	22.35
897.402	22.28
897.776	22.22
898.15	22.14
898.524	22.12
898.898	22.09
899.271	22.08
899.645	22.09
900.018	22.13
900.392	22.14
900.765	22.2
901.138	22.24
901.511	22.29
901.884	22.33
902.258	22.37
902.631	22.41
903.003	22.45
903.376	22.45
903.749	22.44
904.122	22.4
904.495	22.38
904.867	22.29
905.24	22.22
905.612	22.16
905.985	22.07
906.357	22
906.729	21.94
907.102	21.87
907.474	21.84
907.846	21.81
908.218	21.78
908.59	21.74
908.962	21.74
909.334	21.71
909.705	21.7
910.077	21.71
910.449	21.7
910.82	21.68
911.192	21.68
911.563	21.65
911.935	21.62
912.306	21.6
912.677	21.58
913.048	21.6
913.419	21.6
913.79	21.59
914.161	21.57
914.532	21.55
914.903	21.53
915.274	21.52
915.645	21.52
916.015	21.53
916.386	21.52
916.756	21.54
917.127	21.54
917.497	21.55
917.868	21.57
918.238	21.59
918.608	21.62
918.978	21.63
919.348	21.64
919.718	21.64
920.088	21.64
920.458	21.64
920.828	21.6
921.198	21.56
921.567	21.55
921.937	21.53
922.306	21.51
922.676	21.48
923.045	21.46
923.415	21.43
923.784	21.41
924.153	21.37
924.522	21.34
924.891	21.32
925.26	21.28
925.629	21.23
925.998	21.17
926.367	21.11
926.736	21.05
927.104	20.97
927.473	20.88
927.842	20.77
928.21	20.68
928.578	20.57
928.947	20.46
929.315	20.33
929.683	20.21
930.051	20.1
930.42	19.97
930.788	19.83
931.156	19.7
931.523	19.59
931.891	19.55
932.259	19.47
932.627	19.39
932.994	19.31
933.362	19.25
933.729	19.21
934.097	19.19
934.464	19.2
934.831	19.2
935.199	19.25
935.566	19.29
935.933	19.25
936.3	19.27
936.667	19.32
937.034	19.45
937.401	19.57
937.767	19.69
938.134	19.76
938.501	19.83
938.867	19.97
939.234	20.04
939.6	20.12
939.967	20.24
940.333	20.26
940.699	20.28
941.065	20.24
941.431	20.21
941.798	20.17
942.163	20.16
942.529	20.13
942.895	20.07
943.261	19.99
943.627	19.97
943.992	19.95
944.358	19.95
944.723	19.97
945.089	19.93
945.454	19.93
945.82	19.92
946.185	19.97
946.55	19.91
946.915	19.88
947.28	19.88
947.645	19.85
948.01	19.88
948.375	19.9
948.74	19.85
949.104	19.91
949.469	19.89
949.834	19.86
950.198	19.78
950.562	19.77
950.927	19.78
951.291	19.75
951.655	19.71
952.02	19.64
952.384	19.55
952.748	19.53
953.112	19.49
953.476	19.45
953.839	19.4
954.203	19.35
954.567	19.37
954.931	19.34
955.294	19.33
955.658	19.36
956.021	19.33
956.385	19.35
956.748	19.33
957.111	19.29
957.474	19.34
957.837	19.34
958.2	19.37
958.563	19.34
958.926	19.35
959.289	19.37
959.652	19.33
960.015	19.35
960.377	19.33
960.74	19.38
961.102	19.41
961.465	19.41
961.827	19.49
962.189	19.54
962.552	19.55
962.914	19.57
963.276	19.59
963.638	19.64
964	19.66
964.362	19.69
964.724	19.69
965.085	19.72
965.447	19.72
965.809	19.68
966.17	19.66
966.532	19.73
966.893	19.77
967.255	19.79
967.616	19.8
967.977	19.84
968.338	19.92
968.699	19.98
969.061	20.01
969.421	20.06
969.782	20.13
970.143	20.14
970.504	20.14
970.865	20.14
971.225	20.18
971.586	20.16
971.946	20.14
972.307	20.09
972.667	20.03
973.027	20.03
973.388	19.94
973.748	19.91
974.108	19.99
974.468	19.96
974.828	19.97
975.188	19.95
975.548	19.97
975.907	19.97
976.267	20.01
976.627	20.06
976.986	20.06
977.346	20.1
977.705	20.08
978.064	20.06
978.424	20.16
978.783	20.17
979.142	20.15
979.501	20.22
979.86	20.3
980.219	20.33
980.578	20.35
980.937	20.4
981.296	20.42
981.654	20.48
982.013	20.52
982.371	20.49
982.73	20.54
983.088	20.63
983.447	20.62
983.805	20.62
984.163	20.58
984.521	20.55
984.879	20.53
985.237	20.63
985.595	20.71
985.953	20.67
986.311	20.63
986.669	20.61
987.026	20.61
987.384	20.63
987.741	20.64
988.099	20.73
988.456	20.75
988.814	20.81
989.171	20.79
989.528	20.81
989.885	20.88
990.242	20.93
990.599	21
990.956	21.03
991.313	21.1
991.67	21.14
992.027	21.28
992.383	21.39
992.74	21.48
993.096	21.45
993.453	21.4
993.809	21.42
994.165	21.5
994.522	21.6
994.878	21.57
995.234	21.56
995.59	21.63
995.946	21.55
996.302	21.52
996.658	21.54
997.013	21.68
997.369	21.81
997.725	21.87
998.08	21.98
998.436	21.9
998.791	22.03
999.147	22
999.502	22.09
999.857	22.06
1000.212	22.05
1000.567	22.08
1000.922	22.04
1001.277	22.01
1001.632	21.98
1001.987	21.97
1002.342	22.05
1002.696	22.12
1003.051	22.32
1003.406	22.3
1003.76	22.4
1004.114	22.47
1004.469	22.5
1004.823	22.78
1005.177	22.88
1005.531	22.99
1005.885	23.07
1006.239	23.11
1006.593	23.2
1006.947	23.19
1007.301	23.18
1007.655	23.26
1008.008	23.42
1008.362	23.51
1008.715	23.37
1009.069	23.46
1009.422	23.56
1009.776	23.51
1010.129	23.63
1010.482	23.6
1010.835	23.75
1011.188	24.05
1011.541	24.06
1011.894	24.03
1012.247	23.96
1012.6	23.94
1012.952	23.98
1013.305	24.05
1013.657	24.16
1014.01	24.11
1014.362	24.22
1014.715	24.31
1015.067	24.18
1015.419	24.34
1015.771	24.34
1016.123	24.55
1016.475	24.6
1016.827	24.6
1017.179	24.77
1017.531	24.99
1017.883	25.09
1018.234	25.33
1018.586	25.22
1018.938	25.51
1019.289	25.62
1019.64	25.84
1019.992	25.94
1020.343	26.15
1020.694	26.24
1021.045	26.16
1021.396	26.16
1021.747	26.43
1022.098	26.46
1022.449	26.66
1022.8	26.66
1023.151	26.77
1023.501	27.03
1023.852	27.28
1024.202	27.38
1024.553	27.49
1024.903	27.79
1025.253	28.14
1025.604	28.36
1025.954	28.21
1026.304	28.4
1026.654	28.58
1027.004	28.44
1027.354	28.35
1027.703	28.23
1028.053	28.4
1028.403	28.84
1028.753	28.64
1029.102	28.65
1029.452	28.7
1029.801	29.16
1030.15	29.18
1030.499	29.05
897.758	1402.59
901.051	1413.76
904.343	1402.73
907.636	1425.27
910.928	1385.85
914.22	1384.8
917.511	1364.22
920.803	1306.77
924.094	1297.95
927.384	1268.44
930.675	1215.17
933.965	1208.87
937.255	1133.21
940.544	1090.3
943.834	1037.58
947.123	1029.49
950.411	966.54
953.7	946.71
956.988	893.67
960.276	857.87
963.563	844.43
966.851	812.99
970.138	805.92
973.424	780.15
976.711	785.48
979.997	747.36
983.283	742.3
986.568	728.12
989.853	705.2
993.138	694.01
996.423	668.2
999.708	648.72
1002.992	642.29
1006.275	613.15
1009.559	608.14
1012.842	584.72
1016.125	568.38
1019.408	558.35
1022.69	551.8
1025.972	541.42
1029.254	526.88
1032.536	518.02
1035.817	506.3
1039.098	499.36
1042.379	488.06
1045.659	482.87
1048.939	471.35
1052.219	462.05
1055.498	455.53
1058.778	443.36
1062.057	432.57
1065.335	428.04
1068.614	422.82
1071.892	418.49
1075.17	405.48
1078.447	398.45
1081.724	395.34
1085.001	392.51
1088.278	383.69
1091.554	375.85
1094.83	376.54
1098.106	374.32
1101.382	371.33
1104.657	368.84
1107.932	362.78
1111.206	364.58
1114.481	355.41
1117.755	351.72
1121.029	348.55
1124.302	348.78
1127.575	341.01
1130.848	337.19
1134.121	333.77
1137.393	331.2
1140.665	323.56
1143.937	322.12
1147.208	320.33
1150.48	319.86
1153.75	315.45
1157.021	311.68
1160.291	311.51
1163.561	308.66
1166.831	308.87
1170.101	306.03
1173.37	305.73
1176.639	306.7
1179.907	303.07
1183.176	299.38
1186.444	298.84
1189.711	298.65
1192.979	297.54
1196.246	295.37
1199.513	296.27
1202.78	294.12
1206.046	294.09
1209.312	290.44
1212.578	291.05
1215.843	293.65
1219.108	291.42
1222.373	297.78
1225.638	299.43
1228.902	303.17
1232.166	303.89
1235.43	306.73
1238.693	310.23
1241.956	312.66
1245.219	317.61
1248.482	317.62
1251.744	317.39
1255.006	319.62
1258.268	310.38
1261.529	308.14
1264.79	305.85
1268.051	303.83
1271.312	300.33
1274.572	296.1
1277.832	292.63
1281.092	288.79
1284.351	286.35
1287.61	285.89
1290.869	281.6
1294.128	280.77
1297.386	279.9
1300.644	276.84
1303.902	277.86
1307.159	276.61
1310.416	277.09
1313.673	277.15
1316.93	279.54
1320.186	279.78
1323.442	280.89
1326.697	285.44
1329.953	286.25
1333.208	288.26
1336.463	292.04
1339.717	292.61
1342.972	295.4
1346.226	298.59
1349.479	298.67
1352.733	300.08
1355.986	301.89
1359.238	301.76
1362.491	303.09
1365.743	305.83
1368.995	305.13
1372.247	304.32
1375.498	303.66
1378.749	307.41
1382	302.53
1385.251	304.43
1388.501	302.36
1391.751	303.52
1395	303.16
1398.25	300.31
1401.499	299.17
1404.748	299.24
1407.996	297.03
1411.244	296.48
1414.492	293.8
1417.74	292.52
1420.987	287.62
1424.234	287.62
1427.481	283.61
1430.728	282.75
1433.974	280.46
1437.22	277.35
1440.465	277.31
1443.711	274.76
1446.956	273.21
1450.201	269.75
1453.445	267.15
1456.689	266.42
1459.933	261.89
1463.177	259.51
1466.42	255.03
1469.663	252.13
1472.906	250.89
1476.148	244.3
1479.391	241.14
1482.633	238.76
1485.874	234.94
1489.115	233.37
1492.356	230.02
1495.597	229.87
1498.838	226.61
1502.078	225.4
1505.318	224.18
1508.557	224.1
1511.797	223.52
1515.036	222.27
1518.274	221.31
1521.513	219.69
1524.751	218.81
1527.989	218.83
1531.227	217.22
1534.464	217.42
1537.701	215.57
1540.938	215.12
1544.174	212.22
1547.41	211.96
1550.646	210.78
1553.882	210.65
1557.117	207.97
1560.352	206.78
1563.587	206.05
1566.821	204.67
1570.055	202.38
1573.289	201.32
1576.523	200.64
1579.756	199.33
1582.989	198.05
1586.222	197.95
1589.454	196.16
1592.686	198.33
1595.918	196.98
1599.15	195.95
1602.381	196.67
1605.612	196.67
1608.843	197.47
1612.073	197.16
1615.303	198.3
1618.533	198.12
1621.762	197.64
1624.992	199.21
1628.221	198.16
1631.449	198.92
1634.678	198.28
1637.906	198.86
1641.134	199.47
1644.361	198.64
1647.588	199.68
1650.815	198.64
1654.042	197.96
1657.269	199.08
1660.495	198.5
1663.72	197.91
1666.946	198.46
1670.171	199.27
1673.396	198.82
1676.621	198.75
1679.845	199.18
1683.069	199.09
1686.293	200.69
1689.517	201.63
1692.74	201.52
1695.963	202.15
1699.185	203.92
1702.408	204.02
1705.63	204.99
1708.852	205.46
1712.073	206.08
1715.294	206.61
1718.515	208.09
1721.736	207.48
1724.956	208.35
1728.176	208.46
1731.396	210.08
1734.616	209.45
1737.835	210.58
1741.054	208.68
1744.272	209.54
1747.491	211.35
1750.709	211.43
1753.927	210.98
1757.144	210.51
1760.361	211.08
1763.578	211.63
1766.795	210.99
1770.011	212.91
1773.227	212.57
1776.443	215.94
1779.658	216.99
1782.874	215.8
1786.089	216.85
1789.303	217.56
1792.518	220.45
1795.732	220.57
1798.945	222.76
1802.159	223.22
1805.372	223.46
1808.585	227.36
1811.797	227.65
1815.01	228
1818.222	230.1
1821.434	232.32
1824.645	233.23
1827.856	236.86
1831.067	239.03
1834.278	238.21
1837.488	240.37
1840.698	241.87
1843.908	239.7
1847.117	241.17
1850.326	242.8
1853.535	242.13
1856.744	245.46
1859.952	245.3
1863.16	244.12
1866.368	242.24
1869.575	245.29
1872.782	241.85
1875.989	241.47
1879.196	240.75
1882.402	239.32
1885.608	240.06
1888.814	241.1
1892.019	240.54
1895.224	240.36
1898.429	239.29
1901.634	241.18
1904.838	240.7
1908.042	243.62
1911.246	245.02
1914.449	246.7
1917.652	247.01
1920.855	246.77
1924.058	246.39
1927.26	245.19
1930.462	246.09
1933.664	248.55
1936.865	246.9
1940.066	247.28
1943.267	245.55
1946.467	244.25
1949.668	246.33
1952.868	249.25
1956.067	249.15
1959.267	249.47
1962.466	250.45
1965.665	248.81
1968.863	249.99
1972.061	253.87
1975.259	255.41
1978.457	257.42
1981.654	259.81
1984.852	259.8
1988.048	259.34
1991.245	261.61
1994.441	264.58
1997.637	266.16
2000.833	271.96
2004.028	274.61
2007.223	274.49
2010.418	277.76
2013.613	282.15
2016.807	285.34
2020.001	287.81
2023.194	291.62
2026.388	298
2029.581	304.57
2032.774	307.74
2035.966	313.03
2039.158	313.73
2042.35	320.97
2045.542	323.41
2048.733	328.98
2051.924	333.27
2055.115	339.42
2058.306	340.27
2061.496	343.57
2064.686	343.74
2067.875	349.29
2071.065	350.68
2074.254	349.13
2077.442	353.02
2080.631	354.78
2083.819	357.71
2087.007	358.44
2090.195	362.28
2093.382	365.05
2096.569	362.85
2099.756	368.65
2102.942	369.45
2106.128	372.58
2109.314	381.84
2112.5	380.45
2115.685	388.41
2118.87	389.68
2122.055	396.44
2125.239	398.82
2128.424	403.87
2131.608	408.32
2134.791	413.15
2137.974	415.33
2141.157	416.2
2144.34	416.74
2147.523	423.08
2150.705	419.5
2153.887	423.22
2157.068	424.61
2160.25	420.28
2163.431	423.15
2166.611	427.04
2169.792	435.3
2172.972	438.76
2176.152	442.4
2179.331	448.52
2182.511	455.47
2185.69	460.59
2188.868	470.57
2192.047	472.48
2195.225	487.26
2198.403	498.9
2201.58	507.52
2204.758	516.84
2207.935	528.64
2211.111	537.62
2214.288	543.88
2217.464	545.44
2220.64	555.06
2223.815	561.2
2226.991	582.79
2230.166	583.74
2233.34	594.23
2236.515	604.13
2239.689	603.25
2242.863	606.71
2246.036	625.79
2249.209	619.32
2252.382	630.17
2255.555	648.46
2258.727	650.99
2261.9	653.72
2265.071	660.84
2268.243	671.01
2271.414	678.57
2274.585	695.85
2277.756	704.23
2280.926	707.66
2284.096	726.75
2287.266	742.09
2290.436	748.23
2293.605	765.66
2296.774	789.97
2299.942	814.89
2303.111	818.02
2306.279	837.73
2309.447	849.3
2312.614	869.37
2315.781	892.2
2318.948	932.76
2322.115	921.51
2325.281	969.67
2328.447	948.52
2331.613	990.93
2334.779	978.96
2337.944	1021.96
2341.109	1032.16
2344.274	1056
2347.438	1095.05
2350.602	1097.04
2353.766	1130.06
2356.929	1143.94
2360.092	1136.93
2363.255	1222.32
2366.418	1213.43
2369.58	1236.54
2372.742	1317.72
2375.904	1348.77
2379.066	1343.66
2382.227	1316.11
2385.388	1428.9
2388.548	1428.69
2391.709	1449.42
2394.869	1615.54
2398.029	1544.09
2401.188	1588.87
2404.347	1580.04
2407.506	1549.74
2410.665	1594.66
2413.823	1690.82
2416.981	1790.65
2420.139	1729.7
2423.296	1713.5
2426.453	1786.99
2429.61	1717.7
2432.767	1796.15
2435.923	1777.85
2439.079	1949.11
2442.235	1976.73
2445.391	1954.34
2448.546	1943.6
2451.701	1890.42
2454.855	1887.84
2458.009	1999.39
2461.163	2083.35
2464.317	2159.35
2467.471	2217.16
2470.624	2219.25
2473.777	2155.47
2476.929	2097.16
2480.082	2046.68
2483.234	2017.65
2486.385	2120.78
2489.537	2129.26
2492.688	2210.67
2495.839	2148.8
2498.989	2102.4
2502.14	2113.43
2505.29	2139.01
2508.439	2175.45
2511.589	2169.7
2514.738	2359.58
2517.887	2312.09
2521.035	2441.86
2524.183	2464.96
2527.331	2482.35
2530.479	2471.87
2533.627	2490.59
