Data from N_2_DIV_WI_4N_Splice17_13-19-11-076.txt Node
Date: Sat Mar 07 13:19:11 EST 2020
User: sa697716
Spectrometer: NQ5500242
Trigger mode: 0
Integration Time (sec): 1.450000E-1
Scans to average: 20
Nonlinearity correction enabled: false
Boxcar width: 5
Storing dark spectrum: false
XAxis mode: Wavelengths
Number of Pixels in Spectrum: 512
>>>>>Begin Spectral Data<<<<<
187.83	113.72
188.298	135.2
188.766	126.13
189.233	113.64
189.701	114.64
190.169	133.12
190.636	132.97
191.104	117.8
191.571	-133.08
192.039	-425.78
192.506	-707.38
192.974	99.24
193.441	113.66
193.908	77.3
194.375	109.09
194.842	48.27
195.31	68.84
195.777	67.66
196.244	36.43
196.711	39.3
197.177	42.34
197.644	42.72
198.111	43.08
198.578	44.11
199.045	44.64
199.511	44.21
199.978	44.26
200.445	44.59
200.911	44.57
201.378	44.87
201.844	44.87
202.31	44.63
202.777	44.81
203.243	45.04
203.709	44.5
204.176	43.82
204.642	43.86
205.108	43.89
205.574	43.46
206.04	42.86
206.506	42.28
206.972	42.17
207.438	41.52
207.903	40.93
208.369	39.93
208.835	39.44
209.301	38.9
209.766	37.69
210.232	36.76
210.697	35.76
211.163	35.14
211.628	34.4
212.094	33.53
212.559	33.14
213.024	32.49
213.49	32.04
213.955	31.56
214.42	30.83
214.885	30.03
215.35	29.12
215.815	28.08
216.28	26.58
216.745	24.83
217.21	23.17
217.675	21.62
218.14	20.19
218.604	18.99
219.069	17.95
219.534	17.15
219.998	16.54
220.463	15.99
220.927	15.45
221.392	15.06
221.856	14.74
222.32	14.43
222.785	14.13
223.249	13.91
223.713	13.69
224.177	13.47
224.642	13.3
225.106	13.07
225.57	12.86
226.034	12.68
226.497	12.49
226.961	12.32
227.425	12.17
227.889	12.03
228.353	11.88
228.816	11.72
229.28	11.58
229.744	11.43
230.207	11.29
230.671	11.15
231.134	11.01
231.597	10.9
232.061	10.77
232.524	10.65
232.987	10.53
233.45	10.41
233.914	10.3
234.377	10.18
234.84	10.07
235.303	9.98
235.766	9.89
236.229	9.79
236.691	9.69
237.154	9.6
237.617	9.52
238.08	9.42
238.542	9.33
239.005	9.25
239.468	9.17
239.93	9.09
240.393	9.02
240.855	8.92
241.317	8.85
241.78	8.76
242.242	8.68
242.704	8.6
243.166	8.53
243.629	8.46
244.091	8.38
244.553	8.31
245.015	8.24
245.477	8.16
245.939	8.09
246.4	8.02
246.862	7.97
247.324	7.91
247.786	7.84
248.247	7.78
248.709	7.71
249.17	7.64
249.632	7.59
250.093	7.54
250.555	7.48
251.016	7.44
251.477	7.38
251.939	7.33
252.4	7.27
252.861	7.22
253.322	7.17
253.783	7.12
254.244	7.08
254.705	7.02
255.166	6.97
255.627	6.92
256.088	6.88
256.549	6.84
257.009	6.79
257.47	6.74
257.931	6.7
258.391	6.65
258.852	6.6
259.312	6.55
259.773	6.51
260.233	6.47
260.694	6.44
261.154	6.38
261.614	6.34
262.074	6.3
262.534	6.26
262.994	6.23
263.455	6.2
263.915	6.17
264.374	6.14
264.834	6.11
265.294	6.07
265.754	6.04
266.214	6.02
266.673	6
267.133	5.98
267.593	5.96
268.052	5.93
268.512	5.91
268.971	5.89
269.431	5.86
269.89	5.84
270.349	5.83
270.809	5.81
271.268	5.8
271.727	5.78
272.186	5.76
272.645	5.74
273.104	5.72
273.563	5.7
274.022	5.68
274.481	5.67
274.94	5.65
275.399	5.62
275.857	5.6
276.316	5.57
276.775	5.55
277.233	5.54
277.692	5.52
278.15	5.5
278.609	5.49
279.067	5.46
279.525	5.44
279.984	5.42
280.442	5.4
280.9	5.39
281.358	5.38
281.816	5.36
282.274	5.35
282.732	5.33
283.19	5.31
283.648	5.28
284.106	5.27
284.564	5.25
285.021	5.24
285.479	5.22
285.937	5.2
286.394	5.18
286.852	5.16
287.309	5.14
287.767	5.11
288.224	5.1
288.682	5.08
289.139	5.05
289.596	5.02
290.053	4.99
290.511	4.96
290.968	4.94
291.425	4.92
291.882	4.9
292.339	4.88
292.796	4.86
293.252	4.83
293.709	4.82
294.166	4.81
294.623	4.8
295.079	4.78
295.536	4.77
295.992	4.75
296.449	4.73
296.905	4.72
297.362	4.71
297.818	4.69
298.274	4.69
298.731	4.67
299.187	4.65
299.643	4.64
300.099	4.62
300.555	4.61
301.011	4.6
301.467	4.59
301.923	4.57
302.379	4.56
302.835	4.55
303.291	4.54
303.746	4.53
304.202	4.52
304.658	4.51
305.113	4.5
305.569	4.49
306.024	4.48
306.479	4.47
306.935	4.46
307.39	4.45
307.845	4.44
308.301	4.44
308.756	4.43
309.211	4.42
309.666	4.42
310.121	4.41
310.576	4.41
311.031	4.4
311.486	4.4
311.94	4.4
312.395	4.4
312.85	4.39
313.305	4.39
313.759	4.38
314.214	4.38
314.668	4.36
315.123	4.36
315.577	4.35
316.032	4.34
316.486	4.33
316.94	4.31
317.394	4.3
317.849	4.29
318.303	4.27
318.757	4.24
319.211	4.23
319.665	4.22
320.119	4.2
320.572	4.19
321.026	4.18
321.48	4.17
321.934	4.15
322.387	4.14
322.841	4.13
323.295	4.14
323.748	4.14
324.202	4.13
324.655	4.12
325.108	4.13
325.562	4.12
326.015	4.12
326.468	4.12
326.921	4.12
327.374	4.12
327.827	4.11
328.28	4.1
328.733	4.09
329.186	4.08
329.639	4.08
330.092	4.07
330.545	4.06
330.997	4.05
331.45	4.05
331.903	4.05
332.355	4.06
332.808	4.05
333.26	4.04
333.713	4.04
334.165	4.04
334.617	4.04
335.069	4.04
335.522	4.05
335.974	4.05
336.426	4.04
336.878	4.03
337.33	4.02
337.782	4.02
338.234	4.02
338.686	4.02
339.137	4.02
339.589	4.01
340.041	4
340.493	3.98
340.944	3.96
341.396	3.95
341.847	3.95
342.299	3.94
342.75	3.92
343.201	3.9
343.653	3.89
344.104	3.86
344.555	3.85
345.006	3.83
345.457	3.82
345.908	3.82
346.359	3.82
346.81	3.8
347.261	3.79
347.712	3.78
348.163	3.77
348.613	3.78
349.064	3.78
349.515	3.78
349.965	3.78
350.416	3.76
350.866	3.76
351.317	3.75
351.767	3.75
352.217	3.74
352.668	3.74
353.118	3.74
353.568	3.73
354.018	3.73
354.468	3.74
354.918	3.73
355.368	3.74
355.818	3.74
356.268	3.73
356.718	3.73
357.168	3.73
357.617	3.72
358.067	3.73
358.517	3.73
358.966	3.73
359.416	3.71
359.865	3.71
360.315	3.71
360.764	3.71
361.213	3.7
361.663	3.7
362.112	3.7
362.561	3.71
363.01	3.7
363.459	3.68
363.908	3.68
364.357	3.68
364.806	3.67
365.255	3.67
365.703	3.67
366.152	3.67
366.601	3.66
367.05	3.66
367.498	3.65
367.947	3.64
368.395	3.65
368.844	3.64
369.292	3.63
369.74	3.63
370.189	3.62
370.637	3.61
371.085	3.6
371.533	3.59
371.981	3.58
372.429	3.58
372.877	3.58
373.325	3.57
373.773	3.55
374.221	3.55
374.669	3.53
375.116	3.52
375.564	3.51
376.012	3.5
376.459	3.49
376.907	3.5
377.354	3.49
377.801	3.49
378.249	3.49
378.696	3.48
379.143	3.48
379.591	3.49
380.038	3.49
380.485	3.5
380.932	3.49
381.379	3.49
381.826	3.48
382.273	3.47
382.72	3.46
383.166	3.46
383.613	3.46
384.06	3.44
384.506	3.44
384.953	3.42
385.4	3.41
385.846	3.42
386.292	3.42
386.739	3.41
387.185	3.41
387.631	3.41
388.078	3.4
388.524	3.4
388.97	3.41
389.416	3.41
389.862	3.42
390.308	3.43
390.754	3.43
391.2	3.43
391.645	3.43
392.091	3.44
392.537	3.45
392.983	3.44
393.428	3.44
393.874	3.44
394.319	3.44
394.765	3.43
395.21	3.41
395.655	3.41
396.101	3.42
396.546	3.42
396.991	3.43
397.436	3.43
397.881	3.45
398.326	3.47
398.771	3.47
399.216	3.47
399.661	3.49
400.106	3.5
400.551	3.51
400.995	3.5
401.44	3.5
401.885	3.51
402.329	3.51
402.774	3.51
403.218	3.53
403.663	3.55
404.107	3.57
404.551	3.58
404.995	3.59
405.44	3.59
405.884	3.6
406.328	3.62
406.772	3.62
407.216	3.63
407.66	3.63
408.104	3.62
408.547	3.63
408.991	3.63
409.435	3.62
409.879	3.63
410.322	3.64
410.766	3.66
411.209	3.68
411.653	3.7
412.096	3.72
412.54	3.73
412.983	3.74
413.426	3.76
413.869	3.77
414.312	3.8
414.756	3.82
415.199	3.82
415.642	3.82
416.085	3.82
416.527	3.81
416.97	3.79
417.413	3.8
417.856	3.8
418.298	3.79
418.741	3.79
419.184	3.78
419.626	3.76
420.069	3.78
420.511	3.78
420.953	3.77
421.396	3.79
421.838	3.8
422.28	3.81
422.722	3.82
423.164	3.83
423.606	3.85
424.048	3.86
424.49	3.87
424.932	3.86
425.374	3.86
425.816	3.85
426.258	3.84
426.699	3.84
427.141	3.84
427.582	3.84
428.024	3.83
428.465	3.83
428.907	3.82
429.348	3.8
429.789	3.8
430.231	3.82
430.672	3.85
431.113	3.88
431.554	3.88
431.995	3.88
432.436	3.89
432.877	3.89
433.318	3.9
433.759	3.92
434.2	3.95
434.64	3.97
435.081	3.97
435.522	3.96
435.962	3.96
436.403	3.99
436.843	4
437.284	4
437.724	4.02
438.164	4.03
438.604	4.03
439.045	4.03
439.485	4.03
439.925	4.03
440.365	4.03
440.805	4.03
441.245	4.04
441.685	4.04
442.125	4.07
442.564	4.05
443.004	4.04
443.444	4.04
443.883	4.06
444.323	4.05
444.762	4.05
445.202	4.06
445.641	4.06
446.081	4.06
446.52	4.06
446.959	4.07
447.398	4.09
447.837	4.09
448.276	4.1
448.716	4.1
449.154	4.12
449.593	4.13
450.032	4.14
450.471	4.13
450.91	4.12
451.349	4.12
451.787	4.1
452.226	4.09
452.664	4.09
453.103	4.08
453.541	4.07
453.98	4.05
454.418	4.03
454.856	4.01
455.295	4
455.733	3.99
456.171	3.98
456.609	3.98
457.047	3.97
457.485	3.97
457.923	3.96
458.361	3.95
458.798	3.96
459.236	3.96
459.674	3.97
460.111	3.97
460.549	3.98
460.987	3.98
461.424	3.98
461.862	3.98
462.299	3.99
462.736	3.98
463.173	3.99
463.611	3.99
464.048	3.99
464.485	3.99
464.922	3.99
465.359	3.98
465.796	4
466.233	4.01
466.67	4.02
467.106	4.04
467.543	4.03
467.98	4.02
468.416	4.02
468.853	4.02
469.29	4
469.726	4
470.162	4
470.599	3.98
471.035	3.96
471.471	3.95
471.907	3.93
472.344	3.92
472.78	3.92
473.216	3.91
473.652	3.91
474.088	3.89
474.523	3.88
474.959	3.87
475.395	3.86
475.831	3.85
476.266	3.84
476.702	3.82
477.138	3.83
477.573	3.83
478.008	3.82
478.444	3.8
478.879	3.81
479.314	3.8
479.75	3.79
480.185	3.78
480.62	3.77
481.055	3.75
481.49	3.74
481.925	3.73
482.36	3.72
482.795	3.71
483.229	3.71
483.664	3.71
484.099	3.7
484.534	3.7
484.968	3.71
485.403	3.71
485.837	3.72
486.271	3.73
486.706	3.73
487.14	3.73
487.574	3.75
488.009	3.75
488.443	3.76
488.877	3.78
489.311	3.79
489.745	3.8
490.179	3.82
490.613	3.85
491.046	3.87
491.48	3.89
491.914	3.91
492.348	3.93
492.781	3.97
493.215	4
493.648	4.04
494.082	4.07
494.515	4.1
494.948	4.12
495.382	4.15
495.815	4.2
496.248	4.24
496.681	4.3
497.114	4.35
497.547	4.4
497.98	4.46
498.413	4.5
498.846	4.56
499.279	4.63
499.711	4.7
500.144	4.78
500.577	4.85
501.009	4.93
501.442	5
501.874	5.1
502.306	5.19
502.739	5.29
503.171	5.4
503.603	5.51
504.036	5.62
504.468	5.73
504.9	5.85
505.332	5.98
505.764	6.11
506.196	6.26
506.627	6.4
507.059	6.56
507.491	6.72
507.923	6.89
508.354	7.07
508.786	7.27
509.217	7.47
509.649	7.66
510.08	7.86
510.512	8.07
510.943	8.28
511.374	8.5
511.805	8.72
512.237	8.93
512.668	9.16
513.099	9.39
513.53	9.62
513.961	9.86
514.391	10.12
514.822	10.38
515.253	10.63
515.684	10.89
516.114	11.15
516.545	11.41
516.975	11.7
517.406	11.97
517.836	12.25
518.267	12.53
518.697	12.79
519.127	13.05
519.558	13.33
519.988	13.6
520.418	13.85
520.848	14.12
521.278	14.39
521.708	14.7
522.138	14.96
522.567	15.2
522.997	15.43
523.427	15.67
523.857	15.9
524.286	16.11
524.716	16.33
525.145	16.56
525.575	16.77
526.004	16.96
526.433	17.1
526.863	17.29
527.292	17.48
527.721	17.66
528.15	17.82
528.579	17.99
529.008	18.16
529.437	18.31
529.866	18.45
530.295	18.6
530.724	18.74
531.152	18.86
531.581	18.99
532.01	19.1
532.438	19.21
532.867	19.32
533.295	19.41
533.723	19.52
534.152	19.6
534.58	19.68
535.008	19.74
535.436	19.8
535.865	19.87
536.293	19.92
536.721	19.96
537.149	20.02
537.576	20.06
538.004	20.11
538.432	20.15
538.86	20.2
539.287	20.23
539.715	20.29
540.143	20.32
540.57	20.36
540.998	20.38
541.425	20.41
541.852	20.45
542.28	20.48
542.707	20.51
543.134	20.53
543.561	20.56
543.988	20.59
544.415	20.6
544.842	20.63
545.269	20.64
545.696	20.69
546.123	20.71
546.549	20.72
546.976	20.76
547.403	20.77
547.829	20.78
548.256	20.8
548.682	20.8
549.108	20.83
549.535	20.85
549.961	20.87
550.387	20.86
550.813	20.88
551.24	20.88
551.666	20.87
552.092	20.87
552.518	20.85
552.943	20.82
553.369	20.8
553.795	20.76
554.221	20.71
554.646	20.67
555.072	20.63
555.498	20.58
555.923	20.53
556.349	20.45
556.774	20.39
557.199	20.33
557.625	20.26
558.05	20.18
558.475	20.1
558.9	20.02
559.325	19.94
559.75	19.85
560.175	19.75
560.6	19.65
561.025	19.55
561.449	19.44
561.874	19.33
562.299	19.21
562.723	19.1
563.148	18.97
563.572	18.82
563.997	18.68
564.421	18.53
564.846	18.38
565.27	18.24
565.694	18.09
566.118	17.94
566.542	17.79
566.966	17.64
567.39	17.48
567.814	17.33
568.238	17.18
568.662	17.03
569.086	16.89
569.509	16.75
569.933	16.61
570.357	16.46
570.78	16.31
571.204	16.16
571.627	16.02
572.05	15.88
572.474	15.75
572.897	15.63
573.32	15.49
573.743	15.36
574.166	15.23
574.589	15.1
575.012	14.99
575.435	14.87
575.858	14.77
576.281	14.66
576.704	14.55
577.126	14.45
577.549	14.36
577.972	14.27
578.394	14.18
578.817	14.09
579.239	14
579.661	13.92
580.084	13.85
580.506	13.76
580.928	13.68
581.35	13.6
581.772	13.52
582.194	13.44
582.616	13.38
583.038	13.3
583.46	13.23
583.882	13.15
584.303	13.08
584.725	13.01
585.147	12.95
585.568	12.89
585.99	12.82
586.411	12.76
586.833	12.69
587.254	12.61
587.675	12.55
588.096	12.49
588.518	12.45
588.939	12.4
589.36	12.36
589.781	12.31
590.202	12.27
590.623	12.23
591.043	12.18
591.464	12.15
591.885	12.11
592.305	12.07
592.726	12.04
593.147	12
593.567	11.97
593.987	11.93
594.408	11.89
594.828	11.85
595.248	11.82
595.669	11.8
596.089	11.77
596.509	11.75
596.929	11.72
597.349	11.68
597.769	11.65
598.189	11.62
598.608	11.6
599.028	11.57
599.448	11.54
599.867	11.5
600.287	11.47
600.706	11.44
601.126	11.4
601.545	11.36
601.965	11.33
602.384	11.28
602.803	11.23
603.222	11.18
603.641	11.13
604.061	11.08
604.48	11.02
604.898	10.95
605.317	10.89
605.736	10.83
606.155	10.78
606.574	10.71
606.992	10.64
607.411	10.57
607.829	10.48
608.248	10.4
608.666	10.32
609.085	10.25
609.503	10.18
609.921	10.12
610.339	10.05
610.758	9.97
611.176	9.89
611.594	9.81
612.012	9.74
612.43	9.69
612.847	9.62
613.265	9.56
613.683	9.5
614.101	9.43
614.518	9.35
614.936	9.28
615.353	9.21
615.771	9.16
616.188	9.1
616.606	9.05
617.023	9
617.44	8.95
617.857	8.9
618.274	8.85
618.691	8.8
619.108	8.76
619.525	8.72
619.942	8.69
620.359	8.65
620.776	8.62
621.192	8.59
621.609	8.57
622.026	8.54
622.442	8.52
622.859	8.5
623.275	8.49
623.691	8.47
624.108	8.45
624.524	8.44
624.94	8.42
625.356	8.42
625.772	8.41
626.188	8.39
626.604	8.38
627.02	8.36
627.436	8.35
627.852	8.35
628.268	8.35
628.683	8.34
629.099	8.33
629.514	8.32
629.93	8.3
630.345	8.28
630.761	8.25
631.176	8.24
631.591	8.2
632.007	8.17
632.422	8.12
632.837	8.08
633.252	8.03
633.667	7.97
634.082	7.91
634.497	7.86
634.911	7.8
635.326	7.73
635.741	7.66
636.155	7.59
636.57	7.52
636.984	7.45
637.399	7.37
637.813	7.29
638.228	7.19
638.642	7.1
639.056	7
639.47	6.91
639.884	6.83
640.298	6.73
640.712	6.65
641.126	6.56
641.54	6.46
641.954	6.37
642.368	6.29
642.781	6.22
643.195	6.13
643.609	6.05
644.022	5.97
644.436	5.89
644.849	5.81
645.262	5.74
645.676	5.67
646.089	5.61
646.502	5.56
646.915	5.5
647.328	5.45
647.741	5.4
648.154	5.36
648.567	5.32
648.98	5.28
649.393	5.25
649.805	5.22
650.218	5.18
650.631	5.16
651.043	5.12
651.456	5.09
651.868	5.06
652.28	5.04
652.693	5.01
653.105	4.98
653.517	4.95
653.929	4.92
654.341	4.87
654.753	4.83
655.165	4.78
655.577	4.74
655.989	4.69
656.401	4.64
656.813	4.6
657.224	4.54
657.636	4.49
658.047	4.44
658.459	4.38
658.87	4.33
659.282	4.28
659.693	4.23
660.104	4.17
660.515	4.11
660.926	4.06
661.338	4.01
661.749	3.96
662.159	3.92
662.57	3.88
662.981	3.84
663.392	3.8
663.803	3.77
664.213	3.74
664.624	3.71
665.035	3.68
665.445	3.66
665.855	3.64
666.266	3.62
666.676	3.61
667.086	3.59
667.497	3.57
667.907	3.56
668.317	3.55
668.727	3.55
669.137	3.55
669.547	3.56
669.956	3.56
670.366	3.56
670.776	3.56
671.186	3.56
671.595	3.56
672.005	3.57
672.414	3.58
672.824	3.59
673.233	3.6
673.642	3.61
674.052	3.63
674.461	3.64
674.87	3.65
675.279	3.68
675.688	3.7
676.097	3.73
676.506	3.75
676.915	3.78
677.323	3.8
677.732	3.83
678.141	3.85
678.549	3.88
678.958	3.9
679.366	3.95
679.775	3.99
680.183	4.03
680.592	4.08
681	4.13
681.408	4.18
681.816	4.24
682.224	4.31
682.632	4.39
683.04	4.46
683.448	4.56
683.856	4.64
684.264	4.75
684.671	4.87
685.079	5
685.487	5.15
685.894	5.32
686.302	5.52
686.709	5.71
687.116	5.95
687.524	6.21
687.931	6.49
688.338	6.8
688.745	7.13
689.152	7.48
689.559	7.86
689.966	8.26
690.373	8.67
690.78	9.1
691.187	9.57
691.593	10.04
692	10.52
692.407	11
692.813	11.51
693.22	12.04
693.626	12.58
694.032	13.12
694.439	13.67
694.845	14.24
695.251	14.81
695.657	15.36
696.063	15.92
696.469	16.51
696.875	17.09
697.281	17.66
697.687	18.23
698.093	18.79
698.498	19.35
698.904	19.91
699.31	20.45
699.715	20.99
700.12	21.55
700.526	22.11
700.931	22.63
701.337	23.18
701.742	23.69
702.147	24.2
702.552	24.71
702.957	25.21
703.362	25.7
703.767	26.19
704.172	26.68
704.577	27.14
704.981	27.59
705.386	28.06
705.791	28.49
706.195	28.95
706.6	29.4
707.004	29.82
707.408	30.22
707.813	30.65
708.217	31.07
708.621	31.47
709.025	31.87
709.43	32.26
709.834	32.65
710.237	33.04
710.641	33.41
711.045	33.77
711.449	34.16
711.853	34.56
712.256	34.89
712.66	35.24
713.064	35.59
713.467	35.94
713.87	36.3
714.274	36.6
714.677	36.94
715.08	37.23
715.484	37.56
715.887	37.88
716.29	38.17
716.693	38.5
717.096	38.79
717.499	39.08
717.901	39.37
718.304	39.64
718.707	39.94
719.109	40.19
719.512	40.48
719.915	40.73
720.317	40.95
720.719	41.16
721.122	41.38
721.524	41.59
721.926	41.83
722.328	42.04
722.731	42.26
723.133	42.45
723.535	42.66
723.937	42.86
724.338	43.05
724.74	43.24
725.142	43.52
725.544	43.68
725.945	43.89
726.347	44.03
726.748	44.17
727.15	44.29
727.551	44.46
727.952	44.58
728.354	44.71
728.755	44.84
729.156	44.99
729.557	45.03
729.958	45.16
730.359	45.26
730.76	45.4
731.161	45.52
731.562	45.66
731.962	45.74
732.363	45.84
732.763	45.93
733.164	46.01
733.564	46.09
733.965	46.17
734.365	46.25
734.766	46.35
735.166	46.41
735.566	46.47
735.966	46.55
736.366	46.62
736.766	46.69
737.166	46.75
737.566	46.81
737.966	46.88
738.365	46.93
738.765	47.02
739.165	47.05
739.564	47.12
739.964	47.16
740.363	47.18
740.763	47.24
741.162	47.3
741.561	47.35
741.96	47.39
742.36	47.44
742.759	47.48
743.158	47.49
743.557	47.52
743.955	47.56
744.354	47.6
744.753	47.64
745.152	47.68
745.55	47.71
745.949	47.74
746.348	47.77
746.746	47.77
747.144	47.81
747.543	47.82
747.941	47.86
748.339	47.83
748.737	47.82
749.136	47.82
749.534	47.79
749.932	47.81
750.33	47.82
750.727	47.83
751.125	47.84
751.523	47.85
751.921	47.89
752.318	47.9
752.716	47.93
753.113	47.95
753.511	47.99
753.908	48.03
754.305	48.04
754.703	48.03
755.1	48.04
755.497	48.06
755.894	48.05
756.291	48.06
756.688	48.04
757.085	48.06
757.482	48.09
757.878	48.1
758.275	48.09
758.672	48.07
759.068	48.1
759.465	48.1
759.861	48.1
760.258	48.1
760.654	48.09
761.05	48.1
761.447	48.11
761.843	48.09
762.239	48.09
762.635	48.09
763.031	48.11
763.427	48.09
763.822	48.07
764.218	48.09
764.614	48.1
765.01	48.1
765.405	48.1
765.801	48.11
766.196	48.1
766.592	48.1
766.987	48.08
767.382	48.05
767.778	48.06
768.173	48.08
768.568	48.07
768.963	48.05
769.358	48.07
769.753	48.08
770.148	48.08
770.542	48.09
770.937	48.09
771.332	48.08
771.726	48.1
772.121	48.09
772.515	48.08
772.91	48.07
773.304	48.09
773.699	48.06
774.093	48.04
774.487	48.04
774.881	48.06
775.275	48.07
775.669	48.08
776.063	48.07
776.457	48.07
776.851	48.05
777.245	48.04
777.638	48.01
778.032	48.03
778.425	48.07
778.819	48.08
779.212	48.08
779.606	48.08
779.999	48.08
780.392	48.11
780.786	48.11
781.179	48.13
781.572	48.17
781.965	48.19
782.358	48.18
782.751	48.14
783.143	48.13
783.536	48.14
783.929	48.11
784.322	48.14
784.714	48.14
785.107	48.15
785.499	48.14
785.891	48.13
786.284	48.14
786.676	48.15
787.068	48.15
787.46	48.14
787.852	48.14
788.245	48.15
788.636	48.1
789.028	48.08
789.42	48.07
789.812	48.08
790.204	48.08
790.595	48.06
790.987	48.07
791.378	48.08
791.77	48.11
792.161	48.08
792.553	48.11
792.944	48.1
793.335	48.12
793.726	48.15
794.117	48.13
794.508	48.09
794.899	48.09
795.29	48.1
795.681	48.07
796.072	48.04
796.463	48.07
796.853	48.03
797.244	48.03
797.634	48.02
798.025	48.04
798.415	48.05
798.806	48.08
799.196	48.08
799.586	48.07
799.976	48.09
800.366	48.11
800.756	48.12
801.146	48.17
801.536	48.21
801.926	48.21
802.316	48.18
802.706	48.21
803.095	48.2
803.485	48.18
803.874	48.19
804.264	48.18
804.653	48.19
805.043	48.15
805.432	48.13
805.821	48.13
806.21	48.13
806.599	48.16
806.988	48.14
807.377	48.16
807.766	48.17
808.155	48.19
808.544	48.2
808.933	48.19
809.321	48.23
809.71	48.21
810.098	48.18
810.487	48.19
810.875	48.18
811.264	48.16
811.652	48.18
812.04	48.19
812.428	48.19
812.816	48.18
813.204	48.16
813.592	48.12
813.98	48.14
814.368	48.16
814.756	48.13
815.144	48.12
815.531	48.15
815.919	48.15
816.306	48.15
816.694	48.12
817.081	48.14
817.469	48.17
817.856	48.18
818.243	48.15
818.63	48.13
819.017	48.14
819.404	48.13
819.791	48.11
820.178	48.09
820.565	48.07
820.952	48.07
821.339	48.04
821.725	48.04
822.112	48.06
822.498	48.08
822.885	48.13
823.271	48.12
823.657	48.09
824.044	48.08
824.43	48.09
824.816	48.12
825.202	48.1
825.588	48.11
825.974	48.09
826.36	48.06
826.746	48.05
827.132	48.01
827.517	48.03
827.903	48.07
828.289	48.1
828.674	48.1
829.06	48.08
829.445	48.08
829.83	48.07
830.216	48.07
830.601	48.09
830.986	48.08
831.371	48.1
831.756	48.09
832.141	48.08
832.526	48.06
832.911	48.05
833.295	48.05
833.68	48.07
834.065	48.12
834.449	48.12
834.834	48.1
835.218	48.1
835.603	48.1
835.987	48.09
836.371	48.09
836.755	48.11
837.139	48.08
837.524	48.1
837.908	48.1
838.291	48.11
838.675	48.11
839.059	48.11
839.443	48.11
839.827	48.09
840.21	48.08
840.594	48.09
840.977	48.06
841.361	48.08
841.744	48.05
842.127	48.02
842.511	47.98
842.894	47.97
843.277	47.96
843.66	47.92
844.043	47.95
844.426	47.95
844.809	47.93
845.191	47.96
845.574	47.93
845.957	47.95
846.339	47.95
846.722	47.96
847.104	47.99
847.487	47.98
847.869	47.99
848.252	47.99
848.634	48
849.016	47.99
849.398	47.98
849.78	48
850.162	48
850.544	47.98
850.926	48
851.307	47.97
851.689	47.98
852.071	47.99
852.452	48
852.834	48
853.215	47.99
853.597	47.99
853.978	47.97
854.359	47.97
854.741	47.97
855.122	47.96
855.503	47.93
855.884	47.92
856.265	47.91
856.646	47.89
857.026	47.91
857.407	47.91
857.788	47.91
858.169	47.93
858.549	47.94
858.93	47.97
859.31	47.96
859.69	47.99
860.071	48.02
860.451	48.01
860.831	48.01
861.211	47.98
861.591	47.99
861.971	48
862.351	47.99
862.731	47.98
863.111	47.95
863.491	47.94
863.87	47.92
864.25	47.9
864.629	47.92
865.009	47.94
865.388	47.93
865.768	47.93
866.147	47.92
866.526	47.91
866.905	47.92
867.284	47.95
867.663	47.95
868.042	47.96
868.421	47.97
868.8	47.96
869.179	47.95
869.558	47.95
869.936	47.94
870.315	47.93
870.693	47.93
871.072	47.94
871.45	47.91
871.828	47.94
872.207	47.93
872.585	47.91
872.963	47.91
873.341	47.91
873.719	47.93
874.097	47.92
874.475	47.94
874.853	47.92
875.23	47.92
875.608	47.91
875.986	47.92
876.363	47.94
876.741	47.95
877.118	47.95
877.495	47.94
877.873	47.94
878.25	47.97
878.627	47.98
879.004	47.98
879.381	47.99
879.758	47.99
880.135	47.97
880.512	47.95
880.889	47.95
881.265	47.95
881.642	47.96
882.019	47.94
882.395	47.9
882.772	47.9
883.148	47.87
883.524	47.85
883.901	47.85
884.277	47.83
884.653	47.82
885.029	47.8
885.405	47.78
885.781	47.77
886.157	47.76
886.532	47.77
886.908	47.75
887.284	47.77
887.659	47.75
888.035	47.73
888.411	47.72
888.786	47.71
889.161	47.72
889.537	47.74
889.912	47.74
890.287	47.76
890.662	47.75
891.037	47.75
891.412	47.71
891.787	47.72
892.162	47.72
892.536	47.73
892.911	47.74
893.286	47.72
893.66	47.71
894.035	47.7
894.409	47.68
894.784	47.67
895.158	47.67
895.532	47.71
895.906	47.7
896.281	47.72
896.655	47.71
897.029	47.74
897.402	47.73
897.776	47.74
898.15	47.74
898.524	47.76
898.898	47.77
899.271	47.78
899.645	47.76
900.018	47.77
900.392	47.77
900.765	47.77
901.138	47.73
901.511	47.75
901.884	47.74
902.258	47.75
902.631	47.74
903.003	47.75
903.376	47.74
903.749	47.74
904.122	47.75
904.495	47.73
904.867	47.74
905.24	47.77
905.612	47.77
905.985	47.76
906.357	47.74
906.729	47.73
907.102	47.74
907.474	47.77
907.846	47.76
908.218	47.77
908.59	47.79
908.962	47.77
909.334	47.75
909.705	47.76
910.077	47.77
910.449	47.79
910.82	47.79
911.192	47.78
911.563	47.73
911.935	47.71
912.306	47.7
912.677	47.72
913.048	47.76
913.419	47.77
913.79	47.78
914.161	47.79
914.532	47.79
914.903	47.8
915.274	47.8
915.645	47.81
916.015	47.85
916.386	47.87
916.756	47.84
917.127	47.83
917.497	47.84
917.868	47.83
918.238	47.8
918.608	47.81
918.978	47.81
919.348	47.83
919.718	47.84
920.088	47.82
920.458	47.81
920.828	47.8
921.198	47.77
921.567	47.77
921.937	47.77
922.306	47.76
922.676	47.76
923.045	47.72
923.415	47.69
923.784	47.67
924.153	47.7
924.522	47.69
924.891	47.69
925.26	47.69
925.629	47.67
925.998	47.63
926.367	47.64
926.736	47.61
927.104	47.65
927.473	47.64
927.842	47.6
928.21	47.6
928.578	47.57
928.947	47.59
929.315	47.58
929.683	47.58
930.051	47.58
930.42	47.56
930.788	47.53
931.156	47.49
931.523	47.5
931.891	47.56
932.259	47.55
932.627	47.56
932.994	47.54
933.362	47.52
933.729	47.51
934.097	47.52
934.464	47.55
934.831	47.58
935.199	47.6
935.566	47.63
935.933	47.61
936.3	47.56
936.667	47.57
937.034	47.61
937.401	47.62
937.767	47.65
938.134	47.65
938.501	47.65
938.867	47.66
939.234	47.67
939.6	47.64
939.967	47.62
940.333	47.65
940.699	47.63
941.065	47.52
941.431	47.5
941.798	47.5
942.163	47.5
942.529	47.49
942.895	47.47
943.261	47.4
943.627	47.37
943.992	47.33
944.358	47.36
944.723	47.31
945.089	47.3
945.454	47.35
945.82	47.25
946.185	47.17
946.55	47.08
946.915	47.06
947.28	47.11
947.645	47.11
948.01	47.13
948.375	47.09
948.74	47.07
949.104	47.09
949.469	47.05
949.834	47.05
950.198	47.07
950.562	47.12
950.927	47.1
951.291	46.99
951.655	46.89
952.02	46.84
952.384	46.78
952.748	46.81
953.112	46.77
953.476	46.72
953.839	46.71
954.203	46.67
954.567	46.62
954.931	46.55
955.294	46.54
955.658	46.62
956.021	46.59
956.385	46.6
956.748	46.58
957.111	46.62
957.474	46.64
957.837	46.59
958.2	46.6
958.563	46.59
958.926	46.62
959.289	46.69
959.652	46.73
960.015	46.75
960.377	46.72
960.74	46.69
961.102	46.68
961.465	46.74
961.827	46.8
962.189	46.83
962.552	46.85
962.914	46.85
963.276	46.84
963.638	46.76
964	46.74
964.362	46.75
964.724	46.77
965.085	46.73
965.447	46.69
965.809	46.63
966.17	46.63
966.532	46.62
966.893	46.65
967.255	46.63
967.616	46.63
967.977	46.64
968.338	46.66
968.699	46.63
969.061	46.63
969.421	46.61
969.782	46.65
970.143	46.61
970.504	46.64
970.865	46.6
971.225	46.59
971.586	46.59
971.946	46.59
972.307	46.57
972.667	46.56
973.027	46.57
973.388	46.55
973.748	46.53
974.108	46.57
974.468	46.51
974.828	46.59
975.188	46.59
975.548	46.62
975.907	46.64
976.267	46.62
976.627	46.64
976.986	46.63
977.346	46.63
977.705	46.61
978.064	46.59
978.424	46.62
978.783	46.54
979.142	46.52
979.501	46.49
979.86	46.56
980.219	46.6
980.578	46.63
980.937	46.64
981.296	46.63
981.654	46.59
982.013	46.59
982.371	46.63
982.73	46.66
983.088	46.69
983.447	46.7
983.805	46.64
984.163	46.57
984.521	46.53
984.879	46.51
985.237	46.54
985.595	46.63
985.953	46.64
986.311	46.59
986.669	46.63
987.026	46.59
987.384	46.56
987.741	46.47
988.099	46.54
988.456	46.56
988.814	46.56
989.171	46.58
989.528	46.49
989.885	46.45
990.242	46.43
990.599	46.36
990.956	46.38
991.313	46.38
991.67	46.44
992.027	46.54
992.383	46.52
992.74	46.6
993.096	46.53
993.453	46.6
993.809	46.63
994.165	46.7
994.522	46.81
994.878	46.91
995.234	46.92
995.59	46.96
995.946	46.82
996.302	46.84
996.658	46.87
997.013	46.9
997.369	46.93
997.725	46.92
998.08	46.94
998.436	46.85
998.791	46.79
999.147	46.81
999.502	46.8
999.857	46.87
1000.212	46.8
1000.567	46.66
1000.922	46.66
1001.277	46.62
1001.632	46.65
1001.987	46.5
1002.342	46.51
1002.696	46.52
1003.051	46.67
1003.406	46.83
1003.76	46.82
1004.114	46.91
1004.469	47.05
1004.823	47.32
1005.177	47.38
1005.531	47.48
1005.885	47.62
1006.239	47.71
1006.593	47.83
1006.947	47.65
1007.301	47.4
1007.655	47.5
1008.008	47.55
1008.362	47.53
1008.715	47.33
1009.069	47.27
1009.422	47.19
1009.776	47.09
1010.129	47.04
1010.482	46.87
1010.835	46.99
1011.188	47.14
1011.541	47.08
1011.894	47.15
1012.247	47.1
1012.6	47.12
1012.952	47.32
1013.305	47.46
1013.657	47.47
1014.01	47.47
1014.362	47.6
1014.715	47.66
1015.067	47.71
1015.419	47.7
1015.771	47.53
1016.123	47.58
1016.475	47.56
1016.827	47.54
1017.179	47.44
1017.531	47.57
1017.883	47.52
1018.234	47.62
1018.586	47.55
1018.938	47.64
1019.289	47.51
1019.64	47.61
1019.992	47.55
1020.343	47.61
1020.694	47.5
1021.045	47.5
1021.396	47.47
1021.747	47.7
1022.098	47.67
1022.449	47.73
1022.8	47.65
1023.151	47.75
1023.501	47.88
1023.852	48.21
1024.202	48.25
1024.553	48.16
1024.903	48.27
1025.253	48.47
1025.604	48.41
1025.954	48.3
1026.304	48.38
1026.654	48.5
1027.004	48.64
1027.354	48.47
1027.703	48.25
1028.053	48.43
1028.403	48.76
1028.753	48.65
1029.102	48.63
1029.452	48.68
1029.801	48.83
1030.15	48.8
1030.499	48.62
897.758	1342.28
901.051	1354.63
904.343	1349.04
907.636	1373.75
910.928	1334.87
914.22	1337.59
917.511	1318.83
920.803	1262.31
924.094	1255.9
927.384	1223.94
930.675	1178.98
933.965	1173.9
937.255	1102.71
940.544	1059.95
943.834	1008.72
947.123	1000.92
950.411	941.33
953.7	923.4
956.988	874.58
960.276	838.26
963.563	825.37
966.851	795.56
970.138	787.36
973.424	763.63
976.711	766.8
979.997	731.27
983.283	727.51
986.568	711.62
989.853	690.45
993.138	677.75
996.423	653.04
999.708	633.87
1002.992	626.73
1006.275	598.98
1009.559	594
1012.842	570.79
1016.125	554.99
1019.408	544.49
1022.69	537.64
1025.972	526.21
1029.254	513.25
1032.536	504.77
1035.817	494.05
1039.098	487.48
1042.379	477.66
1045.659	471.72
1048.939	462.48
1052.219	451.52
1055.498	444.63
1058.778	434.16
1062.057	424.46
1065.335	420.41
1068.614	414.98
1071.892	411.07
1075.17	397.92
1078.447	390.26
1081.724	387.36
1085.001	384.02
1088.278	376.86
1091.554	369.19
1094.83	369.36
1098.106	366.91
1101.382	363.86
1104.657	362.09
1107.932	355.92
1111.206	357.86
1114.481	349.06
1117.755	345.54
1121.029	342.82
1124.302	342.35
1127.575	336.2
1130.848	332.13
1134.121	328.23
1137.393	325.66
1140.665	318.68
1143.937	316.38
1147.208	314.17
1150.48	313.84
1153.75	309.62
1157.021	305.47
1160.291	305.81
1163.561	302.53
1166.831	302.5
1170.101	300.46
1173.37	299.88
1176.639	300.12
1179.907	298.11
1183.176	294.42
1186.444	294.76
1189.711	294.12
1192.979	293.25
1196.246	291.14
1199.513	292.16
1202.78	289.84
1206.046	290.01
1209.312	287.3
1212.578	287.52
1215.843	290.3
1219.108	288.03
1222.373	293.41
1225.638	296.02
1228.902	300.07
1232.166	300.23
1235.43	303.23
1238.693	306.51
1241.956	307.84
1245.219	313.19
1248.482	312.67
1251.744	311.54
1255.006	314.2
1258.268	305.98
1261.529	302.96
1264.79	301.11
1268.051	299.33
1271.312	295.4
1274.572	292.13
1277.832	289.64
1281.092	284.96
1284.351	283.31
1287.61	283.35
1290.869	278.65
1294.128	277.05
1297.386	277.01
1300.644	273
1303.902	273.58
1307.159	272.88
1310.416	273.64
1313.673	272.4
1316.93	275.05
1320.186	275.12
1323.442	275.79
1326.697	280.85
1329.953	281.68
1333.208	282.77
1336.463	286.25
1339.717	287.08
1342.972	289.3
1346.226	291.86
1349.479	293.09
1352.733	294.39
1355.986	295.46
1359.238	295.71
1362.491	296.7
1365.743	299.85
1368.995	300.23
1372.247	299.06
1375.498	299.11
1378.749	301.95
1382	298.33
1385.251	298.62
1388.501	297.01
1391.751	298.37
1395	296.59
1398.25	294.21
1401.499	292.33
1404.748	291.08
1407.996	289.5
1411.244	287.85
1414.492	285.89
1417.74	283.21
1420.987	279.2
1424.234	278.71
1427.481	274.7
1430.728	274.44
1433.974	272
1437.22	269.49
1440.465	269.12
1443.711	267.04
1446.956	265.16
1450.201	262.2
1453.445	259.39
1456.689	258.95
1459.933	253.66
1463.177	252.67
1466.42	248.02
1469.663	245.57
1472.906	244.1
1476.148	237.71
1479.391	234.64
1482.633	232.75
1485.874	228.9
1489.115	227.68
1492.356	224.71
1495.597	224.63
1498.838	220.74
1502.078	219.96
1505.318	218.43
1508.557	218.64
1511.797	218.33
1515.036	216.88
1518.274	216.24
1521.513	214.37
1524.751	214.42
1527.989	213.98
1531.227	212.99
1534.464	213.85
1537.701	211.55
1540.938	211.14
1544.174	208.46
1547.41	208.27
1550.646	207.35
1553.882	207.14
1557.117	204.85
1560.352	203.2
1563.587	202.62
1566.821	201.37
1570.055	199.21
1573.289	198.16
1576.523	197.68
1579.756	196.24
1582.989	195.24
1586.222	194.87
1589.454	193.52
1592.686	195.18
1595.918	194.54
1599.15	194.21
1602.381	193.8
1605.612	193.53
1608.843	194.64
1612.073	194.72
1615.303	195.66
1618.533	195.46
1621.762	195.91
1624.992	195.95
1628.221	195.69
1631.449	195.24
1634.678	193.96
1637.906	195.62
1641.134	195.45
1644.361	194.82
1647.588	195.66
1650.815	194.67
1654.042	193.79
1657.269	194.8
1660.495	195.03
1663.72	193.95
1666.946	194.99
1670.171	196.17
1673.396	195.54
1676.621	195.8
1679.845	196.03
1683.069	195.07
1686.293	196.67
1689.517	198.44
1692.74	197.7
1695.963	198.56
1699.185	200.9
1702.408	200.27
1705.63	200.97
1708.852	201.02
1712.073	201.78
1715.294	202.42
1718.515	203.87
1721.736	203.27
1724.956	203.37
1728.176	203.69
1731.396	205.38
1734.616	204.13
1737.835	205.49
1741.054	204.02
1744.272	205.43
1747.491	206.85
1750.709	207.16
1753.927	207.03
1757.144	206.51
1760.361	207.41
1763.578	207.8
1766.795	207.1
1770.011	209.02
1773.227	208.98
1776.443	211.91
1779.658	212.49
1782.874	211.84
1786.089	212.61
1789.303	213.43
1792.518	215.96
1795.732	216.02
1798.945	218.09
1802.159	218.09
1805.372	218.63
1808.585	222.45
1811.797	222.65
1815.01	222.73
1818.222	224.75
1821.434	226.61
1824.645	227.53
1827.856	231.23
1831.067	232.78
1834.278	231.77
1837.488	234
1840.698	235.44
1843.908	232.87
1847.117	234.63
1850.326	236.21
1853.535	236.03
1856.744	239.27
1859.952	239.54
1863.16	237.77
1866.368	236.15
1869.575	239.01
1872.782	235.52
1875.989	234.56
1879.196	234.2
1882.402	232.36
1885.608	232.89
1888.814	232.81
1892.019	232.57
1895.224	231.49
1898.429	230.34
1901.634	232.02
1904.838	232.24
1908.042	234.41
1911.246	235.47
1914.449	236.74
1917.652	237.12
1920.855	237.15
1924.058	236.92
1927.26	235.29
1930.462	236.48
1933.664	239.53
1936.865	237.63
1940.066	237.32
1943.267	235.64
1946.467	235.95
1949.668	237.39
1952.868	239.98
1956.067	240.26
1959.267	240.55
1962.466	241.25
1965.665	239.86
1968.863	240.17
1972.061	243.9
1975.259	245.78
1978.457	248.71
1981.654	249.75
1984.852	250.16
1988.048	249.43
1991.245	252.24
1994.441	254.74
1997.637	256.96
2000.833	261.63
2004.028	265.45
2007.223	266.43
2010.418	269.46
2013.613	273.46
2016.807	277.11
2020.001	279.69
2023.194	284.03
2026.388	289.7
2029.581	296.42
2032.774	299.21
2035.966	304.8
2039.158	305.03
2042.35	311.32
2045.542	312.41
2048.733	316.93
2051.924	321.7
2055.115	327.42
2058.306	327.63
2061.496	330.63
2064.686	330.92
2067.875	336.09
2071.065	337.29
2074.254	335.95
2077.442	339.26
2080.631	341.48
2083.819	345.14
2087.007	344.6
2090.195	348.11
2093.382	351.54
2096.569	349.19
2099.756	353.87
2102.942	354.65
2106.128	358.4
2109.314	366.49
2112.5	364.99
2115.685	373.05
2118.87	373.37
2122.055	381.61
2125.239	384.56
2128.424	389.16
2131.608	393.43
2134.791	399.71
2137.974	401.42
2141.157	401.78
2144.34	403.18
2147.523	408.76
2150.705	406.03
2153.887	409.83
2157.068	410.2
2160.25	406.11
2163.431	407.76
2166.611	411.64
2169.792	418.24
2172.972	423.37
2176.152	426.45
2179.331	431.93
2182.511	440.37
2185.69	445.11
2188.868	454.69
2192.047	455.33
2195.225	468.67
2198.403	480.99
2201.58	489.59
2204.758	499.81
2207.935	509.04
2211.111	518.61
2214.288	524.61
2217.464	524.75
2220.64	533.82
2223.815	540.77
2226.991	563.53
2230.166	564.75
2233.34	574.48
2236.515	583.17
2239.689	583.29
2242.863	586.46
2246.036	603.45
2249.209	598.82
2252.382	610.33
2255.555	628.18
2258.727	630.41
2261.9	633.88
2265.071	640.21
2268.243	649.84
2271.414	657.75
2274.585	673.9
2277.756	681.9
2280.926	686.61
2284.096	702.07
2287.266	716.93
2290.436	721.81
2293.605	739
2296.774	760.56
2299.942	784.36
2303.111	788.62
2306.279	806.31
2309.447	815.46
2312.614	835.78
2315.781	858.47
2318.948	900.54
2322.115	886.87
2325.281	934.93
2328.447	913.85
2331.613	951.72
2334.779	939.96
2337.944	983.01
2341.109	993.07
2344.274	1020.64
2347.438	1052.37
2350.602	1054.76
2353.766	1086.06
2356.929	1102.87
2360.092	1094.05
2363.255	1174.59
2366.418	1171.22
2369.58	1197.93
2372.742	1268.65
2375.904	1300.64
2379.066	1293.14
2382.227	1275.52
2385.388	1382.2
2388.548	1381.14
2391.709	1398.49
2394.869	1559.49
2398.029	1490.18
2401.188	1531.26
2404.347	1518.77
2407.506	1495.82
2410.665	1538.97
2413.823	1635.16
2416.981	1730.16
2420.139	1673.33
2423.296	1653.91
2426.453	1722.9
2429.61	1657.27
2432.767	1733.48
2435.923	1719.06
2439.079	1882.05
2442.235	1901.31
2445.391	1885.42
2448.546	1867.23
2451.701	1818.1
2454.855	1811.98
2458.009	1925.39
2461.163	2007.86
2464.317	2085.88
2467.471	2141.3
2470.624	2142.93
2473.777	2078.98
2476.929	2034.47
2480.082	1977.27
2483.234	1955.25
2486.385	2052.76
2489.537	2066.08
2492.688	2145.17
2495.839	2079.15
2498.989	2034.23
2502.14	2048.23
2505.29	2067.55
2508.439	2102.4
2511.589	2093.94
2514.738	2281.41
2517.887	2230.72
2521.035	2361
2524.183	2379.84
2527.331	2394.17
2530.479	2392.15
2533.627	2406.27
