Data from N_2_HIR_IL_4N_Splice17_13-11-07-676.txt Node
Date: Sat Mar 07 13:11:07 EST 2020
User: sa697716
Spectrometer: NQ5500242
Trigger mode: 0
Integration Time (sec): 1.450000E-1
Scans to average: 20
Nonlinearity correction enabled: false
Boxcar width: 5
Storing dark spectrum: false
XAxis mode: Wavelengths
Number of Pixels in Spectrum: 512
>>>>>Begin Spectral Data<<<<<
187.83	196.15
188.298	225.01
188.766	201.11
189.233	161.52
189.701	174.46
190.169	186.26
190.636	222.96
191.104	296.54
191.571	226.38
192.039	13.11
192.506	-243.61
192.974	87.73
193.441	176.43
193.908	102.01
194.375	65.57
194.842	41.62
195.31	47.65
195.777	138.86
196.244	53.25
196.711	45.28
197.177	43.87
197.644	43.67
198.111	42.92
198.578	43.14
199.045	43.07
199.511	42.64
199.978	42.81
200.445	42.86
200.911	42.99
201.378	42.82
201.844	42.58
202.31	42.61
202.777	42.83
203.243	43.26
203.709	43.23
204.176	43.06
204.642	43.26
205.108	43.22
205.574	43.21
206.04	42.84
206.506	42.48
206.972	42.76
207.438	42.27
207.903	41.67
208.369	40.84
208.835	40.1
209.301	39.53
209.766	38.62
210.232	38.03
210.697	36.94
211.163	36.41
211.628	35.94
212.094	35.07
212.559	34.81
213.024	34.22
213.49	33.65
213.955	33.18
214.42	32.64
214.885	32.17
215.35	31.26
215.815	30.48
216.28	28.95
216.745	27.31
217.21	25.93
217.675	24.58
218.14	23.52
218.604	22.5
219.069	21.65
219.534	20.94
219.998	20.29
220.463	19.78
220.927	19.31
221.392	18.98
221.856	18.73
222.32	18.46
222.785	18.24
223.249	17.97
223.713	17.77
224.177	17.57
224.642	17.36
225.106	17.15
225.57	16.93
226.034	16.77
226.497	16.59
226.961	16.38
227.425	16.19
227.889	15.99
228.353	15.82
228.816	15.63
229.28	15.45
229.744	15.29
230.207	15.11
230.671	14.95
231.134	14.78
231.597	14.65
232.061	14.51
232.524	14.36
232.987	14.23
233.45	14.1
233.914	13.96
234.377	13.83
234.84	13.68
235.303	13.58
235.766	13.47
236.229	13.34
236.691	13.21
237.154	13.08
237.617	12.98
238.08	12.86
238.542	12.72
239.005	12.62
239.468	12.5
239.93	12.41
240.393	12.31
240.855	12.18
241.317	12.07
241.78	11.96
242.242	11.86
242.704	11.75
243.166	11.65
243.629	11.58
244.091	11.48
244.553	11.39
245.015	11.3
245.477	11.2
245.939	11.12
246.4	11.04
246.862	10.96
247.324	10.88
247.786	10.81
248.247	10.72
248.709	10.63
249.17	10.55
249.632	10.48
250.093	10.41
250.555	10.35
251.016	10.3
251.477	10.23
251.939	10.17
252.4	10.11
252.861	10.05
253.322	10
253.783	9.96
254.244	9.92
254.705	9.86
255.166	9.81
255.627	9.75
256.088	9.7
256.549	9.65
257.009	9.59
257.47	9.54
257.931	9.48
258.391	9.42
258.852	9.36
259.312	9.31
259.773	9.26
260.233	9.21
260.694	9.17
261.154	9.11
261.614	9.07
262.074	9.03
262.534	8.99
262.994	8.96
263.455	8.93
263.915	8.9
264.374	8.87
264.834	8.85
265.294	8.81
265.754	8.8
266.214	8.78
266.673	8.76
267.133	8.73
267.593	8.72
268.052	8.7
268.512	8.68
268.971	8.66
269.431	8.64
269.89	8.61
270.349	8.61
270.809	8.59
271.268	8.57
271.727	8.56
272.186	8.54
272.645	8.52
273.104	8.5
273.563	8.47
274.022	8.45
274.481	8.44
274.94	8.41
275.399	8.38
275.857	8.35
276.316	8.33
276.775	8.3
277.233	8.29
277.692	8.27
278.15	8.25
278.609	8.23
279.067	8.21
279.525	8.19
279.984	8.17
280.442	8.15
280.9	8.13
281.358	8.1
281.816	8.07
282.274	8.04
282.732	8.01
283.19	7.98
283.648	7.95
284.106	7.92
284.564	7.88
285.021	7.86
285.479	7.82
285.937	7.78
286.394	7.76
286.852	7.72
287.309	7.69
287.767	7.65
288.224	7.63
288.682	7.59
289.139	7.55
289.596	7.53
290.053	7.49
290.511	7.47
290.968	7.45
291.425	7.42
291.882	7.41
292.339	7.38
292.796	7.36
293.252	7.34
293.709	7.32
294.166	7.3
294.623	7.28
295.079	7.26
295.536	7.24
295.992	7.22
296.449	7.2
296.905	7.17
297.362	7.15
297.818	7.13
298.274	7.11
298.731	7.09
299.187	7.07
299.643	7.05
300.099	7.04
300.555	7.02
301.011	6.99
301.467	6.97
301.923	6.95
302.379	6.93
302.835	6.92
303.291	6.9
303.746	6.88
304.202	6.87
304.658	6.85
305.113	6.83
305.569	6.81
306.024	6.8
306.479	6.78
306.935	6.76
307.39	6.75
307.845	6.73
308.301	6.71
308.756	6.7
309.211	6.69
309.666	6.68
310.121	6.67
310.576	6.66
311.031	6.65
311.486	6.64
311.94	6.63
312.395	6.61
312.85	6.6
313.305	6.58
313.759	6.56
314.214	6.55
314.668	6.52
315.123	6.51
315.577	6.49
316.032	6.47
316.486	6.45
316.94	6.43
317.394	6.41
317.849	6.39
318.303	6.37
318.757	6.34
319.211	6.32
319.665	6.29
320.119	6.27
320.572	6.26
321.026	6.24
321.48	6.23
321.934	6.22
322.387	6.2
322.841	6.18
323.295	6.18
323.748	6.17
324.202	6.16
324.655	6.15
325.108	6.14
325.562	6.12
326.015	6.11
326.468	6.09
326.921	6.08
327.374	6.07
327.827	6.06
328.28	6.04
328.733	6.03
329.186	6.02
329.639	6.01
330.092	6
330.545	5.99
330.997	5.98
331.45	5.98
331.903	5.98
332.355	5.97
332.808	5.97
333.26	5.97
333.713	5.96
334.165	5.95
334.617	5.94
335.069	5.92
335.522	5.92
335.974	5.91
336.426	5.9
336.878	5.89
337.33	5.88
337.782	5.87
338.234	5.86
338.686	5.85
339.137	5.85
339.589	5.82
340.041	5.81
340.493	5.8
340.944	5.77
341.396	5.75
341.847	5.74
342.299	5.71
342.75	5.69
343.201	5.66
343.653	5.64
344.104	5.61
344.555	5.61
345.006	5.59
345.457	5.59
345.908	5.58
346.359	5.58
346.81	5.57
347.261	5.56
347.712	5.56
348.163	5.56
348.613	5.56
349.064	5.55
349.515	5.53
349.965	5.53
350.416	5.51
350.866	5.49
351.317	5.47
351.767	5.47
352.217	5.46
352.668	5.46
353.118	5.45
353.568	5.44
354.018	5.44
354.468	5.44
354.918	5.43
355.368	5.44
355.818	5.45
356.268	5.46
356.718	5.45
357.168	5.44
357.617	5.42
358.067	5.41
358.517	5.41
358.966	5.41
359.416	5.4
359.865	5.39
360.315	5.38
360.764	5.37
361.213	5.36
361.663	5.35
362.112	5.35
362.561	5.36
363.01	5.35
363.459	5.33
363.908	5.32
364.357	5.32
364.806	5.3
365.255	5.3
365.703	5.3
366.152	5.3
366.601	5.3
367.05	5.29
367.498	5.28
367.947	5.27
368.395	5.28
368.844	5.28
369.292	5.27
369.74	5.27
370.189	5.25
370.637	5.24
371.085	5.22
371.533	5.2
371.981	5.19
372.429	5.19
372.877	5.17
373.325	5.16
373.773	5.14
374.221	5.13
374.669	5.12
375.116	5.11
375.564	5.1
376.012	5.1
376.459	5.09
376.907	5.09
377.354	5.08
377.801	5.08
378.249	5.07
378.696	5.05
379.143	5.05
379.591	5.05
380.038	5.04
380.485	5.04
380.932	5.04
381.379	5.03
381.826	5.02
382.273	5.01
382.72	4.99
383.166	4.99
383.613	4.99
384.06	4.97
384.506	4.96
384.953	4.97
385.4	4.96
385.846	4.95
386.292	4.94
386.739	4.93
387.185	4.92
387.631	4.93
388.078	4.92
388.524	4.92
388.97	4.92
389.416	4.91
389.862	4.91
390.308	4.91
390.754	4.92
391.2	4.93
391.645	4.93
392.091	4.94
392.537	4.94
392.983	4.93
393.428	4.93
393.874	4.93
394.319	4.94
394.765	4.94
395.21	4.94
395.655	4.94
396.101	4.95
396.546	4.96
396.991	4.97
397.436	4.99
397.881	5.02
398.326	5.03
398.771	5.05
399.216	5.05
399.661	5.07
400.106	5.09
400.551	5.09
400.995	5.09
401.44	5.11
401.885	5.12
402.329	5.13
402.774	5.13
403.218	5.16
403.663	5.17
404.107	5.18
404.551	5.19
404.995	5.2
405.44	5.21
405.884	5.23
406.328	5.24
406.772	5.25
407.216	5.26
407.66	5.27
408.104	5.27
408.547	5.28
408.991	5.3
409.435	5.32
409.879	5.33
410.322	5.37
410.766	5.39
411.209	5.41
411.653	5.43
412.096	5.46
412.54	5.48
412.983	5.5
413.426	5.54
413.869	5.57
414.312	5.6
414.756	5.62
415.199	5.63
415.642	5.65
416.085	5.66
416.527	5.66
416.97	5.67
417.413	5.67
417.856	5.7
418.298	5.68
418.741	5.69
419.184	5.7
419.626	5.7
420.069	5.72
420.511	5.71
420.953	5.72
421.396	5.73
421.838	5.73
422.28	5.74
422.722	5.77
423.164	5.78
423.606	5.78
424.048	5.78
424.49	5.78
424.932	5.77
425.374	5.76
425.816	5.75
426.258	5.74
426.699	5.74
427.141	5.74
427.582	5.72
428.024	5.72
428.465	5.72
428.907	5.71
429.348	5.7
429.789	5.71
430.231	5.73
430.672	5.76
431.113	5.78
431.554	5.79
431.995	5.8
432.436	5.82
432.877	5.84
433.318	5.86
433.759	5.88
434.2	5.91
434.64	5.93
435.081	5.94
435.522	5.94
435.962	5.96
436.403	5.98
436.843	5.99
437.284	5.98
437.724	5.97
438.164	5.96
438.604	5.96
439.045	5.95
439.485	5.96
439.925	5.96
440.365	5.97
440.805	5.96
441.245	5.98
441.685	5.99
442.125	6.01
442.564	6.01
443.004	6.02
443.444	6.03
443.883	6.04
444.323	6.03
444.762	6.04
445.202	6.04
445.641	6.07
446.081	6.08
446.52	6.07
446.959	6.1
447.398	6.14
447.837	6.15
448.276	6.15
448.716	6.17
449.154	6.19
449.593	6.22
450.032	6.22
450.471	6.2
450.91	6.19
451.349	6.2
451.787	6.17
452.226	6.16
452.664	6.15
453.103	6.14
453.541	6.12
453.98	6.12
454.418	6.09
454.856	6.08
455.295	6.07
455.733	6.06
456.171	6.04
456.609	6.04
457.047	6.02
457.485	6.01
457.923	6.01
458.361	6.01
458.798	6
459.236	5.99
459.674	5.99
460.111	5.99
460.549	5.99
460.987	6
461.424	5.99
461.862	6
462.299	6.01
462.736	6.01
463.173	6.01
463.611	6.01
464.048	6.02
464.485	6.02
464.922	6.02
465.359	6.02
465.796	6.03
466.233	6.03
466.67	6.04
467.106	6.05
467.543	6.03
467.98	6.02
468.416	6
468.853	6
469.29	6
469.726	6
470.162	5.99
470.599	5.98
471.035	5.96
471.471	5.95
471.907	5.93
472.344	5.94
472.78	5.94
473.216	5.93
473.652	5.93
474.088	5.92
474.523	5.91
474.959	5.9
475.395	5.89
475.831	5.9
476.266	5.91
476.702	5.89
477.138	5.89
477.573	5.88
478.008	5.87
478.444	5.85
478.879	5.85
479.314	5.84
479.75	5.84
480.185	5.82
480.62	5.81
481.055	5.79
481.49	5.78
481.925	5.78
482.36	5.77
482.795	5.76
483.229	5.75
483.664	5.76
484.099	5.74
484.534	5.73
484.968	5.74
485.403	5.75
485.837	5.76
486.271	5.77
486.706	5.78
487.14	5.79
487.574	5.81
488.009	5.83
488.443	5.85
488.877	5.87
489.311	5.9
489.745	5.93
490.179	5.98
490.613	6.01
491.046	6.05
491.48	6.09
491.914	6.14
492.348	6.18
492.781	6.23
493.215	6.29
493.648	6.35
494.082	6.4
494.515	6.46
494.948	6.52
495.382	6.57
495.815	6.65
496.248	6.73
496.681	6.8
497.114	6.87
497.547	6.96
497.98	7.05
498.413	7.14
498.846	7.24
499.279	7.33
499.711	7.44
500.144	7.56
500.577	7.67
501.009	7.79
501.442	7.91
501.874	8.06
502.306	8.19
502.739	8.34
503.171	8.5
503.603	8.66
504.036	8.84
504.468	9.01
504.9	9.19
505.332	9.37
505.764	9.58
506.196	9.77
506.627	9.99
507.059	10.19
507.491	10.41
507.923	10.64
508.354	10.88
508.786	11.13
509.217	11.39
509.649	11.66
510.08	11.92
510.512	12.19
510.943	12.48
511.374	12.76
511.805	13.06
512.237	13.36
512.668	13.66
513.099	13.96
513.53	14.27
513.961	14.57
514.391	14.89
514.822	15.22
515.253	15.55
515.684	15.87
516.114	16.21
516.545	16.54
516.975	16.87
517.406	17.21
517.836	17.54
518.267	17.88
518.697	18.2
519.127	18.5
519.558	18.84
519.988	19.16
520.418	19.46
520.848	19.78
521.278	20.09
521.708	20.55
522.138	20.85
522.567	21.15
522.997	21.42
523.427	21.72
523.857	22.01
524.286	22.27
524.716	22.54
525.145	22.79
525.575	23.04
526.004	23.28
526.433	23.34
526.863	23.55
527.292	23.76
527.721	23.97
528.15	24.16
528.579	24.33
529.008	24.49
529.437	24.65
529.866	24.81
530.295	24.94
530.724	25.08
531.152	25.23
531.581	25.37
532.01	25.49
532.438	25.62
532.867	25.72
533.295	25.85
533.723	25.96
534.152	26.04
534.58	26.13
535.008	26.21
535.436	26.29
535.865	26.36
536.293	26.43
536.721	26.47
537.149	26.54
537.576	26.6
538.004	26.66
538.432	26.7
538.86	26.77
539.287	26.82
539.715	26.88
540.143	26.91
540.57	26.96
540.998	26.98
541.425	27.04
541.852	27.07
542.28	27.1
542.707	27.12
543.134	27.15
543.561	27.19
543.988	27.23
544.415	27.23
544.842	27.24
545.269	27.26
545.696	27.3
546.123	27.31
546.549	27.34
546.976	27.37
547.403	27.41
547.829	27.42
548.256	27.42
548.682	27.43
549.108	27.47
549.535	27.49
549.961	27.5
550.387	27.49
550.813	27.5
551.24	27.48
551.666	27.47
552.092	27.44
552.518	27.44
552.943	27.41
553.369	27.38
553.795	27.34
554.221	27.3
554.646	27.24
555.072	27.19
555.498	27.12
555.923	27.06
556.349	26.98
556.774	26.92
557.199	26.82
557.625	26.75
558.05	26.67
558.475	26.57
558.9	26.48
559.325	26.4
559.75	26.31
560.175	26.2
560.6	26.07
561.025	25.97
561.449	25.85
561.874	25.71
562.299	25.57
562.723	25.43
563.148	25.28
563.572	25.12
563.997	24.95
564.421	24.78
564.846	24.63
565.27	24.47
565.694	24.29
566.118	24.11
566.542	23.95
566.966	23.78
567.39	23.61
567.814	23.45
568.238	23.29
568.662	23.12
569.086	22.96
569.509	22.79
569.933	22.64
570.357	22.47
570.78	22.3
571.204	22.14
571.627	21.99
572.05	21.83
572.474	21.7
572.897	21.55
573.32	21.4
573.743	21.25
574.166	21.1
574.589	20.95
575.012	20.81
575.435	20.67
575.858	20.55
576.281	20.41
576.704	20.28
577.126	20.15
577.549	20.01
577.972	19.89
578.394	19.78
578.817	19.68
579.239	19.57
579.661	19.49
580.084	19.38
580.506	19.28
580.928	19.18
581.35	19.09
581.772	19
582.194	18.91
582.616	18.82
583.038	18.73
583.46	18.63
583.882	18.55
584.303	18.45
584.725	18.36
585.147	18.27
585.568	18.2
585.99	18.1
586.411	18.02
586.833	17.95
587.254	17.88
587.675	17.8
588.096	17.73
588.518	17.65
588.939	17.6
589.36	17.54
589.781	17.49
590.202	17.44
590.623	17.4
591.043	17.34
591.464	17.3
591.885	17.24
592.305	17.2
592.726	17.15
593.147	17.13
593.567	17.08
593.987	17.05
594.408	17
594.828	16.95
595.248	16.92
595.669	16.88
596.089	16.83
596.509	16.79
596.929	16.77
597.349	16.73
597.769	16.68
598.189	16.63
598.608	16.59
599.028	16.55
599.448	16.5
599.867	16.44
600.287	16.39
600.706	16.36
601.126	16.31
601.545	16.25
601.965	16.2
602.384	16.15
602.803	16.09
603.222	16.02
603.641	15.96
604.061	15.9
604.48	15.84
604.898	15.78
605.317	15.7
605.736	15.63
606.155	15.55
606.574	15.47
606.992	15.39
607.411	15.32
607.829	15.22
608.248	15.11
608.666	15.03
609.085	14.94
609.503	14.86
609.921	14.78
610.339	14.69
610.758	14.61
611.176	14.51
611.594	14.42
612.012	14.33
612.43	14.27
612.847	14.19
613.265	14.1
613.683	14.01
614.101	13.92
614.518	13.83
614.936	13.75
615.353	13.65
615.771	13.59
616.188	13.51
616.606	13.45
617.023	13.37
617.44	13.3
617.857	13.25
618.274	13.2
618.691	13.14
619.108	13.08
619.525	13.03
619.942	12.98
620.359	12.94
620.776	12.9
621.192	12.85
621.609	12.82
622.026	12.79
622.442	12.75
622.859	12.73
623.275	12.7
623.691	12.68
624.108	12.66
624.524	12.63
624.94	12.61
625.356	12.6
625.772	12.58
626.188	12.56
626.604	12.55
627.02	12.54
627.436	12.52
627.852	12.51
628.268	12.5
628.683	12.49
629.099	12.49
629.514	12.46
629.93	12.44
630.345	12.42
630.761	12.39
631.176	12.34
631.591	12.31
632.007	12.26
632.422	12.2
632.837	12.15
633.252	12.08
633.667	12
634.082	11.92
634.497	11.83
634.911	11.74
635.326	11.65
635.741	11.55
636.155	11.44
636.57	11.33
636.984	11.23
637.399	11.11
637.813	10.97
638.228	10.84
638.642	10.71
639.056	10.57
639.47	10.44
639.884	10.31
640.298	10.17
640.712	10.04
641.126	9.91
641.54	9.76
641.954	9.61
642.368	9.49
642.781	9.38
643.195	9.26
643.609	9.14
644.022	9.01
644.436	8.9
644.849	8.79
645.262	8.68
645.676	8.58
646.089	8.48
646.502	8.41
646.915	8.33
647.328	8.25
647.741	8.17
648.154	8.12
648.567	8.07
648.98	8.02
649.393	7.97
649.805	7.92
650.218	7.88
650.631	7.84
651.043	7.8
651.456	7.75
651.868	7.71
652.28	7.66
652.693	7.62
653.105	7.57
653.517	7.51
653.929	7.46
654.341	7.41
654.753	7.36
655.165	7.3
655.577	7.23
655.989	7.16
656.401	7.09
656.813	7.03
657.224	6.96
657.636	6.88
658.047	6.81
658.459	6.73
658.87	6.64
659.282	6.56
659.693	6.48
660.104	6.39
660.515	6.31
660.926	6.24
661.338	6.15
661.749	6.08
662.159	6.01
662.57	5.95
662.981	5.88
663.392	5.82
663.803	5.77
664.213	5.7
664.624	5.65
665.035	5.62
665.445	5.58
665.855	5.54
666.266	5.51
666.676	5.47
667.086	5.44
667.497	5.41
667.907	5.39
668.317	5.37
668.727	5.36
669.137	5.36
669.547	5.35
669.956	5.34
670.366	5.34
670.776	5.32
671.186	5.32
671.595	5.31
672.005	5.31
672.414	5.32
672.824	5.31
673.233	5.33
673.642	5.33
674.052	5.35
674.461	5.36
674.87	5.37
675.279	5.41
675.688	5.43
676.097	5.47
676.506	5.49
676.915	5.53
677.323	5.58
677.732	5.6
678.141	5.65
678.549	5.68
678.958	5.72
679.366	5.77
679.775	5.83
680.183	5.9
680.592	5.97
681	6.06
681.408	6.14
681.816	6.23
682.224	6.34
682.632	6.46
683.04	6.6
683.448	6.73
683.856	6.88
684.264	7.06
684.671	7.25
685.079	7.46
685.487	7.68
685.894	7.94
686.302	8.21
686.709	8.52
687.116	8.85
687.524	9.22
687.931	9.63
688.338	10.06
688.745	10.5
689.152	10.96
689.559	11.46
689.966	11.99
690.373	12.55
690.78	13.13
691.187	13.71
691.593	14.31
692	14.92
692.407	15.52
692.813	16.17
693.22	16.81
693.626	17.46
694.032	18.11
694.439	18.77
694.845	19.42
695.251	20.07
695.657	20.72
696.063	21.37
696.469	22.05
696.875	22.7
697.281	23.33
697.687	23.99
698.093	24.64
698.498	25.28
698.904	25.9
699.31	26.51
699.715	27.12
700.12	27.73
700.526	28.32
700.931	28.9
701.337	29.49
701.742	30.06
702.147	30.6
702.552	31.14
702.957	31.65
703.362	32.18
703.767	32.68
704.172	33.16
704.577	33.64
704.981	34.12
705.386	34.58
705.791	35.01
706.195	35.46
706.6	35.9
707.004	36.32
707.408	36.74
707.813	37.14
708.217	37.53
708.621	37.95
709.025	38.32
709.43	38.69
709.834	39.09
710.237	39.46
710.641	39.8
711.045	40.16
711.449	40.54
711.853	40.91
712.256	41.25
712.66	41.59
713.064	41.92
713.467	42.26
713.87	42.59
714.274	42.87
714.677	43.19
715.08	43.48
715.484	43.77
715.887	44.05
716.29	44.33
716.693	44.62
717.096	44.9
717.499	45.17
717.901	45.45
718.304	45.7
718.707	45.98
719.109	46.24
719.512	46.5
719.915	46.74
720.317	46.95
720.719	47.15
721.122	47.37
721.524	47.58
721.926	47.78
722.328	47.96
722.731	48.16
723.133	48.32
723.535	48.49
723.937	48.65
724.338	48.82
724.74	48.98
725.142	49.25
725.544	49.4
725.945	49.56
726.347	49.7
726.748	49.85
727.15	49.97
727.551	50.13
727.952	50.26
728.354	50.4
728.755	50.53
729.156	50.65
729.557	50.65
729.958	50.77
730.359	50.85
730.76	50.96
731.161	51.07
731.562	51.19
731.962	51.24
732.363	51.31
732.763	51.39
733.164	51.47
733.564	51.55
733.965	51.63
734.365	51.71
734.766	51.77
735.166	51.83
735.566	51.88
735.966	51.95
736.366	52.05
736.766	52.14
737.166	52.22
737.566	52.28
737.966	52.33
738.365	52.4
738.765	52.46
739.165	52.53
739.564	52.58
739.964	52.63
740.363	52.66
740.763	52.69
741.162	52.7
741.561	52.69
741.96	52.68
742.36	52.69
742.759	52.72
743.158	52.72
743.557	52.7
743.955	52.7
744.354	52.74
744.753	52.77
745.152	52.81
745.55	52.86
745.949	52.93
746.348	52.99
746.746	53.02
747.144	53.04
747.543	53.06
747.941	53.11
748.339	53.13
748.737	53.15
749.136	53.13
749.534	53.1
749.932	53.08
750.33	53.06
750.727	53.07
751.125	53.08
751.523	53.06
751.921	53.08
752.318	53.08
752.716	53.11
753.113	53.12
753.511	53.14
753.908	53.17
754.305	53.19
754.703	53.2
755.1	53.21
755.497	53.23
755.894	53.23
756.291	53.22
756.688	53.2
757.085	53.18
757.482	53.17
757.878	53.19
758.275	53.16
758.672	53.13
759.068	53.13
759.465	53.1
759.861	53.08
760.258	53.09
760.654	53.09
761.05	53.11
761.447	53.13
761.843	53.12
762.239	53.11
762.635	53.12
763.031	53.14
763.427	53.14
763.822	53.18
764.218	53.18
764.614	53.18
765.01	53.18
765.405	53.18
765.801	53.14
766.196	53.15
766.592	53.13
766.987	53.15
767.382	53.13
767.778	53.13
768.173	53.11
768.568	53.12
768.963	53.1
769.358	53.12
769.753	53.14
770.148	53.18
770.542	53.2
770.937	53.22
771.332	53.2
771.726	53.2
772.121	53.22
772.515	53.21
772.91	53.21
773.304	53.22
773.699	53.24
774.093	53.21
774.487	53.18
774.881	53.17
775.275	53.14
775.669	53.13
776.063	53.11
776.457	53.1
776.851	53.1
777.245	53.07
777.638	53.04
778.032	53.02
778.425	53.05
778.819	53.04
779.212	53.04
779.606	53.06
779.999	53.05
780.392	53.08
780.786	53.06
781.179	53.1
781.572	53.14
781.965	53.16
782.358	53.16
782.751	53.13
783.143	53.17
783.536	53.15
783.929	53.16
784.322	53.2
784.714	53.2
785.107	53.24
785.499	53.22
785.891	53.2
786.284	53.2
786.676	53.19
787.068	53.2
787.46	53.18
787.852	53.21
788.245	53.2
788.636	53.18
789.028	53.18
789.42	53.14
789.812	53.18
790.204	53.16
790.595	53.17
790.987	53.19
791.378	53.2
791.77	53.2
792.161	53.2
792.553	53.25
792.944	53.23
793.335	53.21
793.726	53.23
794.117	53.17
794.508	53.17
794.899	53.15
795.29	53.12
795.681	53.09
796.072	53.08
796.463	53.07
796.853	53.03
797.244	53.04
797.634	53.05
798.025	53.08
798.415	53.09
798.806	53.1
799.196	53.11
799.586	53.11
799.976	53.12
800.366	53.12
800.756	53.11
801.146	53.11
801.536	53.11
801.926	53.1
802.316	53.08
802.706	53.13
803.095	53.12
803.485	53.11
803.874	53.1
804.264	53.12
804.653	53.13
805.043	53.16
805.432	53.17
805.821	53.17
806.21	53.19
806.599	53.18
806.988	53.15
807.377	53.15
807.766	53.14
808.155	53.14
808.544	53.14
808.933	53.14
809.321	53.12
809.71	53.1
810.098	53.09
810.487	53.07
810.875	53.07
811.264	53.07
811.652	53.11
812.04	53.12
812.428	53.14
812.816	53.13
813.204	53.12
813.592	53.09
813.98	53.12
814.368	53.12
814.756	53.13
815.144	53.14
815.531	53.13
815.919	53.1
816.306	53.11
816.694	53.1
817.081	53.08
817.469	53.09
817.856	53.1
818.243	53.08
818.63	53.06
819.017	53.03
819.404	52.99
819.791	53
820.178	53
820.565	52.97
820.952	52.96
821.339	52.98
821.725	53.01
822.112	53.02
822.498	53.03
822.885	53.06
823.271	53.07
823.657	53.06
824.044	53.07
824.43	53.1
824.816	53.14
825.202	53.14
825.588	53.12
825.974	53.1
826.36	53.1
826.746	53.09
827.132	53.09
827.517	53.11
827.903	53.15
828.289	53.15
828.674	53.15
829.06	53.12
829.445	53.13
829.83	53.13
830.216	53.13
830.601	53.11
830.986	53.14
831.371	53.12
831.756	53.13
832.141	53.09
832.526	53.08
832.911	53.06
833.295	53.08
833.68	53.09
834.065	53.1
834.449	53.07
834.834	53.08
835.218	53.05
835.603	53.07
835.987	53.03
836.371	53.03
836.755	53.04
837.139	53.04
837.524	53.03
837.908	53.04
838.291	53.04
838.675	53.05
839.059	53.05
839.443	53.06
839.827	53.03
840.21	53.07
840.594	53.1
840.977	53.08
841.361	53.08
841.744	53.06
842.127	53.03
842.511	53.01
842.894	53
843.277	52.99
843.66	52.97
844.043	52.99
844.426	52.96
844.809	52.96
845.191	52.99
845.574	52.96
845.957	52.98
846.339	53
846.722	53.01
847.104	53.03
847.487	53.02
847.869	53.03
848.252	53.01
848.634	53.01
849.016	53.01
849.398	52.99
849.78	53.04
850.162	53.01
850.544	53
850.926	53.02
851.307	53
851.689	53.03
852.071	53.02
852.452	53.04
852.834	53.04
853.215	53.03
853.597	53.04
853.978	53
854.359	53.04
854.741	53.05
855.122	53.01
855.503	53.02
855.884	52.99
856.265	53
856.646	53
857.026	53.02
857.407	53.04
857.788	53.02
858.169	53.04
858.549	53.02
858.93	53
859.31	53.01
859.69	53.02
860.071	53.05
860.451	53.03
860.831	53.03
861.211	53.02
861.591	53
861.971	52.99
862.351	53
862.731	53.01
863.111	53
863.491	53.02
863.87	52.99
864.25	52.97
864.629	52.99
865.009	52.96
865.388	52.95
865.768	52.96
866.147	52.97
866.526	52.96
866.905	52.96
867.284	52.98
867.663	52.97
868.042	53
868.421	53.01
868.8	53.03
869.179	53.04
869.558	53.04
869.936	53.03
870.315	53.03
870.693	53.03
871.072	53.03
871.45	53.04
871.828	53.05
872.207	53.07
872.585	53.05
872.963	53.03
873.341	53.02
873.719	53.03
874.097	53.02
874.475	53.03
874.853	53.02
875.23	53.03
875.608	53.02
875.986	53.05
876.363	53.04
876.741	53.05
877.118	53.07
877.495	53.1
877.873	53.09
878.25	53.13
878.627	53.16
879.004	53.18
879.381	53.19
879.758	53.18
880.135	53.17
880.512	53.16
880.889	53.16
881.265	53.14
881.642	53.16
882.019	53.17
882.395	53.13
882.772	53.11
883.148	53.07
883.524	53.06
883.901	53.03
884.277	53
884.653	52.98
885.029	52.97
885.405	52.97
885.781	52.94
886.157	52.94
886.532	52.95
886.908	52.93
887.284	52.93
887.659	52.9
888.035	52.9
888.411	52.9
888.786	52.89
889.161	52.9
889.537	52.92
889.912	52.92
890.287	52.92
890.662	52.91
891.037	52.92
891.412	52.92
891.787	52.93
892.162	52.93
892.536	52.93
892.911	52.92
893.286	52.91
893.66	52.89
894.035	52.9
894.409	52.87
894.784	52.88
895.158	52.86
895.532	52.88
895.906	52.88
896.281	52.89
896.655	52.89
897.029	52.93
897.402	52.93
897.776	52.93
898.15	52.91
898.524	52.94
898.898	52.95
899.271	52.95
899.645	52.96
900.018	52.97
900.392	52.99
900.765	53.01
901.138	52.99
901.511	52.97
901.884	52.99
902.258	53.01
902.631	52.99
903.003	53.01
903.376	53.02
903.749	53.02
904.122	53.01
904.495	53
904.867	53
905.24	53.02
905.612	53.05
905.985	53.04
906.357	53.03
906.729	53.04
907.102	53.03
907.474	53.03
907.846	53.03
908.218	53.03
908.59	53.06
908.962	53
909.334	53
909.705	52.98
910.077	53.01
910.449	53.01
910.82	52.99
911.192	53
911.563	52.96
911.935	52.91
912.306	52.93
912.677	52.92
913.048	52.96
913.419	52.94
913.79	52.92
914.161	52.9
914.532	52.9
914.903	52.9
915.274	52.92
915.645	52.96
916.015	52.99
916.386	52.97
916.756	52.95
917.127	52.97
917.497	53
917.868	53.02
918.238	53
918.608	53.03
918.978	53.04
919.348	53.03
919.718	53.03
920.088	53.06
920.458	53.06
920.828	53.06
921.198	53.03
921.567	53.01
921.937	53.02
922.306	53.03
922.676	53.03
923.045	53.04
923.415	53
923.784	53.02
924.153	53
924.522	53.04
924.891	53.04
925.26	53.03
925.629	53.06
925.998	53.04
926.367	53
926.736	52.98
927.104	52.98
927.473	52.96
927.842	52.9
928.21	52.89
928.578	52.85
928.947	52.87
929.315	52.85
929.683	52.78
930.051	52.78
930.42	52.8
930.788	52.76
931.156	52.72
931.523	52.73
931.891	52.78
932.259	52.81
932.627	52.79
932.994	52.79
933.362	52.78
933.729	52.82
934.097	52.83
934.464	52.86
934.831	52.87
935.199	52.9
935.566	52.93
935.933	52.87
936.3	52.83
936.667	52.83
937.034	52.86
937.401	52.92
937.767	52.9
938.134	52.87
938.501	52.88
938.867	52.9
939.234	52.92
939.6	52.92
939.967	52.97
940.333	52.97
940.699	53.02
941.065	52.95
941.431	52.96
941.798	52.96
942.163	52.99
942.529	52.96
942.895	52.98
943.261	52.93
943.627	52.89
943.992	52.87
944.358	52.83
944.723	52.81
945.089	52.77
945.454	52.78
945.82	52.83
946.185	52.85
946.55	52.82
946.915	52.77
947.28	52.74
947.645	52.72
948.01	52.69
948.375	52.72
948.74	52.67
949.104	52.68
949.469	52.62
949.834	52.52
950.198	52.53
950.562	52.48
950.927	52.48
951.291	52.42
951.655	52.42
952.02	52.43
952.384	52.32
952.748	52.34
953.112	52.32
953.476	52.29
953.839	52.23
954.203	52.2
954.567	52.21
954.931	52.14
955.294	52.17
955.658	52.21
956.021	52.2
956.385	52.21
956.748	52.15
957.111	52.12
957.474	52.13
957.837	52.12
958.2	52.1
958.563	52.07
958.926	52.07
959.289	52.07
959.652	52.02
960.015	52
960.377	51.99
960.74	52.02
961.102	52.02
961.465	52
961.827	52.09
962.189	52.09
962.552	52.13
962.914	52.12
963.276	52.15
963.638	52.13
964	52.11
964.362	52.13
964.724	52.08
965.085	52.03
965.447	52.03
965.809	52.01
966.17	51.98
966.532	51.96
966.893	52.01
967.255	51.98
967.616	52
967.977	52.01
968.338	52
968.699	52
969.061	52.03
969.421	52.03
969.782	52
970.143	51.97
970.504	51.96
970.865	52.01
971.225	52.02
971.586	52
971.946	51.99
972.307	51.97
972.667	51.95
973.027	52.02
973.388	52.03
973.748	52.05
974.108	52.13
974.468	52.08
974.828	52.07
975.188	52.05
975.548	52.03
975.907	52.06
976.267	52.09
976.627	52.1
976.986	52
977.346	51.96
977.705	51.92
978.064	51.87
978.424	51.99
978.783	51.86
979.142	51.9
979.501	51.92
979.86	51.93
980.219	51.96
980.578	51.95
980.937	52.03
981.296	51.99
981.654	52.02
982.013	52
982.371	51.93
982.73	52.01
983.088	51.98
983.447	51.92
983.805	51.9
984.163	51.92
984.521	51.97
984.879	51.95
985.237	52.02
985.595	52.02
985.953	52.04
986.311	52
986.669	51.97
987.026	51.95
987.384	52.04
987.741	51.95
988.099	51.96
988.456	51.95
988.814	51.95
989.171	51.89
989.528	51.91
989.885	51.91
990.242	51.94
990.599	51.99
990.956	51.97
991.313	51.93
991.67	52
992.027	52.08
992.383	52.11
992.74	52.14
993.096	52.14
993.453	52.15
993.809	52.09
994.165	52.19
994.522	52.18
994.878	52.25
995.234	52.25
995.59	52.2
995.946	52.17
996.302	52.18
996.658	52.18
997.013	52.26
997.369	52.31
997.725	52.45
998.08	52.41
998.436	52.34
998.791	52.36
999.147	52.34
999.502	52.41
999.857	52.27
1000.212	52.13
1000.567	52.06
1000.922	52.04
1001.277	51.93
1001.632	51.8
1001.987	51.8
1002.342	51.83
1002.696	51.77
1003.051	51.95
1003.406	52.09
1003.76	52.12
1004.114	52.17
1004.469	52.19
1004.823	52.35
1005.177	52.31
1005.531	52.33
1005.885	52.32
1006.239	52.31
1006.593	52.38
1006.947	52.23
1007.301	51.99
1007.655	51.99
1008.008	52.19
1008.362	52.3
1008.715	52.19
1009.069	52.35
1009.422	52.42
1009.776	52.34
1010.129	52.46
1010.482	52.43
1010.835	52.57
1011.188	52.65
1011.541	52.62
1011.894	52.59
1012.247	52.51
1012.6	52.46
1012.952	52.35
1013.305	52.39
1013.657	52.53
1014.01	52.49
1014.362	52.46
1014.715	52.41
1015.067	52.47
1015.419	52.65
1015.771	52.48
1016.123	52.57
1016.475	52.66
1016.827	52.74
1017.179	52.7
1017.531	52.65
1017.883	52.61
1018.234	52.77
1018.586	52.78
1018.938	52.88
1019.289	52.72
1019.64	52.75
1019.992	52.49
1020.343	52.39
1020.694	52.55
1021.045	52.69
1021.396	52.67
1021.747	52.85
1022.098	52.73
1022.449	52.78
1022.8	52.73
1023.151	52.56
1023.501	52.64
1023.852	52.76
1024.202	52.73
1024.553	52.47
1024.903	52.45
1025.253	52.76
1025.604	52.77
1025.954	52.55
1026.304	52.53
1026.654	52.6
1027.004	52.85
1027.354	52.69
1027.703	52.5
1028.053	52.62
1028.403	52.65
1028.753	52.12
1029.102	51.9
1029.452	51.77
1029.801	52.09
1030.15	51.96
1030.499	51.71
897.758	1262.74
901.051	1271.66
904.343	1265.57
907.636	1290.57
910.928	1254.6
914.22	1253.8
917.511	1240.89
920.803	1185.62
924.094	1182.44
927.384	1154.89
930.675	1110.65
933.965	1103.57
937.255	1039.33
940.544	999.77
943.834	951.14
947.123	945.06
950.411	890.69
953.7	871.51
956.988	822.78
960.276	791.29
963.563	777.72
966.851	750.56
970.138	743.66
973.424	720.6
976.711	724.6
979.997	689.77
983.283	686.04
986.568	672.09
989.853	650.65
993.138	641.79
996.423	616.64
999.708	600
1002.992	592.9
1006.275	568.84
1009.559	563.25
1012.842	543.15
1016.125	528.87
1019.408	519.37
1022.69	513.59
1025.972	503.77
1029.254	492.25
1032.536	484.07
1035.817	472.7
1039.098	467.89
1042.379	457.9
1045.659	453.17
1048.939	441.89
1052.219	433.46
1055.498	426.77
1058.778	416.26
1062.057	407.82
1065.335	403.72
1068.614	398.89
1071.892	396.28
1075.17	382.2
1078.447	375.78
1081.724	372.66
1085.001	370.38
1088.278	362.7
1091.554	356.26
1094.83	356.3
1098.106	353.67
1101.382	350.55
1104.657	348.21
1107.932	342.23
1111.206	344.79
1114.481	336.45
1117.755	332.84
1121.029	330.06
1124.302	330.47
1127.575	322.91
1130.848	319.09
1134.121	316.31
1137.393	314.31
1140.665	308.04
1143.937	306.44
1147.208	305.4
1150.48	303.98
1153.75	300.87
1157.021	297.2
1160.291	296.39
1163.561	294.78
1166.831	294.22
1170.101	291.6
1173.37	291.19
1176.639	291.59
1179.907	288.58
1183.176	284.35
1186.444	284.48
1189.711	283.38
1192.979	282.51
1196.246	280.91
1199.513	281.21
1202.78	279.95
1206.046	280.13
1209.312	276.93
1212.578	277.27
1215.843	279.89
1219.108	279.04
1222.373	284.31
1225.638	286.74
1228.902	290.13
1232.166	290.34
1235.43	292.76
1238.693	296.29
1241.956	297.86
1245.219	303.02
1248.482	303.25
1251.744	302.89
1255.006	303.32
1258.268	296.1
1261.529	293.51
1264.79	291.71
1268.051	290.23
1271.312	287.45
1274.572	283.15
1277.832	280.42
1281.092	276.08
1284.351	273.47
1287.61	273.63
1290.869	269.47
1294.128	267.99
1297.386	268.32
1300.644	265.12
1303.902	265.87
1307.159	264.45
1310.416	265.37
1313.673	264.98
1316.93	266.9
1320.186	267.07
1323.442	267.63
1326.697	272
1329.953	273.2
1333.208	273.76
1336.463	277.18
1339.717	277.48
1342.972	280.86
1346.226	283.33
1349.479	283.91
1352.733	285.64
1355.986	287.91
1359.238	288.01
1362.491	289.63
1365.743	291.88
1368.995	292.42
1372.247	291.67
1375.498	291.43
1378.749	293.26
1382	290.42
1385.251	290.97
1388.501	289.38
1391.751	289.62
1395	288.15
1398.25	285.8
1401.499	283.89
1404.748	283.38
1407.996	281.47
1411.244	280.09
1414.492	277.89
1417.74	274.6
1420.987	271.05
1424.234	270.46
1427.481	266.67
1430.728	265.9
1433.974	264.33
1437.22	262.09
1440.465	260.62
1443.711	257.85
1446.956	256.09
1450.201	253.55
1453.445	251.59
1456.689	250.81
1459.933	246.53
1463.177	244.5
1466.42	240.68
1469.663	237.78
1472.906	236.38
1476.148	230.97
1479.391	228.89
1482.633	227.32
1485.874	223.59
1489.115	221.92
1492.356	219.45
1495.597	219.35
1498.838	216.3
1502.078	215.4
1505.318	214.25
1508.557	214.17
1511.797	213.83
1515.036	212.78
1518.274	212.24
1521.513	210.47
1524.751	210.49
1527.989	209.7
1531.227	208.64
1534.464	209.37
1537.701	207.93
1540.938	207.47
1544.174	205.2
1547.41	205.4
1550.646	203.66
1553.882	203.66
1557.117	201.76
1560.352	200.34
1563.587	200.19
1566.821	198.76
1570.055	197.08
1573.289	195.65
1576.523	195.32
1579.756	193.8
1582.989	192.67
1586.222	192.81
1589.454	191.17
1592.686	192.54
1595.918	191.88
1599.15	191.07
1602.381	191.79
1605.612	191.34
1608.843	192.28
1612.073	192
1615.303	193.34
1618.533	193.07
1621.762	192.95
1624.992	193.2
1628.221	192.84
1631.449	192.6
1634.678	192.05
1637.906	192.96
1641.134	192.84
1644.361	192.43
1647.588	193.05
1650.815	191.9
1654.042	191.4
1657.269	192.55
1660.495	192.99
1663.72	192.51
1666.946	192.95
1670.171	193.91
1673.396	192.91
1676.621	193.08
1679.845	193.77
1683.069	193.6
1686.293	194.88
1689.517	195.73
1692.74	195.21
1695.963	195.57
1699.185	197.25
1702.408	197.64
1705.63	198.02
1708.852	198.87
1712.073	199.44
1715.294	199.56
1718.515	200.79
1721.736	200.3
1724.956	200.9
1728.176	201.2
1731.396	202.92
1734.616	202.21
1737.835	203.01
1741.054	201.88
1744.272	201.82
1747.491	203.83
1750.709	203.55
1753.927	203.21
1757.144	203.41
1760.361	204.35
1763.578	204.53
1766.795	204
1770.011	205.81
1773.227	205.48
1776.443	207.78
1779.658	209.08
1782.874	208.58
1786.089	209.49
1789.303	210.17
1792.518	212.28
1795.732	212.36
1798.945	213.89
1802.159	214.15
1805.372	214.34
1808.585	218.53
1811.797	219.09
1815.01	219.34
1818.222	220.83
1821.434	222.56
1824.645	223.61
1827.856	227.05
1831.067	228.88
1834.278	228.41
1837.488	229.68
1840.698	231.68
1843.908	228.97
1847.117	230.01
1850.326	231.31
1853.535	230.79
1856.744	234.06
1859.952	233.11
1863.16	231.39
1866.368	230.09
1869.575	232.68
1872.782	229.17
1875.989	227.73
1879.196	226.94
1882.402	225.33
1885.608	225.64
1888.814	225.16
1892.019	224.97
1895.224	224.26
1898.429	222.35
1901.634	222.73
1904.838	222.61
1908.042	224.55
1911.246	224.93
1914.449	226.19
1917.652	225.75
1920.855	225.75
1924.058	225.07
1927.26	222.88
1930.462	223.94
1933.664	226.99
1936.865	225.45
1940.066	224.6
1943.267	223.45
1946.467	222.75
1949.668	224.34
1952.868	227.07
1956.067	226.79
1959.267	227.7
1962.466	228.39
1965.665	227.4
1968.863	227.54
1972.061	231.18
1975.259	233.13
1978.457	236.21
1981.654	238.15
1984.852	238.15
1988.048	237.59
1991.245	240.12
1994.441	243.56
1997.637	245.46
2000.833	250.04
2004.028	253.78
2007.223	254.74
2010.418	258.15
2013.613	261.52
2016.807	264.68
2020.001	266.68
2023.194	271.52
2026.388	277.41
2029.581	283.3
2032.774	285.9
2035.966	292.09
2039.158	292.19
2042.35	297.65
2045.542	298.53
2048.733	304.55
2051.924	307.82
2055.115	314.22
2058.306	314.33
2061.496	316.82
2064.686	316.58
2067.875	322.39
2071.065	323.34
2074.254	321.78
2077.442	325.93
2080.631	328.03
2083.819	330.04
2087.007	331.1
2090.195	333.76
2093.382	336.89
2096.569	334.97
2099.756	340.07
2102.942	340.38
2106.128	343.02
2109.314	351
2112.5	349
2115.685	356.62
2118.87	357.09
2122.055	364.11
2125.239	366.95
2128.424	372.2
2131.608	374.42
2134.791	380.21
2137.974	381.88
2141.157	383.38
2144.34	384.23
2147.523	390.25
2150.705	387.43
2153.887	391.8
2157.068	393.05
2160.25	389.33
2163.431	390.84
2166.611	397.31
2169.792	402.75
2172.972	408.06
2176.152	409.97
2179.331	415.29
2182.511	422.36
2185.69	426.86
2188.868	434.61
2192.047	435.38
2195.225	448.71
2198.403	458.76
2201.58	465.76
2204.758	475.37
2207.935	483.99
2211.111	493.49
2214.288	499.38
2217.464	500.07
2220.64	509.09
2223.815	516.31
2226.991	536.78
2230.166	537.21
2233.34	545.02
2236.515	555.44
2239.689	554.76
2242.863	557.34
2246.036	573.13
2249.209	569.92
2252.382	580.19
2255.555	596.49
2258.727	598.11
2261.9	601.31
2265.071	607.68
2268.243	617.69
2271.414	623.47
2274.585	639.7
2277.756	646.67
2280.926	649.84
2284.096	664.5
2287.266	678.93
2290.436	683.06
2293.605	699.59
2296.774	720.3
2299.942	742.6
2303.111	748.61
2306.279	762.61
2309.447	771.65
2312.614	790.92
2315.781	814.6
2318.948	851.12
2322.115	837.79
2325.281	884.15
2328.447	862.94
2331.613	899.16
2334.779	887.95
2337.944	925.53
2341.109	935.37
2344.274	960.37
2347.438	993.75
2350.602	990.14
2353.766	1023.43
2356.929	1039.75
2360.092	1031.82
2363.255	1106.78
2366.418	1103.67
2369.58	1126.68
2372.742	1193.81
2375.904	1226.21
2379.066	1218.05
2382.227	1195.75
2385.388	1300.88
2388.548	1296.1
2391.709	1312.78
2394.869	1460.81
2398.029	1399.8
2401.188	1439.28
2404.347	1425.87
2407.506	1404.89
2410.665	1442.19
2413.823	1531.03
2416.981	1621.84
2420.139	1565.92
2423.296	1553.39
2426.453	1617.09
2429.61	1561.46
2432.767	1630.09
2435.923	1614.28
2439.079	1773.53
2442.235	1794.62
2445.391	1779.12
2448.546	1768.82
2451.701	1714.94
2454.855	1713.31
2458.009	1814.05
2461.163	1891.02
2464.317	1952.77
2467.471	2005.29
2470.624	2004.15
2473.777	1955.17
2476.929	1905.54
2480.082	1847.95
2483.234	1823.84
2486.385	1919.4
2489.537	1928.77
2492.688	1995.19
2495.839	1939.14
2498.989	1897.34
2502.14	1908.24
2505.29	1926.78
2508.439	1953.41
2511.589	1947.48
2514.738	2131.26
2517.887	2083.43
2521.035	2200.75
2524.183	2221.19
2527.331	2237.75
2530.479	2229.66
2533.627	2245.83
