Data from N_2_DEC_OH_4N_Splice17_13-04-14-478.txt Node
Date: Sat Mar 07 13:04:14 EST 2020
User: sa697716
Spectrometer: NQ5500242
Trigger mode: 0
Integration Time (sec): 1.450000E-1
Scans to average: 20
Nonlinearity correction enabled: false
Boxcar width: 5
Storing dark spectrum: false
XAxis mode: Wavelengths
Number of Pixels in Spectrum: 512
>>>>>Begin Spectral Data<<<<<
187.83	122.65
188.298	138.72
188.766	134.38
189.233	112.2
189.701	113.28
190.169	124.93
190.636	117.56
191.104	77.09
191.571	-145.37
192.039	-211.85
192.506	-653.64
192.974	83
193.441	153.8
193.908	76.25
194.375	36.89
194.842	4.11
195.31	18.44
195.777	-106.64
196.244	18.42
196.711	31.62
197.177	37.36
197.644	36.53
198.111	36.6
198.578	36.85
199.045	37.07
199.511	37.71
199.978	37.71
200.445	37.83
200.911	37.97
201.378	38.25
201.844	38.35
202.31	37.92
202.777	38.22
203.243	38.26
203.709	38.11
204.176	37.78
204.642	37.66
205.108	37.69
205.574	37.31
206.04	36.68
206.506	36.06
206.972	36.04
207.438	35.75
207.903	35.19
208.369	34.5
208.835	34.03
209.301	33.52
209.766	32.28
210.232	31.31
210.697	30.37
211.163	29.92
211.628	29.33
212.094	28.45
212.559	28.1
213.024	27.34
213.49	26.98
213.955	26.26
214.42	25.62
214.885	25.03
215.35	24.21
215.815	23.38
216.28	21.83
216.745	20.25
217.21	18.75
217.675	17.1
218.14	15.84
218.604	14.67
219.069	13.75
219.534	13.01
219.998	12.39
220.463	11.9
220.927	11.34
221.392	11.01
221.856	10.72
222.32	10.45
222.785	10.23
223.249	10.02
223.713	9.84
224.177	9.69
224.642	9.52
225.106	9.32
225.57	9.12
226.034	8.99
226.497	8.84
226.961	8.7
227.425	8.58
227.889	8.47
228.353	8.34
228.816	8.21
229.28	8.08
229.744	7.96
230.207	7.87
230.671	7.78
231.134	7.68
231.597	7.59
232.061	7.5
232.524	7.39
232.987	7.3
233.45	7.23
233.914	7.15
234.377	7.07
234.84	6.99
235.303	6.93
235.766	6.86
236.229	6.8
236.691	6.72
237.154	6.66
237.617	6.61
238.08	6.53
238.542	6.46
239.005	6.41
239.468	6.36
239.93	6.3
240.393	6.24
240.855	6.16
241.317	6.1
241.78	6.04
242.242	5.97
242.704	5.92
243.166	5.88
243.629	5.84
244.091	5.78
244.553	5.72
245.015	5.66
245.477	5.61
245.939	5.58
246.4	5.53
246.862	5.48
247.324	5.45
247.786	5.4
248.247	5.34
248.709	5.28
249.17	5.24
249.632	5.2
250.093	5.17
250.555	5.14
251.016	5.1
251.477	5.07
251.939	5.04
252.4	5
252.861	4.97
253.322	4.95
253.783	4.92
254.244	4.9
254.705	4.87
255.166	4.84
255.627	4.81
256.088	4.78
256.549	4.76
257.009	4.73
257.47	4.7
257.931	4.66
258.391	4.63
258.852	4.59
259.312	4.57
259.773	4.54
260.233	4.52
260.694	4.5
261.154	4.47
261.614	4.44
262.074	4.41
262.534	4.39
262.994	4.38
263.455	4.36
263.915	4.34
264.374	4.32
264.834	4.31
265.294	4.29
265.754	4.27
266.214	4.26
266.673	4.25
267.133	4.25
267.593	4.24
268.052	4.23
268.512	4.22
268.971	4.21
269.431	4.2
269.89	4.18
270.349	4.18
270.809	4.16
271.268	4.15
271.727	4.14
272.186	4.13
272.645	4.12
273.104	4.1
273.563	4.08
274.022	4.07
274.481	4.07
274.94	4.06
275.399	4.05
275.857	4.04
276.316	4.03
276.775	4.02
277.233	4.02
277.692	4.01
278.15	4
278.609	3.99
279.067	3.99
279.525	3.98
279.984	3.97
280.442	3.96
280.9	3.96
281.358	3.95
281.816	3.94
282.274	3.93
282.732	3.91
283.19	3.91
283.648	3.9
284.106	3.88
284.564	3.87
285.021	3.86
285.479	3.86
285.937	3.85
286.394	3.84
286.852	3.83
287.309	3.82
287.767	3.81
288.224	3.8
288.682	3.78
289.139	3.76
289.596	3.74
290.053	3.72
290.511	3.7
290.968	3.69
291.425	3.67
291.882	3.66
292.339	3.65
292.796	3.64
293.252	3.63
293.709	3.62
294.166	3.61
294.623	3.6
295.079	3.59
295.536	3.59
295.992	3.58
296.449	3.57
296.905	3.57
297.362	3.55
297.818	3.54
298.274	3.54
298.731	3.54
299.187	3.53
299.643	3.52
300.099	3.52
300.555	3.51
301.011	3.5
301.467	3.5
301.923	3.48
302.379	3.48
302.835	3.48
303.291	3.47
303.746	3.46
304.202	3.47
304.658	3.46
305.113	3.45
305.569	3.45
306.024	3.45
306.479	3.44
306.935	3.43
307.39	3.43
307.845	3.43
308.301	3.43
308.756	3.42
309.211	3.42
309.666	3.42
310.121	3.42
310.576	3.42
311.031	3.42
311.486	3.42
311.94	3.42
312.395	3.41
312.85	3.41
313.305	3.39
313.759	3.4
314.214	3.39
314.668	3.38
315.123	3.38
315.577	3.37
316.032	3.37
316.486	3.37
316.94	3.35
317.394	3.34
317.849	3.33
318.303	3.33
318.757	3.32
319.211	3.32
319.665	3.3
320.119	3.28
320.572	3.27
321.026	3.26
321.48	3.25
321.934	3.24
322.387	3.23
322.841	3.23
323.295	3.23
323.748	3.23
324.202	3.22
324.655	3.21
325.108	3.21
325.562	3.21
326.015	3.2
326.468	3.2
326.921	3.2
327.374	3.2
327.827	3.2
328.28	3.19
328.733	3.19
329.186	3.18
329.639	3.19
330.092	3.19
330.545	3.19
330.997	3.18
331.45	3.19
331.903	3.19
332.355	3.2
332.808	3.2
333.26	3.19
333.713	3.19
334.165	3.19
334.617	3.19
335.069	3.18
335.522	3.19
335.974	3.19
336.426	3.18
336.878	3.17
337.33	3.17
337.782	3.17
338.234	3.17
338.686	3.17
339.137	3.17
339.589	3.16
340.041	3.16
340.493	3.15
340.944	3.14
341.396	3.14
341.847	3.12
342.299	3.11
342.75	3.1
343.201	3.08
343.653	3.08
344.104	3.06
344.555	3.05
345.006	3.03
345.457	3.03
345.908	3.03
346.359	3.02
346.81	3.02
347.261	3.01
347.712	3.01
348.163	3.01
348.613	3
349.064	3
349.515	3
349.965	3
350.416	2.99
350.866	2.99
351.317	2.98
351.767	2.99
352.217	2.99
352.668	2.99
353.118	2.99
353.568	2.98
354.018	2.98
354.468	2.99
354.918	2.98
355.368	2.99
355.818	2.99
356.268	2.99
356.718	2.99
357.168	2.99
357.617	2.98
358.067	2.98
358.517	3
358.966	3.01
359.416	3.01
359.865	3.01
360.315	3.01
360.764	3.01
361.213	3
361.663	2.99
362.112	3
362.561	3
363.01	3
363.459	2.98
363.908	2.97
364.357	2.97
364.806	2.96
365.255	2.96
365.703	2.97
366.152	2.97
366.601	2.97
367.05	2.96
367.498	2.97
367.947	2.97
368.395	2.98
368.844	2.98
369.292	2.98
369.74	2.99
370.189	2.98
370.637	2.98
371.085	2.97
371.533	2.98
371.981	2.97
372.429	2.97
372.877	2.97
373.325	2.97
373.773	2.97
374.221	2.97
374.669	2.96
375.116	2.95
375.564	2.95
376.012	2.96
376.459	2.97
376.907	2.97
377.354	2.97
377.801	2.97
378.249	2.97
378.696	2.98
379.143	2.97
379.591	2.98
380.038	2.98
380.485	2.98
380.932	2.98
381.379	2.98
381.826	2.99
382.273	2.99
382.72	2.99
383.166	2.99
383.613	2.99
384.06	3
384.506	3
384.953	3
385.4	3.01
385.846	3.02
386.292	3.03
386.739	3.02
387.185	3.02
387.631	3.04
388.078	3.04
388.524	3.04
388.97	3.05
389.416	3.07
389.862	3.08
390.308	3.1
390.754	3.11
391.2	3.11
391.645	3.13
392.091	3.15
392.537	3.16
392.983	3.17
393.428	3.18
393.874	3.18
394.319	3.2
394.765	3.2
395.21	3.21
395.655	3.21
396.101	3.24
396.546	3.25
396.991	3.27
397.436	3.28
397.881	3.31
398.326	3.33
398.771	3.35
399.216	3.35
399.661	3.38
400.106	3.39
400.551	3.4
400.995	3.4
401.44	3.41
401.885	3.42
402.329	3.43
402.774	3.44
403.218	3.47
403.663	3.48
404.107	3.5
404.551	3.51
404.995	3.51
405.44	3.53
405.884	3.55
406.328	3.57
406.772	3.58
407.216	3.59
407.66	3.59
408.104	3.59
408.547	3.59
408.991	3.61
409.435	3.61
409.879	3.62
410.322	3.64
410.766	3.66
411.209	3.67
411.653	3.7
412.096	3.71
412.54	3.73
412.983	3.74
413.426	3.77
413.869	3.78
414.312	3.82
414.756	3.84
415.199	3.84
415.642	3.85
416.085	3.86
416.527	3.84
416.97	3.84
417.413	3.83
417.856	3.84
418.298	3.83
418.741	3.83
419.184	3.81
419.626	3.81
420.069	3.82
420.511	3.81
420.953	3.82
421.396	3.84
421.838	3.85
422.28	3.85
422.722	3.86
423.164	3.86
423.606	3.87
424.048	3.88
424.49	3.87
424.932	3.86
425.374	3.85
425.816	3.83
426.258	3.82
426.699	3.82
427.141	3.82
427.582	3.82
428.024	3.83
428.465	3.83
428.907	3.82
429.348	3.82
429.789	3.84
430.231	3.87
430.672	3.9
431.113	3.92
431.554	3.91
431.995	3.92
432.436	3.92
432.877	3.92
433.318	3.94
433.759	3.97
434.2	3.99
434.64	4
435.081	3.99
435.522	3.99
435.962	3.99
436.403	4.03
436.843	4.04
437.284	4.04
437.724	4.03
438.164	4.02
438.604	4.01
439.045	4.01
439.485	4.01
439.925	4
440.365	4
440.805	4
441.245	4.01
441.685	4.01
442.125	4.03
442.564	4.03
443.004	4.02
443.444	4.02
443.883	4.03
444.323	4.02
444.762	4.02
445.202	4.01
445.641	4.02
446.081	4.01
446.52	4
446.959	4
447.398	4.02
447.837	4.02
448.276	4.01
448.716	4.02
449.154	4.02
449.593	4.04
450.032	4.04
450.471	4
450.91	3.99
451.349	4
451.787	3.98
452.226	3.95
452.664	3.95
453.103	3.94
453.541	3.92
453.98	3.92
454.418	3.9
454.856	3.9
455.295	3.89
455.733	3.87
456.171	3.86
456.609	3.86
457.047	3.85
457.485	3.85
457.923	3.85
458.361	3.85
458.798	3.84
459.236	3.83
459.674	3.81
460.111	3.81
460.549	3.82
460.987	3.83
461.424	3.84
461.862	3.84
462.299	3.85
462.736	3.85
463.173	3.85
463.611	3.86
464.048	3.87
464.485	3.89
464.922	3.91
465.359	3.91
465.796	3.93
466.233	3.93
466.67	3.94
467.106	3.95
467.543	3.94
467.98	3.94
468.416	3.93
468.853	3.93
469.29	3.92
469.726	3.91
470.162	3.89
470.599	3.87
471.035	3.85
471.471	3.82
471.907	3.8
472.344	3.8
472.78	3.8
473.216	3.79
473.652	3.79
474.088	3.77
474.523	3.77
474.959	3.76
475.395	3.74
475.831	3.74
476.266	3.74
476.702	3.73
477.138	3.73
477.573	3.72
478.008	3.71
478.444	3.7
478.879	3.71
479.314	3.7
479.75	3.7
480.185	3.68
480.62	3.67
481.055	3.67
481.49	3.66
481.925	3.65
482.36	3.66
482.795	3.65
483.229	3.64
483.664	3.64
484.099	3.63
484.534	3.62
484.968	3.62
485.403	3.62
485.837	3.61
486.271	3.62
486.706	3.61
487.14	3.6
487.574	3.61
488.009	3.61
488.443	3.6
488.877	3.61
489.311	3.63
489.745	3.63
490.179	3.65
490.613	3.67
491.046	3.68
491.48	3.69
491.914	3.71
492.348	3.72
492.781	3.74
493.215	3.76
493.648	3.78
494.082	3.79
494.515	3.81
494.948	3.83
495.382	3.84
495.815	3.86
496.248	3.88
496.681	3.91
497.114	3.94
497.547	3.97
497.98	4
498.413	4.03
498.846	4.07
499.279	4.1
499.711	4.13
500.144	4.18
500.577	4.23
501.009	4.27
501.442	4.32
501.874	4.38
502.306	4.43
502.739	4.5
503.171	4.55
503.603	4.61
504.036	4.69
504.468	4.76
504.9	4.83
505.332	4.9
505.764	4.99
506.196	5.08
506.627	5.18
507.059	5.28
507.491	5.36
507.923	5.47
508.354	5.59
508.786	5.71
509.217	5.84
509.649	5.97
510.08	6.11
510.512	6.25
510.943	6.39
511.374	6.52
511.805	6.67
512.237	6.83
512.668	7
513.099	7.16
513.53	7.33
513.961	7.51
514.391	7.69
514.822	7.89
515.253	8.08
515.684	8.27
516.114	8.47
516.545	8.68
516.975	8.89
517.406	9.1
517.836	9.31
518.267	9.54
518.697	9.74
519.127	9.94
519.558	10.15
519.988	10.37
520.418	10.58
520.848	10.79
521.278	10.99
521.708	11.37
522.138	11.58
522.567	11.77
522.997	11.95
523.427	12.16
523.857	12.34
524.286	12.52
524.716	12.71
525.145	12.89
525.575	13.06
526.004	13.24
526.433	13.22
526.863	13.38
527.292	13.55
527.721	13.7
528.15	13.84
528.579	13.98
529.008	14.12
529.437	14.23
529.866	14.35
530.295	14.46
530.724	14.57
531.152	14.68
531.581	14.77
532.01	14.87
532.438	14.96
532.867	15.06
533.295	15.14
533.723	15.2
534.152	15.28
534.58	15.34
535.008	15.4
535.436	15.47
535.865	15.51
536.293	15.55
536.721	15.6
537.149	15.63
537.576	15.67
538.004	15.72
538.432	15.76
538.86	15.8
539.287	15.83
539.715	15.88
540.143	15.9
540.57	15.93
540.998	15.96
541.425	15.99
541.852	16.01
542.28	16.04
542.707	16.05
543.134	16.07
543.561	16.08
543.988	16.11
544.415	16.14
544.842	16.15
545.269	16.18
545.696	16.21
546.123	16.23
546.549	16.25
546.976	16.27
547.403	16.28
547.829	16.3
548.256	16.33
548.682	16.33
549.108	16.34
549.535	16.37
549.961	16.37
550.387	16.36
550.813	16.37
551.24	16.36
551.666	16.37
552.092	16.37
552.518	16.36
552.943	16.33
553.369	16.31
553.795	16.28
554.221	16.24
554.646	16.21
555.072	16.18
555.498	16.11
555.923	16.05
556.349	15.98
556.774	15.91
557.199	15.84
557.625	15.77
558.05	15.71
558.475	15.64
558.9	15.57
559.325	15.47
559.75	15.39
560.175	15.31
560.6	15.23
561.025	15.14
561.449	15.05
561.874	14.95
562.299	14.85
562.723	14.72
563.148	14.6
563.572	14.48
563.997	14.35
564.421	14.2
564.846	14.07
565.27	13.94
565.694	13.81
566.118	13.66
566.542	13.53
566.966	13.4
567.39	13.27
567.814	13.14
568.238	13
568.662	12.87
569.086	12.76
569.509	12.65
569.933	12.53
570.357	12.4
570.78	12.28
571.204	12.16
571.627	12.03
572.05	11.92
572.474	11.82
572.897	11.72
573.32	11.62
573.743	11.51
574.166	11.39
574.589	11.29
575.012	11.2
575.435	11.09
575.858	11.01
576.281	10.92
576.704	10.84
577.126	10.75
577.549	10.67
577.972	10.58
578.394	10.49
578.817	10.44
579.239	10.37
579.661	10.3
580.084	10.24
580.506	10.17
580.928	10.11
581.35	10.04
581.772	9.98
582.194	9.92
582.616	9.87
583.038	9.82
583.46	9.75
583.882	9.69
584.303	9.62
584.725	9.56
585.147	9.51
585.568	9.47
585.99	9.41
586.411	9.36
586.833	9.31
587.254	9.25
587.675	9.19
588.096	9.16
588.518	9.11
588.939	9.08
589.36	9.03
589.781	8.98
590.202	8.95
590.623	8.91
591.043	8.87
591.464	8.84
591.885	8.81
592.305	8.78
592.726	8.75
593.147	8.72
593.567	8.68
593.987	8.66
594.408	8.64
594.828	8.6
595.248	8.58
595.669	8.57
596.089	8.54
596.509	8.52
596.929	8.49
597.349	8.46
597.769	8.44
598.189	8.41
598.608	8.39
599.028	8.37
599.448	8.34
599.867	8.3
600.287	8.27
600.706	8.25
601.126	8.22
601.545	8.2
601.965	8.18
602.384	8.15
602.803	8.12
603.222	8.08
603.641	8.05
604.061	8.01
604.48	7.97
604.898	7.91
605.317	7.86
605.736	7.82
606.155	7.78
606.574	7.73
606.992	7.68
607.411	7.63
607.829	7.56
608.248	7.5
608.666	7.45
609.085	7.4
609.503	7.36
609.921	7.32
610.339	7.28
610.758	7.23
611.176	7.17
611.594	7.13
612.012	7.08
612.43	7.06
612.847	7.02
613.265	6.96
613.683	6.93
614.101	6.89
614.518	6.84
614.936	6.79
615.353	6.73
615.771	6.69
616.188	6.65
616.606	6.63
617.023	6.58
617.44	6.55
617.857	6.52
618.274	6.48
618.691	6.45
619.108	6.42
619.525	6.38
619.942	6.37
620.359	6.35
620.776	6.34
621.192	6.31
621.609	6.3
622.026	6.27
622.442	6.25
622.859	6.24
623.275	6.22
623.691	6.21
624.108	6.21
624.524	6.18
624.94	6.16
625.356	6.15
625.772	6.15
626.188	6.14
626.604	6.15
627.02	6.14
627.436	6.14
627.852	6.14
628.268	6.13
628.683	6.12
629.099	6.12
629.514	6.12
629.93	6.1
630.345	6.08
630.761	6.06
631.176	6.04
631.591	6.02
632.007	6
632.422	5.96
632.837	5.94
633.252	5.91
633.667	5.87
634.082	5.84
634.497	5.8
634.911	5.76
635.326	5.72
635.741	5.67
636.155	5.62
636.57	5.58
636.984	5.54
637.399	5.49
637.813	5.42
638.228	5.36
638.642	5.3
639.056	5.24
639.47	5.18
639.884	5.13
640.298	5.06
640.712	5.01
641.126	4.95
641.54	4.88
641.954	4.82
642.368	4.77
642.781	4.73
643.195	4.68
643.609	4.65
644.022	4.6
644.436	4.56
644.849	4.51
645.262	4.46
645.676	4.43
646.089	4.39
646.502	4.36
646.915	4.33
647.328	4.31
647.741	4.28
648.154	4.25
648.567	4.24
648.98	4.21
649.393	4.2
649.805	4.18
650.218	4.17
650.631	4.17
651.043	4.15
651.456	4.14
651.868	4.12
652.28	4.11
652.693	4.1
653.105	4.08
653.517	4.07
653.929	4.06
654.341	4.05
654.753	4.04
655.165	4.02
655.577	4.01
655.989	3.99
656.401	3.98
656.813	3.97
657.224	3.95
657.636	3.92
658.047	3.91
658.459	3.88
658.87	3.86
659.282	3.84
659.693	3.81
660.104	3.79
660.515	3.77
660.926	3.75
661.338	3.72
661.749	3.7
662.159	3.69
662.57	3.68
662.981	3.66
663.392	3.65
663.803	3.63
664.213	3.62
664.624	3.62
665.035	3.61
665.445	3.6
665.855	3.6
666.266	3.6
666.676	3.6
667.086	3.59
667.497	3.59
667.907	3.59
668.317	3.61
668.727	3.63
669.137	3.63
669.547	3.65
669.956	3.66
670.366	3.67
670.776	3.68
671.186	3.69
671.595	3.7
672.005	3.7
672.414	3.72
672.824	3.73
673.233	3.74
673.642	3.77
674.052	3.78
674.461	3.8
674.87	3.81
675.279	3.84
675.688	3.88
676.097	3.91
676.506	3.94
676.915	3.96
677.323	3.99
677.732	4
678.141	4.02
678.549	4.04
678.958	4.07
679.366	4.1
679.775	4.13
680.183	4.16
680.592	4.18
681	4.22
681.408	4.25
681.816	4.29
682.224	4.34
682.632	4.38
683.04	4.42
683.448	4.46
683.856	4.49
684.264	4.54
684.671	4.59
685.079	4.65
685.487	4.72
685.894	4.79
686.302	4.88
686.709	4.99
687.116	5.1
687.524	5.25
687.931	5.42
688.338	5.59
688.745	5.78
689.152	5.97
689.559	6.21
689.966	6.44
690.373	6.7
690.78	6.99
691.187	7.29
691.593	7.61
692	7.93
692.407	8.26
692.813	8.64
693.22	9.03
693.626	9.44
694.032	9.84
694.439	10.3
694.845	10.75
695.251	11.21
695.657	11.65
696.063	12.11
696.469	12.61
696.875	13.12
697.281	13.61
697.687	14.12
698.093	14.63
698.498	15.14
698.904	15.64
699.31	16.14
699.715	16.66
700.12	17.19
700.526	17.72
700.931	18.23
701.337	18.74
701.742	19.25
702.147	19.75
702.552	20.25
702.957	20.73
703.362	21.24
703.767	21.72
704.172	22.2
704.577	22.68
704.981	23.16
705.386	23.64
705.791	24.1
706.195	24.58
706.6	25.04
707.004	25.5
707.408	25.96
707.813	26.42
708.217	26.88
708.621	27.35
709.025	27.8
709.43	28.24
709.834	28.69
710.237	29.11
710.641	29.54
711.045	29.97
711.449	30.42
711.853	30.87
712.256	31.29
712.66	31.68
713.064	32.07
713.467	32.46
713.87	32.84
714.274	33.22
714.677	33.63
715.08	34
715.484	34.4
715.887	34.76
716.29	35.1
716.693	35.46
717.096	35.82
717.499	36.19
717.901	36.54
718.304	36.88
718.707	37.23
719.109	37.55
719.512	37.86
719.915	38.18
720.317	38.48
720.719	38.76
721.122	39.06
721.524	39.35
721.926	39.64
722.328	39.93
722.731	40.2
723.133	40.47
723.535	40.74
723.937	40.99
724.338	41.23
724.74	41.47
725.142	41.86
725.544	42.05
725.945	42.32
726.347	42.51
726.748	42.7
727.15	42.88
727.551	43.09
727.952	43.27
728.354	43.46
728.755	43.62
729.156	43.78
729.557	43.82
729.958	44
730.359	44.12
730.76	44.28
731.161	44.43
731.562	44.6
731.962	44.7
732.363	44.83
732.763	44.96
733.164	45.07
733.564	45.2
733.965	45.32
734.365	45.44
734.766	45.55
735.166	45.66
735.566	45.75
735.966	45.85
736.366	45.96
736.766	46.04
737.166	46.14
737.566	46.23
737.966	46.32
738.365	46.4
738.765	46.47
739.165	46.53
739.564	46.61
739.964	46.69
740.363	46.72
740.763	46.76
741.162	46.83
741.561	46.88
741.96	46.95
742.36	47.01
742.759	47.04
743.158	47.09
743.557	47.12
743.955	47.17
744.354	47.21
744.753	47.27
745.152	47.38
745.55	47.42
745.949	47.47
746.348	47.5
746.746	47.53
747.144	47.58
747.543	47.6
747.941	47.66
748.339	47.64
748.737	47.67
749.136	47.66
749.534	47.63
749.932	47.64
750.33	47.63
750.727	47.63
751.125	47.65
751.523	47.65
751.921	47.67
752.318	47.68
752.716	47.72
753.113	47.74
753.511	47.78
753.908	47.82
754.305	47.86
754.703	47.88
755.1	47.9
755.497	47.9
755.894	47.9
756.291	47.91
756.688	47.88
757.085	47.9
757.482	47.9
757.878	47.92
758.275	47.9
758.672	47.89
759.068	47.92
759.465	47.91
759.861	47.93
760.258	47.95
760.654	47.95
761.05	47.98
761.447	47.98
761.843	47.99
762.239	47.97
762.635	47.99
763.031	47.98
763.427	47.96
763.822	47.97
764.218	47.99
764.614	48
765.01	47.99
765.405	48
765.801	47.99
766.196	48
766.592	48
766.987	48
767.382	48.01
767.778	48.03
768.173	48.01
768.568	48
768.963	47.99
769.358	48.03
769.753	48.01
770.148	48.01
770.542	48
770.937	48.02
771.332	47.98
771.726	47.98
772.121	47.96
772.515	47.96
772.91	47.96
773.304	48
773.699	47.99
774.093	47.97
774.487	47.98
774.881	48
775.275	47.97
775.669	47.97
776.063	47.94
776.457	47.94
776.851	47.93
777.245	47.89
777.638	47.86
778.032	47.84
778.425	47.88
778.819	47.88
779.212	47.86
779.606	47.86
779.999	47.85
780.392	47.89
780.786	47.91
781.179	47.9
781.572	47.95
781.965	47.96
782.358	47.96
782.751	47.95
783.143	47.96
783.536	47.97
783.929	47.97
784.322	48.03
784.714	48.01
785.107	48
785.499	48.02
785.891	47.99
786.284	47.97
786.676	47.97
787.068	47.94
787.46	47.93
787.852	47.9
788.245	47.91
788.636	47.87
789.028	47.89
789.42	47.88
789.812	47.86
790.204	47.86
790.595	47.9
790.987	47.88
791.378	47.93
791.77	47.93
792.161	47.93
792.553	47.94
792.944	47.94
793.335	47.92
793.726	47.93
794.117	47.91
794.508	47.88
794.899	47.83
795.29	47.82
795.681	47.78
796.072	47.75
796.463	47.78
796.853	47.77
797.244	47.73
797.634	47.73
798.025	47.74
798.415	47.74
798.806	47.75
799.196	47.77
799.586	47.78
799.976	47.8
800.366	47.8
800.756	47.75
801.146	47.74
801.536	47.76
801.926	47.77
802.316	47.74
802.706	47.77
803.095	47.8
803.485	47.79
803.874	47.76
804.264	47.75
804.653	47.79
805.043	47.8
805.432	47.81
805.821	47.82
806.21	47.8
806.599	47.81
806.988	47.79
807.377	47.79
807.766	47.8
808.155	47.8
808.544	47.83
808.933	47.81
809.321	47.81
809.71	47.8
810.098	47.8
810.487	47.8
810.875	47.77
811.264	47.75
811.652	47.75
812.04	47.73
812.428	47.76
812.816	47.72
813.204	47.69
813.592	47.65
813.98	47.65
814.368	47.61
814.756	47.6
815.144	47.59
815.531	47.6
815.919	47.59
816.306	47.58
816.694	47.55
817.081	47.54
817.469	47.57
817.856	47.58
818.243	47.56
818.63	47.57
819.017	47.54
819.404	47.54
819.791	47.52
820.178	47.5
820.565	47.48
820.952	47.48
821.339	47.45
821.725	47.45
822.112	47.47
822.498	47.46
822.885	47.49
823.271	47.52
823.657	47.49
824.044	47.53
824.43	47.55
824.816	47.58
825.202	47.58
825.588	47.59
825.974	47.56
826.36	47.55
826.746	47.55
827.132	47.51
827.517	47.5
827.903	47.54
828.289	47.52
828.674	47.51
829.06	47.49
829.445	47.5
829.83	47.51
830.216	47.5
830.601	47.5
830.986	47.51
831.371	47.53
831.756	47.55
832.141	47.53
832.526	47.55
832.911	47.53
833.295	47.55
833.68	47.53
834.065	47.53
834.449	47.55
834.834	47.53
835.218	47.54
835.603	47.53
835.987	47.53
836.371	47.51
836.755	47.48
837.139	47.47
837.524	47.46
837.908	47.47
838.291	47.48
838.675	47.48
839.059	47.48
839.443	47.47
839.827	47.45
840.21	47.45
840.594	47.47
840.977	47.48
841.361	47.46
841.744	47.44
842.127	47.41
842.511	47.39
842.894	47.38
843.277	47.39
843.66	47.37
844.043	47.38
844.426	47.39
844.809	47.4
845.191	47.41
845.574	47.44
845.957	47.45
846.339	47.46
846.722	47.48
847.104	47.5
847.487	47.49
847.869	47.5
848.252	47.51
848.634	47.51
849.016	47.52
849.398	47.51
849.78	47.5
850.162	47.48
850.544	47.47
850.926	47.46
851.307	47.45
851.689	47.46
852.071	47.46
852.452	47.45
852.834	47.43
853.215	47.41
853.597	47.44
853.978	47.45
854.359	47.48
854.741	47.46
855.122	47.47
855.503	47.46
855.884	47.43
856.265	47.46
856.646	47.46
857.026	47.47
857.407	47.47
857.788	47.44
858.169	47.45
858.549	47.43
858.93	47.46
859.31	47.47
859.69	47.49
860.071	47.52
860.451	47.49
860.831	47.46
861.211	47.42
861.591	47.4
861.971	47.41
862.351	47.39
862.731	47.41
863.111	47.38
863.491	47.37
863.87	47.34
864.25	47.31
864.629	47.33
865.009	47.35
865.388	47.37
865.768	47.37
866.147	47.35
866.526	47.33
866.905	47.32
867.284	47.33
867.663	47.3
868.042	47.32
868.421	47.34
868.8	47.33
869.179	47.32
869.558	47.32
869.936	47.3
870.315	47.32
870.693	47.33
871.072	47.31
871.45	47.34
871.828	47.36
872.207	47.37
872.585	47.34
872.963	47.34
873.341	47.34
873.719	47.35
874.097	47.36
874.475	47.35
874.853	47.35
875.23	47.36
875.608	47.33
875.986	47.33
876.363	47.33
876.741	47.37
877.118	47.39
877.495	47.4
877.873	47.38
878.25	47.4
878.627	47.42
879.004	47.42
879.381	47.43
879.758	47.42
880.135	47.42
880.512	47.4
880.889	47.37
881.265	47.34
881.642	47.34
882.019	47.37
882.395	47.36
882.772	47.32
883.148	47.34
883.524	47.35
883.901	47.37
884.277	47.34
884.653	47.33
885.029	47.32
885.405	47.33
885.781	47.33
886.157	47.3
886.532	47.32
886.908	47.31
887.284	47.28
887.659	47.25
888.035	47.23
888.411	47.23
888.786	47.25
889.161	47.27
889.537	47.28
889.912	47.27
890.287	47.26
890.662	47.24
891.037	47.25
891.412	47.23
891.787	47.23
892.162	47.23
892.536	47.21
892.911	47.18
893.286	47.16
893.66	47.16
894.035	47.16
894.409	47.17
894.784	47.19
895.158	47.18
895.532	47.21
895.906	47.21
896.281	47.23
896.655	47.25
897.029	47.26
897.402	47.25
897.776	47.24
898.15	47.25
898.524	47.26
898.898	47.25
899.271	47.28
899.645	47.29
900.018	47.31
900.392	47.29
900.765	47.3
901.138	47.3
901.511	47.31
901.884	47.32
902.258	47.32
902.631	47.31
903.003	47.34
903.376	47.31
903.749	47.29
904.122	47.3
904.495	47.33
904.867	47.34
905.24	47.37
905.612	47.37
905.985	47.34
906.357	47.33
906.729	47.32
907.102	47.3
907.474	47.3
907.846	47.3
908.218	47.32
908.59	47.33
908.962	47.33
909.334	47.33
909.705	47.32
910.077	47.34
910.449	47.37
910.82	47.36
911.192	47.38
911.563	47.4
911.935	47.39
912.306	47.37
912.677	47.36
913.048	47.38
913.419	47.36
913.79	47.38
914.161	47.41
914.532	47.39
914.903	47.4
915.274	47.4
915.645	47.41
916.015	47.43
916.386	47.44
916.756	47.42
917.127	47.42
917.497	47.41
917.868	47.42
918.238	47.41
918.608	47.42
918.978	47.42
919.348	47.45
919.718	47.44
920.088	47.44
920.458	47.46
920.828	47.45
921.198	47.42
921.567	47.43
921.937	47.44
922.306	47.42
922.676	47.41
923.045	47.38
923.415	47.34
923.784	47.3
924.153	47.29
924.522	47.28
924.891	47.28
925.26	47.31
925.629	47.32
925.998	47.29
926.367	47.33
926.736	47.35
927.104	47.35
927.473	47.33
927.842	47.34
928.21	47.37
928.578	47.36
928.947	47.41
929.315	47.39
929.683	47.35
930.051	47.34
930.42	47.32
930.788	47.32
931.156	47.34
931.523	47.33
931.891	47.37
932.259	47.38
932.627	47.35
932.994	47.31
933.362	47.29
933.729	47.33
934.097	47.35
934.464	47.37
934.831	47.35
935.199	47.36
935.566	47.39
935.933	47.36
936.3	47.35
936.667	47.38
937.034	47.43
937.401	47.46
937.767	47.46
938.134	47.42
938.501	47.38
938.867	47.4
939.234	47.35
939.6	47.35
939.967	47.35
940.333	47.26
940.699	47.23
941.065	47.12
941.431	47.09
941.798	47.04
942.163	47.09
942.529	47.04
942.895	47.02
943.261	46.98
943.627	46.98
943.992	46.97
944.358	46.98
944.723	46.94
945.089	46.91
945.454	46.93
945.82	46.92
946.185	46.86
946.55	46.85
946.915	46.82
947.28	46.85
947.645	46.83
948.01	46.84
948.375	46.81
948.74	46.8
949.104	46.83
949.469	46.81
949.834	46.75
950.198	46.76
950.562	46.76
950.927	46.73
951.291	46.64
951.655	46.61
952.02	46.6
952.384	46.58
952.748	46.56
953.112	46.54
953.476	46.49
953.839	46.49
954.203	46.46
954.567	46.43
954.931	46.39
955.294	46.4
955.658	46.48
956.021	46.43
956.385	46.43
956.748	46.42
957.111	46.42
957.474	46.43
957.837	46.42
958.2	46.41
958.563	46.41
958.926	46.45
959.289	46.44
959.652	46.33
960.015	46.3
960.377	46.33
960.74	46.35
961.102	46.34
961.465	46.38
961.827	46.52
962.189	46.53
962.552	46.58
962.914	46.57
963.276	46.61
963.638	46.67
964	46.7
964.362	46.7
964.724	46.68
965.085	46.68
965.447	46.66
965.809	46.58
966.17	46.57
966.532	46.57
966.893	46.61
967.255	46.58
967.616	46.53
967.977	46.5
968.338	46.48
968.699	46.53
969.061	46.53
969.421	46.54
969.782	46.56
970.143	46.56
970.504	46.55
970.865	46.51
971.225	46.57
971.586	46.57
971.946	46.59
972.307	46.59
972.667	46.49
973.027	46.52
973.388	46.54
973.748	46.53
974.108	46.57
974.468	46.56
974.828	46.64
975.188	46.59
975.548	46.6
975.907	46.59
976.267	46.57
976.627	46.62
976.986	46.6
977.346	46.5
977.705	46.48
978.064	46.48
978.424	46.48
978.783	46.39
979.142	46.41
979.501	46.41
979.86	46.5
980.219	46.56
980.578	46.57
980.937	46.6
981.296	46.65
981.654	46.66
982.013	46.66
982.371	46.62
982.73	46.66
983.088	46.64
983.447	46.64
983.805	46.63
984.163	46.57
984.521	46.53
984.879	46.46
985.237	46.51
985.595	46.57
985.953	46.55
986.311	46.53
986.669	46.5
987.026	46.5
987.384	46.55
987.741	46.49
988.099	46.6
988.456	46.61
988.814	46.67
989.171	46.62
989.528	46.54
989.885	46.46
990.242	46.53
990.599	46.58
990.956	46.65
991.313	46.72
991.67	46.8
992.027	46.87
992.383	46.9
992.74	46.94
993.096	46.94
993.453	46.91
993.809	46.95
994.165	46.99
994.522	47.06
994.878	46.98
995.234	46.85
995.59	46.78
995.946	46.73
996.302	46.78
996.658	46.79
997.013	46.8
997.369	46.84
997.725	46.98
998.08	47.03
998.436	46.98
998.791	47.07
999.147	47.13
999.502	47.18
999.857	47.08
1000.212	46.99
1000.567	46.98
1000.922	46.96
1001.277	47.05
1001.632	46.94
1001.987	46.92
1002.342	46.86
1002.696	46.8
1003.051	46.91
1003.406	47.13
1003.76	47.19
1004.114	47.29
1004.469	47.35
1004.823	47.64
1005.177	47.58
1005.531	47.67
1005.885	47.68
1006.239	47.8
1006.593	47.86
1006.947	47.72
1007.301	47.37
1007.655	47.3
1008.008	47.31
1008.362	47.25
1008.715	47.08
1009.069	47.19
1009.422	47.13
1009.776	47.12
1010.129	46.98
1010.482	46.88
1010.835	46.93
1011.188	47.07
1011.541	47.15
1011.894	47.17
1012.247	47.23
1012.6	47.23
1012.952	47.02
1013.305	47.03
1013.657	47.06
1014.01	47.17
1014.362	47.21
1014.715	47.26
1015.067	47.32
1015.419	47.35
1015.771	47.36
1016.123	47.43
1016.475	47.43
1016.827	47.44
1017.179	47.5
1017.531	47.33
1017.883	47.35
1018.234	47.42
1018.586	47.44
1018.938	47.58
1019.289	47.6
1019.64	47.38
1019.992	47.24
1020.343	47.25
1020.694	47.41
1021.045	47.42
1021.396	47.45
1021.747	47.32
1022.098	47.41
1022.449	47.36
1022.8	47.22
1023.151	47.21
1023.501	47.42
1023.852	47.51
1024.202	47.47
1024.553	47.5
1024.903	47.69
1025.253	48.04
1025.604	47.97
1025.954	47.85
1026.304	47.65
1026.654	47.64
1027.004	47.57
1027.354	47.79
1027.703	47.53
1028.053	47.64
1028.403	47.72
1028.753	47.33
1029.102	47.17
1029.452	47.39
1029.801	47.45
1030.15	47.69
1030.499	47.65
897.758	1260.93
901.051	1268.94
904.343	1264.53
907.636	1289.83
910.928	1260.03
914.22	1256.75
917.511	1239.01
920.803	1185.38
924.094	1180.46
927.384	1156.86
930.675	1110.06
933.965	1105.61
937.255	1041.19
940.544	999.83
943.834	951.03
947.123	940.64
950.411	887.11
953.7	870.65
956.988	824.95
960.276	789.22
963.563	778.01
966.851	750.35
970.138	743.17
973.424	720.12
976.711	724.71
979.997	689.5
983.283	685.11
986.568	671.54
989.853	649.98
993.138	637.93
996.423	615.16
999.708	594.64
1002.992	588.59
1006.275	563.94
1009.559	558.63
1012.842	538.75
1016.125	524.81
1019.408	515.56
1022.69	506.97
1025.972	496.91
1029.254	484.69
1032.536	477.55
1035.817	467.35
1039.098	462.24
1042.379	453.28
1045.659	448.42
1048.939	436.46
1052.219	428.43
1055.498	421.99
1058.778	413.37
1062.057	404.71
1065.335	400.84
1068.614	395.14
1071.892	392.02
1075.17	378.27
1078.447	370.01
1081.724	366.63
1085.001	365.3
1088.278	357.93
1091.554	349.89
1094.83	350.2
1098.106	346.72
1101.382	344.29
1104.657	341.95
1107.932	337.24
1111.206	339.33
1114.481	331.21
1117.755	328.15
1121.029	324.91
1124.302	323.45
1127.575	317.94
1130.848	314.29
1134.121	310.59
1137.393	308.61
1140.665	301.71
1143.937	299.13
1147.208	297.44
1150.48	296.85
1153.75	292.92
1157.021	288.85
1160.291	288.83
1163.561	286.46
1166.831	285.53
1170.101	284.31
1173.37	282.72
1176.639	284.2
1179.907	282.16
1183.176	278.16
1186.444	278.09
1189.711	277.75
1192.979	276.93
1196.246	274.87
1199.513	275.77
1202.78	274.4
1206.046	273.83
1209.312	272.31
1212.578	271.95
1215.843	274.09
1219.108	272.81
1222.373	278.16
1225.638	280.47
1228.902	284.14
1232.166	284.33
1235.43	287.27
1238.693	290.77
1241.956	292.66
1245.219	297.07
1248.482	297.74
1251.744	297.1
1255.006	298.46
1258.268	290.79
1261.529	288.42
1264.79	286.44
1268.051	285.55
1271.312	280.72
1274.572	278.41
1277.832	274.88
1281.092	271.09
1284.351	268.94
1287.61	268.65
1290.869	264.96
1294.128	263.79
1297.386	262.75
1300.644	260.11
1303.902	261.06
1307.159	260
1310.416	259.48
1313.673	259.95
1316.93	261.62
1320.186	261.15
1323.442	261.92
1326.697	266
1329.953	267.23
1333.208	268.3
1336.463	271.29
1339.717	271.13
1342.972	274.88
1346.226	277.33
1349.479	277.63
1352.733	278.66
1355.986	281.08
1359.238	281.08
1362.491	282.66
1365.743	284.18
1368.995	284.55
1372.247	283.26
1375.498	283.46
1378.749	285.03
1382	281.21
1385.251	282.45
1388.501	280.86
1391.751	280.41
1395	279.4
1398.25	277.33
1401.499	275.44
1404.748	275.25
1407.996	273.51
1411.244	271.9
1414.492	270.58
1417.74	268.62
1420.987	264.49
1424.234	263.71
1427.481	260.93
1430.728	260.42
1433.974	258.24
1437.22	255.98
1440.465	255.1
1443.711	253.05
1446.956	251.16
1450.201	248.21
1453.445	245.38
1456.689	244.37
1459.933	240.32
1463.177	238.53
1466.42	234.6
1469.663	230.89
1472.906	230.28
1476.148	224.52
1479.391	221.49
1482.633	219.93
1485.874	215.96
1489.115	214.93
1492.356	212.37
1495.597	212.46
1498.838	208.73
1502.078	207.72
1505.318	207.23
1508.557	206.65
1511.797	206.77
1515.036	205.93
1518.274	205.24
1521.513	203.82
1524.751	203.26
1527.989	202.76
1531.227	201.8
1534.464	202.19
1537.701	200.54
1540.938	200.25
1544.174	197.98
1547.41	197.54
1550.646	196.7
1553.882	196.44
1557.117	194.65
1560.352	193.53
1563.587	193.21
1566.821	191.68
1570.055	190.26
1573.289	188.58
1576.523	188.31
1579.756	186.87
1582.989	185.67
1586.222	185.4
1589.454	183.78
1592.686	184.97
1595.918	184.56
1599.15	183.79
1602.381	184.2
1605.612	183.84
1608.843	185.34
1612.073	184.74
1615.303	186.26
1618.533	186.54
1621.762	186.32
1624.992	187.17
1628.221	186.63
1631.449	186.26
1634.678	185.56
1637.906	186.43
1641.134	186.63
1644.361	186.37
1647.588	187.24
1650.815	185.98
1654.042	184.88
1657.269	186.33
1660.495	186.57
1663.72	185.73
1666.946	186.31
1670.171	187.15
1673.396	187.05
1676.621	187.1
1679.845	187.05
1683.069	186.75
1686.293	188.33
1689.517	189.92
1692.74	189.24
1695.963	189.51
1699.185	191.54
1702.408	191.69
1705.63	192.7
1708.852	192.91
1712.073	193.08
1715.294	193.75
1718.515	194.74
1721.736	194.1
1724.956	193.89
1728.176	194.3
1731.396	195.91
1734.616	195.35
1737.835	196.2
1741.054	194.53
1744.272	195.12
1747.491	197.03
1750.709	197.04
1753.927	196.87
1757.144	196.85
1760.361	197.9
1763.578	198.38
1766.795	197.92
1770.011	198.95
1773.227	198.93
1776.443	201.57
1779.658	202.31
1782.874	201.47
1786.089	202.37
1789.303	203.4
1792.518	205.1
1795.732	205.2
1798.945	206.41
1802.159	207.03
1805.372	207.7
1808.585	211.26
1811.797	211.73
1815.01	211.85
1818.222	213.94
1821.434	215.58
1824.645	216.04
1827.856	219.78
1831.067	221.53
1834.278	220.96
1837.488	222.57
1840.698	224.31
1843.908	222.12
1847.117	223.5
1850.326	225.33
1853.535	223.99
1856.744	227.51
1859.952	226.97
1863.16	225.48
1866.368	224.1
1869.575	226.42
1872.782	222.53
1875.989	221.88
1879.196	221.47
1882.402	219.8
1885.608	220.01
1888.814	220.87
1892.019	219.52
1895.224	219.22
1898.429	218.24
1901.634	219.51
1904.838	219.42
1908.042	221.94
1911.246	222.34
1914.449	223.32
1917.652	223.89
1920.855	223.81
1924.058	223.4
1927.26	222.73
1930.462	223.58
1933.664	226.22
1936.865	223.9
1940.066	223.92
1943.267	222.75
1946.467	222.23
1949.668	223.73
1952.868	225.65
1956.067	225.76
1959.267	226.54
1962.466	226.82
1965.665	225.78
1968.863	226.25
1972.061	229.36
1975.259	231.63
1978.457	233.61
1981.654	235.31
1984.852	235.81
1988.048	235.38
1991.245	237.37
1994.441	240.01
1997.637	241.8
2000.833	245.99
2004.028	249.55
2007.223	251.43
2010.418	253.83
2013.613	258.11
2016.807	261.65
2020.001	263.43
2023.194	268.01
2026.388	273.84
2029.581	279.93
2032.774	282.41
2035.966	288.38
2039.158	288.12
2042.35	294.48
2045.542	295.84
2048.733	300.44
2051.924	304.54
2055.115	309.72
2058.306	309.84
2061.496	312.78
2064.686	313.21
2067.875	318.35
2071.065	319.78
2074.254	318.26
2077.442	321.33
2080.631	323.17
2083.819	325.88
2087.007	326.5
2090.195	331.17
2093.382	333.5
2096.569	331.71
2099.756	335.66
2102.942	337.51
2106.128	340.27
2109.314	348.35
2112.5	346.96
2115.685	354.56
2118.87	355.06
2122.055	361.84
2125.239	363.97
2128.424	368.49
2131.608	371.72
2134.791	376.12
2137.974	378.32
2141.157	378.64
2144.34	379.49
2147.523	386.12
2150.705	383.59
2153.887	387.77
2157.068	388.01
2160.25	384.73
2163.431	386
2166.611	390.76
2169.792	397.74
2172.972	400.91
2176.152	404.29
2179.331	408.6
2182.511	415.12
2185.69	419.16
2188.868	427.7
2192.047	428.85
2195.225	441.09
2198.403	452.64
2201.58	458.89
2204.758	469.62
2207.935	478.44
2211.111	488.51
2214.288	495.52
2217.464	494.45
2220.64	504.69
2223.815	510.49
2226.991	531.43
2230.166	531.81
2233.34	541.13
2236.515	551.75
2239.689	551.66
2242.863	554.73
2246.036	570.55
2249.209	566.82
2252.382	578.14
2255.555	594.12
2258.727	595.88
2261.9	600.11
2265.071	605.44
2268.243	616.28
2271.414	621.83
2274.585	636.02
2277.756	641.84
2280.926	645.38
2284.096	661.63
2287.266	674.46
2290.436	679.01
2293.605	695.39
2296.774	713.29
2299.942	736.75
2303.111	740.31
2306.279	758.69
2309.447	766.24
2312.614	789.14
2315.781	810.15
2318.948	843.61
2322.115	833.27
2325.281	878.78
2328.447	860.11
2331.613	896.31
2334.779	885.97
2337.944	924.03
2341.109	932.19
2344.274	960.98
2347.438	996.01
2350.602	995.35
2353.766	1026.95
2356.929	1042.46
2360.092	1034.4
2363.255	1108.81
2366.418	1107.27
2369.58	1130.75
2372.742	1196.96
2375.904	1229.02
2379.066	1222.27
2382.227	1192.31
2385.388	1298.51
2388.548	1297.26
2391.709	1311.82
2394.869	1458.74
2398.029	1401.15
2401.188	1441.68
2404.347	1428.53
2407.506	1410.76
2410.665	1452.41
2413.823	1534.19
2416.981	1631.19
2420.139	1574.84
2423.296	1560.29
2426.453	1630.48
2429.61	1567.65
2432.767	1634.47
2435.923	1615.53
2439.079	1772.65
2442.235	1791.74
2445.391	1770.65
2448.546	1759.78
2451.701	1705.18
2454.855	1703.32
2458.009	1804.56
2461.163	1878.01
2464.317	1949.68
2467.471	2000.09
2470.624	2008.74
2473.777	1952.21
2476.929	1904.88
2480.082	1852.47
2483.234	1833.67
2486.385	1929.18
2489.537	1934.78
2492.688	2012.72
2495.839	1955.69
2498.989	1912.87
2502.14	1925.31
2505.29	1937.51
2508.439	1971.68
2511.589	1965.65
2514.738	2143.81
2517.887	2096.72
2521.035	2214.8
2524.183	2234.25
2527.331	2246.84
2530.479	2238.04
2533.627	2254.23
