Data from N_2_DIV_PA_2N_Splice17_13-38-54-135.txt Node
Date: Sat Mar 07 13:38:54 EST 2020
User: sa697716
Spectrometer: NQ5500242
Trigger mode: 0
Integration Time (sec): 1.450000E-1
Scans to average: 20
Nonlinearity correction enabled: false
Boxcar width: 5
Storing dark spectrum: false
XAxis mode: Wavelengths
Number of Pixels in Spectrum: 512
>>>>>Begin Spectral Data<<<<<
187.83	219.43
188.298	232.39
188.766	203.55
189.233	173.71
189.701	189.51
190.169	208.37
190.636	227.91
191.104	249
191.571	-62.89
192.039	-272.81
192.506	-836.86
192.974	46.01
193.441	37.26
193.908	-11.45
194.375	35.45
194.842	-9.47
195.31	-32.23
195.777	-22.39
196.244	84.09
196.711	89.33
197.177	90.97
197.644	91.26
198.111	92.07
198.578	92.37
199.045	93
199.511	92.46
199.978	92.7
200.445	93.38
200.911	93.58
201.378	93.62
201.844	93.63
202.31	93.21
202.777	93.03
203.243	92.55
203.709	91.98
204.176	90.86
204.642	90.52
205.108	90.02
205.574	88.83
206.04	87.77
206.506	86.94
206.972	86.09
207.438	84.97
207.903	83.45
208.369	81.62
208.835	79.85
209.301	78.11
209.766	75.62
210.232	73.49
210.697	71.31
211.163	69.21
211.628	67.19
212.094	65.23
212.559	63.89
213.024	62.16
213.49	60.91
213.955	59.2
214.42	57.49
214.885	55.54
215.35	52.91
215.815	49.9
216.28	45.84
216.745	41.4
217.21	37.07
217.675	32.89
218.14	29.42
218.604	26.33
219.069	23.8
219.534	21.73
219.998	20.02
220.463	18.62
220.927	17.3
221.392	16.33
221.856	15.56
222.32	14.88
222.785	14.29
223.249	13.78
223.713	13.32
224.177	12.95
224.642	12.58
225.106	12.21
225.57	11.89
226.034	11.64
226.497	11.38
226.961	11.12
227.425	10.9
227.889	10.67
228.353	10.46
228.816	10.25
229.28	10.05
229.744	9.86
230.207	9.69
230.671	9.52
231.134	9.36
231.597	9.24
232.061	9.1
232.524	8.97
232.987	8.85
233.45	8.74
233.914	8.63
234.377	8.52
234.84	8.42
235.303	8.35
235.766	8.26
236.229	8.17
236.691	8.08
237.154	8.01
237.617	7.94
238.08	7.87
238.542	7.79
239.005	7.74
239.468	7.68
239.93	7.61
240.393	7.54
240.855	7.47
241.317	7.4
241.78	7.33
242.242	7.25
242.704	7.19
243.166	7.13
243.629	7.09
244.091	7.01
244.553	6.94
245.015	6.88
245.477	6.81
245.939	6.75
246.4	6.69
246.862	6.62
247.324	6.58
247.786	6.51
248.247	6.45
248.709	6.38
249.17	6.31
249.632	6.29
250.093	6.25
250.555	6.2
251.016	6.17
251.477	6.14
251.939	6.12
252.4	6.08
252.861	6.04
253.322	6.02
253.783	6
254.244	5.98
254.705	5.93
255.166	5.9
255.627	5.86
256.088	5.82
256.549	5.79
257.009	5.74
257.47	5.7
257.931	5.66
258.391	5.61
258.852	5.55
259.312	5.51
259.773	5.47
260.233	5.43
260.694	5.39
261.154	5.34
261.614	5.31
262.074	5.26
262.534	5.23
262.994	5.19
263.455	5.16
263.915	5.13
264.374	5.1
264.834	5.07
265.294	5.04
265.754	5.01
266.214	4.99
266.673	4.96
267.133	4.95
267.593	4.93
268.052	4.92
268.512	4.9
268.971	4.89
269.431	4.88
269.89	4.86
270.349	4.85
270.809	4.85
271.268	4.84
271.727	4.82
272.186	4.81
272.645	4.8
273.104	4.78
273.563	4.77
274.022	4.76
274.481	4.76
274.94	4.76
275.399	4.75
275.857	4.74
276.316	4.73
276.775	4.72
277.233	4.72
277.692	4.72
278.15	4.72
278.609	4.72
279.067	4.72
279.525	4.72
279.984	4.71
280.442	4.71
280.9	4.72
281.358	4.72
281.816	4.72
282.274	4.72
282.732	4.72
283.19	4.72
283.648	4.7
284.106	4.7
284.564	4.7
285.021	4.7
285.479	4.69
285.937	4.68
286.394	4.67
286.852	4.65
287.309	4.64
287.767	4.63
288.224	4.61
288.682	4.6
289.139	4.58
289.596	4.56
290.053	4.53
290.511	4.5
290.968	4.48
291.425	4.46
291.882	4.46
292.339	4.44
292.796	4.43
293.252	4.42
293.709	4.4
294.166	4.4
294.623	4.39
295.079	4.38
295.536	4.38
295.992	4.37
296.449	4.36
296.905	4.35
297.362	4.35
297.818	4.34
298.274	4.34
298.731	4.33
299.187	4.31
299.643	4.31
300.099	4.31
300.555	4.31
301.011	4.3
301.467	4.31
301.923	4.3
302.379	4.31
302.835	4.32
303.291	4.33
303.746	4.33
304.202	4.34
304.658	4.35
305.113	4.36
305.569	4.36
306.024	4.36
306.479	4.35
306.935	4.35
307.39	4.36
307.845	4.36
308.301	4.36
308.756	4.38
309.211	4.38
309.666	4.39
310.121	4.39
310.576	4.39
311.031	4.4
311.486	4.41
311.94	4.42
312.395	4.42
312.85	4.42
313.305	4.42
313.759	4.42
314.214	4.42
314.668	4.42
315.123	4.42
315.577	4.41
316.032	4.41
316.486	4.41
316.94	4.41
317.394	4.4
317.849	4.38
318.303	4.37
318.757	4.35
319.211	4.34
319.665	4.32
320.119	4.3
320.572	4.29
321.026	4.27
321.48	4.26
321.934	4.24
322.387	4.24
322.841	4.24
323.295	4.24
323.748	4.23
324.202	4.24
324.655	4.24
325.108	4.26
325.562	4.26
326.015	4.28
326.468	4.29
326.921	4.29
327.374	4.29
327.827	4.3
328.28	4.31
328.733	4.31
329.186	4.31
329.639	4.32
330.092	4.32
330.545	4.32
330.997	4.32
331.45	4.33
331.903	4.34
332.355	4.35
332.808	4.35
333.26	4.35
333.713	4.35
334.165	4.35
334.617	4.36
335.069	4.35
335.522	4.36
335.974	4.37
336.426	4.36
336.878	4.35
337.33	4.34
337.782	4.35
338.234	4.36
338.686	4.36
339.137	4.37
339.589	4.35
340.041	4.35
340.493	4.33
340.944	4.31
341.396	4.3
341.847	4.28
342.299	4.27
342.75	4.25
343.201	4.22
343.653	4.2
344.104	4.18
344.555	4.16
345.006	4.14
345.457	4.12
345.908	4.12
346.359	4.11
346.81	4.11
347.261	4.1
347.712	4.09
348.163	4.09
348.613	4.09
349.064	4.09
349.515	4.09
349.965	4.1
350.416	4.09
350.866	4.1
351.317	4.1
351.767	4.11
352.217	4.1
352.668	4.11
353.118	4.11
353.568	4.11
354.018	4.12
354.468	4.13
354.918	4.14
355.368	4.15
355.818	4.15
356.268	4.15
356.718	4.16
357.168	4.17
357.617	4.17
358.067	4.17
358.517	4.18
358.966	4.19
359.416	4.18
359.865	4.18
360.315	4.18
360.764	4.19
361.213	4.19
361.663	4.18
362.112	4.19
362.561	4.21
363.01	4.21
363.459	4.19
363.908	4.18
364.357	4.2
364.806	4.2
365.255	4.21
365.703	4.22
366.152	4.24
366.601	4.25
367.05	4.25
367.498	4.24
367.947	4.25
368.395	4.26
368.844	4.27
369.292	4.27
369.74	4.28
370.189	4.28
370.637	4.28
371.085	4.26
371.533	4.26
371.981	4.26
372.429	4.28
372.877	4.28
373.325	4.29
373.773	4.3
374.221	4.3
374.669	4.3
375.116	4.3
375.564	4.3
376.012	4.32
376.459	4.33
376.907	4.36
377.354	4.36
377.801	4.38
378.249	4.39
378.696	4.39
379.143	4.41
379.591	4.42
380.038	4.44
380.485	4.45
380.932	4.48
381.379	4.49
381.826	4.5
382.273	4.52
382.72	4.52
383.166	4.54
383.613	4.56
384.06	4.57
384.506	4.59
384.953	4.61
385.4	4.64
385.846	4.65
386.292	4.67
386.739	4.69
387.185	4.7
387.631	4.72
388.078	4.74
388.524	4.77
388.97	4.79
389.416	4.83
389.862	4.86
390.308	4.89
390.754	4.93
391.2	4.97
391.645	5
392.091	5.05
392.537	5.09
392.983	5.12
393.428	5.16
393.874	5.19
394.319	5.22
394.765	5.25
395.21	5.28
395.655	5.31
396.101	5.34
396.546	5.37
396.991	5.41
397.436	5.47
397.881	5.52
398.326	5.56
398.771	5.61
399.216	5.65
399.661	5.7
400.106	5.75
400.551	5.79
400.995	5.82
401.44	5.86
401.885	5.88
402.329	5.92
402.774	5.96
403.218	6.01
403.663	6.04
404.107	6.08
404.551	6.12
404.995	6.15
405.44	6.17
405.884	6.22
406.328	6.26
406.772	6.3
407.216	6.33
407.66	6.35
408.104	6.36
408.547	6.39
408.991	6.42
409.435	6.45
409.879	6.49
410.322	6.54
410.766	6.59
411.209	6.62
411.653	6.67
412.096	6.72
412.54	6.76
412.983	6.82
413.426	6.88
413.869	6.92
414.312	6.98
414.756	7.02
415.199	7.04
415.642	7.06
416.085	7.08
416.527	7.07
416.97	7.07
417.413	7.09
417.856	7.08
418.298	7.08
418.741	7.09
419.184	7.08
419.626	7.09
420.069	7.11
420.511	7.13
420.953	7.16
421.396	7.2
421.838	7.21
422.28	7.23
422.722	7.27
423.164	7.28
423.606	7.3
424.048	7.33
424.49	7.33
424.932	7.32
425.374	7.3
425.816	7.27
426.258	7.25
426.699	7.25
427.141	7.26
427.582	7.28
428.024	7.3
428.465	7.31
428.907	7.29
429.348	7.29
429.789	7.32
430.231	7.37
430.672	7.43
431.113	7.47
431.554	7.49
431.995	7.5
432.436	7.5
432.877	7.51
433.318	7.54
433.759	7.58
434.2	7.63
434.64	7.64
435.081	7.64
435.522	7.64
435.962	7.64
436.403	7.66
436.843	7.69
437.284	7.69
437.724	7.7
438.164	7.69
438.604	7.7
439.045	7.7
439.485	7.7
439.925	7.69
440.365	7.7
440.805	7.69
441.245	7.69
441.685	7.7
442.125	7.72
442.564	7.71
443.004	7.72
443.444	7.72
443.883	7.73
444.323	7.71
444.762	7.71
445.202	7.71
445.641	7.74
446.081	7.74
446.52	7.72
446.959	7.72
447.398	7.73
447.837	7.72
448.276	7.71
448.716	7.69
449.154	7.71
449.593	7.72
450.032	7.69
450.471	7.65
450.91	7.63
451.349	7.63
451.787	7.59
452.226	7.55
452.664	7.53
453.103	7.49
453.541	7.48
453.98	7.45
454.418	7.41
454.856	7.39
455.295	7.38
455.733	7.35
456.171	7.33
456.609	7.34
457.047	7.31
457.485	7.29
457.923	7.29
458.361	7.27
458.798	7.27
459.236	7.27
459.674	7.26
460.111	7.25
460.549	7.27
460.987	7.26
461.424	7.25
461.862	7.26
462.299	7.29
462.736	7.28
463.173	7.28
463.611	7.3
464.048	7.3
464.485	7.32
464.922	7.32
465.359	7.31
465.796	7.34
466.233	7.36
466.67	7.36
467.106	7.36
467.543	7.35
467.98	7.35
468.416	7.32
468.853	7.31
469.29	7.29
469.726	7.28
470.162	7.28
470.599	7.25
471.035	7.22
471.471	7.2
471.907	7.17
472.344	7.17
472.78	7.17
473.216	7.15
473.652	7.14
474.088	7.13
474.523	7.12
474.959	7.1
475.395	7.07
475.831	7.06
476.266	7.04
476.702	7.01
477.138	6.99
477.573	6.98
478.008	6.95
478.444	6.92
478.879	6.91
479.314	6.87
479.75	6.86
480.185	6.82
480.62	6.81
481.055	6.78
481.49	6.77
481.925	6.74
482.36	6.72
482.795	6.71
483.229	6.69
483.664	6.68
484.099	6.67
484.534	6.65
484.968	6.64
485.403	6.63
485.837	6.63
486.271	6.62
486.706	6.62
487.14	6.6
487.574	6.6
488.009	6.6
488.443	6.59
488.877	6.59
489.311	6.59
489.745	6.6
490.179	6.61
490.613	6.62
491.046	6.61
491.48	6.62
491.914	6.62
492.348	6.63
492.781	6.64
493.215	6.64
493.648	6.65
494.082	6.66
494.515	6.66
494.948	6.66
495.382	6.66
495.815	6.67
496.248	6.68
496.681	6.7
497.114	6.71
497.547	6.73
497.98	6.74
498.413	6.75
498.846	6.77
499.279	6.79
499.711	6.8
500.144	6.82
500.577	6.83
501.009	6.85
501.442	6.88
501.874	6.9
502.306	6.91
502.739	6.96
503.171	6.98
503.603	7
504.036	7.02
504.468	7.05
504.9	7.08
505.332	7.1
505.764	7.14
506.196	7.17
506.627	7.2
507.059	7.24
507.491	7.25
507.923	7.3
508.354	7.36
508.786	7.41
509.217	7.47
509.649	7.53
510.08	7.6
510.512	7.66
510.943	7.72
511.374	7.8
511.805	7.87
512.237	7.96
512.668	8.03
513.099	8.09
513.53	8.17
513.961	8.26
514.391	8.35
514.822	8.45
515.253	8.54
515.684	8.64
516.114	8.73
516.545	8.83
516.975	8.93
517.406	9.04
517.836	9.14
518.267	9.26
518.697	9.36
519.127	9.47
519.558	9.58
519.988	9.69
520.418	9.79
520.848	9.91
521.278	10.02
521.708	10.34
522.138	10.46
522.567	10.57
522.997	10.67
523.427	10.78
523.857	10.89
524.286	10.99
524.716	11.11
525.145	11.22
525.575	11.32
526.004	11.43
526.433	11.34
526.863	11.44
527.292	11.54
527.721	11.65
528.15	11.75
528.579	11.83
529.008	11.93
529.437	12.02
529.866	12.1
530.295	12.19
530.724	12.26
531.152	12.33
531.581	12.4
532.01	12.48
532.438	12.54
532.867	12.61
533.295	12.67
533.723	12.73
534.152	12.78
534.58	12.82
535.008	12.86
535.436	12.92
535.865	12.97
536.293	13
536.721	13.04
537.149	13.08
537.576	13.11
538.004	13.14
538.432	13.16
538.86	13.2
539.287	13.23
539.715	13.27
540.143	13.29
540.57	13.31
540.998	13.34
541.425	13.38
541.852	13.4
542.28	13.41
542.707	13.44
543.134	13.46
543.561	13.49
543.988	13.52
544.415	13.53
544.842	13.55
545.269	13.57
545.696	13.59
546.123	13.61
546.549	13.63
546.976	13.66
547.403	13.66
547.829	13.68
548.256	13.69
548.682	13.69
549.108	13.72
549.535	13.73
549.961	13.75
550.387	13.75
550.813	13.75
551.24	13.75
551.666	13.75
552.092	13.74
552.518	13.74
552.943	13.73
553.369	13.72
553.795	13.7
554.221	13.68
554.646	13.64
555.072	13.62
555.498	13.58
555.923	13.55
556.349	13.5
556.774	13.46
557.199	13.41
557.625	13.37
558.05	13.32
558.475	13.27
558.9	13.21
559.325	13.17
559.75	13.11
560.175	13.05
560.6	12.98
561.025	12.91
561.449	12.84
561.874	12.77
562.299	12.7
562.723	12.62
563.148	12.53
563.572	12.44
563.997	12.36
564.421	12.26
564.846	12.17
565.27	12.09
565.694	12.01
566.118	11.92
566.542	11.83
566.966	11.74
567.39	11.66
567.814	11.57
568.238	11.48
568.662	11.39
569.086	11.31
569.509	11.23
569.933	11.16
570.357	11.08
570.78	11.01
571.204	10.94
571.627	10.86
572.05	10.79
572.474	10.72
572.897	10.66
573.32	10.6
573.743	10.54
574.166	10.49
574.589	10.42
575.012	10.36
575.435	10.3
575.858	10.24
576.281	10.19
576.704	10.14
577.126	10.1
577.549	10.06
577.972	10.01
578.394	9.96
578.817	9.92
579.239	9.88
579.661	9.85
580.084	9.83
580.506	9.81
580.928	9.77
581.35	9.75
581.772	9.71
582.194	9.67
582.616	9.64
583.038	9.62
583.46	9.58
583.882	9.55
584.303	9.5
584.725	9.46
585.147	9.45
585.568	9.43
585.99	9.4
586.411	9.38
586.833	9.36
587.254	9.33
587.675	9.3
588.096	9.28
588.518	9.25
588.939	9.26
589.36	9.23
589.781	9.19
590.202	9.19
590.623	9.17
591.043	9.14
591.464	9.12
591.885	9.09
592.305	9.07
592.726	9.06
593.147	9.05
593.567	9.02
593.987	9
594.408	8.97
594.828	8.95
595.248	8.94
595.669	8.93
596.089	8.92
596.509	8.9
596.929	8.89
597.349	8.86
597.769	8.84
598.189	8.82
598.608	8.81
599.028	8.79
599.448	8.76
599.867	8.73
600.287	8.7
600.706	8.68
601.126	8.65
601.545	8.63
601.965	8.62
602.384	8.6
602.803	8.57
603.222	8.54
603.641	8.52
604.061	8.5
604.48	8.48
604.898	8.46
605.317	8.44
605.736	8.42
606.155	8.39
606.574	8.37
606.992	8.34
607.411	8.32
607.829	8.26
608.248	8.21
608.666	8.19
609.085	8.17
609.503	8.14
609.921	8.12
610.339	8.09
610.758	8.06
611.176	8.02
611.594	8.01
612.012	7.98
612.43	7.99
612.847	7.97
613.265	7.95
613.683	7.91
614.101	7.89
614.518	7.86
614.936	7.84
615.353	7.82
615.771	7.8
616.188	7.78
616.606	7.76
617.023	7.73
617.44	7.72
617.857	7.7
618.274	7.68
618.691	7.66
619.108	7.65
619.525	7.63
619.942	7.62
620.359	7.61
620.776	7.6
621.192	7.6
621.609	7.61
622.026	7.6
622.442	7.6
622.859	7.59
623.275	7.58
623.691	7.56
624.108	7.56
624.524	7.55
624.94	7.55
625.356	7.56
625.772	7.54
626.188	7.54
626.604	7.53
627.02	7.52
627.436	7.53
627.852	7.54
628.268	7.54
628.683	7.55
629.099	7.55
629.514	7.55
629.93	7.55
630.345	7.56
630.761	7.55
631.176	7.55
631.591	7.55
632.007	7.55
632.422	7.53
632.837	7.52
633.252	7.51
633.667	7.49
634.082	7.47
634.497	7.46
634.911	7.44
635.326	7.42
635.741	7.4
636.155	7.37
636.57	7.37
636.984	7.36
637.399	7.35
637.813	7.32
638.228	7.3
638.642	7.28
639.056	7.26
639.47	7.25
639.884	7.24
640.298	7.22
640.712	7.21
641.126	7.17
641.54	7.14
641.954	7.11
642.368	7.09
642.781	7.08
643.195	7.07
643.609	7.06
644.022	7.03
644.436	7.02
644.849	7
645.262	6.97
645.676	6.95
646.089	6.94
646.502	6.93
646.915	6.93
647.328	6.91
647.741	6.9
648.154	6.88
648.567	6.88
648.98	6.85
649.393	6.86
649.805	6.87
650.218	6.86
650.631	6.85
651.043	6.85
651.456	6.84
651.868	6.83
652.28	6.82
652.693	6.82
653.105	6.8
653.517	6.8
653.929	6.8
654.341	6.79
654.753	6.77
655.165	6.76
655.577	6.76
655.989	6.74
656.401	6.75
656.813	6.75
657.224	6.74
657.636	6.72
658.047	6.7
658.459	6.68
658.87	6.66
659.282	6.65
659.693	6.63
660.104	6.61
660.515	6.6
660.926	6.57
661.338	6.54
661.749	6.53
662.159	6.52
662.57	6.52
662.981	6.51
663.392	6.51
663.803	6.51
664.213	6.49
664.624	6.48
665.035	6.48
665.445	6.48
665.855	6.48
666.266	6.49
666.676	6.5
667.086	6.48
667.497	6.47
667.907	6.48
668.317	6.47
668.727	6.48
669.137	6.48
669.547	6.48
669.956	6.48
670.366	6.49
670.776	6.49
671.186	6.49
671.595	6.5
672.005	6.5
672.414	6.51
672.824	6.51
673.233	6.52
673.642	6.53
674.052	6.55
674.461	6.56
674.87	6.56
675.279	6.58
675.688	6.59
676.097	6.62
676.506	6.63
676.915	6.64
677.323	6.67
677.732	6.68
678.141	6.7
678.549	6.71
678.958	6.74
679.366	6.77
679.775	6.78
680.183	6.81
680.592	6.83
681	6.87
681.408	6.9
681.816	6.93
682.224	6.97
682.632	7.02
683.04	7.05
683.448	7.09
683.856	7.11
684.264	7.16
684.671	7.19
685.079	7.22
685.487	7.27
685.894	7.34
686.302	7.39
686.709	7.44
687.116	7.49
687.524	7.57
687.931	7.66
688.338	7.75
688.745	7.85
689.152	7.96
689.559	8.1
689.966	8.22
690.373	8.36
690.78	8.52
691.187	8.69
691.593	8.87
692	9.07
692.407	9.26
692.813	9.49
693.22	9.73
693.626	9.98
694.032	10.24
694.439	10.52
694.845	10.81
695.251	11.1
695.657	11.41
696.063	11.73
696.469	12.07
696.875	12.42
697.281	12.78
697.687	13.16
698.093	13.55
698.498	13.92
698.904	14.32
699.31	14.71
699.715	15.13
700.12	15.56
700.526	15.99
700.931	16.41
701.337	16.84
701.742	17.26
702.147	17.67
702.552	18.11
702.957	18.54
703.362	18.98
703.767	19.41
704.172	19.82
704.577	20.24
704.981	20.68
705.386	21.13
705.791	21.58
706.195	22.01
706.6	22.47
707.004	22.91
707.408	23.35
707.813	23.8
708.217	24.25
708.621	24.72
709.025	25.16
709.43	25.61
709.834	26.04
710.237	26.46
710.641	26.9
711.045	27.32
711.449	27.76
711.853	28.21
712.256	28.62
712.66	29.05
713.064	29.48
713.467	29.93
713.87	30.36
714.274	30.76
714.677	31.21
715.08	31.64
715.484	32.08
715.887	32.53
716.29	32.93
716.693	33.37
717.096	33.8
717.499	34.2
717.901	34.6
718.304	35.01
718.707	35.44
719.109	35.84
719.512	36.19
719.915	36.55
720.317	36.9
720.719	37.25
721.122	37.59
721.524	37.93
721.926	38.29
722.328	38.63
722.731	38.94
723.133	39.26
723.535	39.58
723.937	39.92
724.338	40.25
724.74	40.56
725.142	41
725.544	41.29
725.945	41.61
726.347	41.86
726.748	42.1
727.15	42.36
727.551	42.64
727.952	42.87
728.354	43.12
728.755	43.34
729.156	43.56
729.557	43.65
729.958	43.85
730.359	44.04
730.76	44.25
731.161	44.47
731.562	44.68
731.962	44.83
732.363	45.02
732.763	45.19
733.164	45.36
733.564	45.54
733.965	45.71
734.365	45.89
734.766	46.04
735.166	46.22
735.566	46.35
735.966	46.49
736.366	46.64
736.766	46.76
737.166	46.9
737.566	47.02
737.966	47.14
738.365	47.26
738.765	47.37
739.165	47.46
739.564	47.56
739.964	47.66
740.363	47.76
740.763	47.85
741.162	47.96
741.561	48.05
741.96	48.11
742.36	48.19
742.759	48.27
743.158	48.36
743.557	48.4
743.955	48.46
744.354	48.54
744.753	48.63
745.152	48.72
745.55	48.75
745.949	48.83
746.348	48.91
746.746	48.95
747.144	48.99
747.543	49.01
747.941	49.08
748.339	49.11
748.737	49.12
749.136	49.12
749.534	49.1
749.932	49.15
750.33	49.14
750.727	49.16
751.125	49.19
751.523	49.22
751.921	49.26
752.318	49.29
752.716	49.32
753.113	49.37
753.511	49.44
753.908	49.52
754.305	49.55
754.703	49.59
755.1	49.61
755.497	49.63
755.894	49.65
756.291	49.68
756.688	49.72
757.085	49.74
757.482	49.75
757.878	49.75
758.275	49.77
758.672	49.78
759.068	49.82
759.465	49.84
759.861	49.86
760.258	49.9
760.654	49.92
761.05	49.95
761.447	49.99
761.843	50.02
762.239	50.05
762.635	50.03
763.031	50.06
763.427	50.05
763.822	50.06
764.218	50.08
764.614	50.09
765.01	50.09
765.405	50.06
765.801	50.05
766.196	50.03
766.592	50.03
766.987	50.05
767.382	50.02
767.778	50.05
768.173	50.07
768.568	50.08
768.963	50.09
769.358	50.12
769.753	50.13
770.148	50.16
770.542	50.19
770.937	50.2
771.332	50.21
771.726	50.22
772.121	50.23
772.515	50.22
772.91	50.23
773.304	50.23
773.699	50.24
774.093	50.25
774.487	50.26
774.881	50.28
775.275	50.27
775.669	50.24
776.063	50.25
776.457	50.26
776.851	50.27
777.245	50.26
777.638	50.26
778.032	50.25
778.425	50.26
778.819	50.25
779.212	50.26
779.606	50.3
779.999	50.32
780.392	50.34
780.786	50.33
781.179	50.35
781.572	50.37
781.965	50.38
782.358	50.36
782.751	50.35
783.143	50.34
783.536	50.35
783.929	50.31
784.322	50.35
784.714	50.37
785.107	50.39
785.499	50.36
785.891	50.38
786.284	50.39
786.676	50.43
787.068	50.45
787.46	50.45
787.852	50.43
788.245	50.47
788.636	50.46
789.028	50.45
789.42	50.44
789.812	50.48
790.204	50.47
790.595	50.48
790.987	50.48
791.378	50.51
791.77	50.53
792.161	50.53
792.553	50.52
792.944	50.52
793.335	50.53
793.726	50.57
794.117	50.58
794.508	50.58
794.899	50.57
795.29	50.55
795.681	50.51
796.072	50.5
796.463	50.56
796.853	50.56
797.244	50.57
797.634	50.58
798.025	50.57
798.415	50.53
798.806	50.53
799.196	50.55
799.586	50.55
799.976	50.57
800.366	50.59
800.756	50.56
801.146	50.59
801.536	50.61
801.926	50.58
802.316	50.56
802.706	50.61
803.095	50.64
803.485	50.64
803.874	50.66
804.264	50.66
804.653	50.66
805.043	50.67
805.432	50.66
805.821	50.67
806.21	50.72
806.599	50.72
806.988	50.71
807.377	50.7
807.766	50.69
808.155	50.69
808.544	50.7
808.933	50.7
809.321	50.68
809.71	50.66
810.098	50.65
810.487	50.6
810.875	50.6
811.264	50.59
811.652	50.61
812.04	50.61
812.428	50.62
812.816	50.59
813.204	50.59
813.592	50.58
813.98	50.57
814.368	50.58
814.756	50.59
815.144	50.58
815.531	50.57
815.919	50.54
816.306	50.54
816.694	50.52
817.081	50.57
817.469	50.57
817.856	50.59
818.243	50.61
818.63	50.58
819.017	50.59
819.404	50.57
819.791	50.56
820.178	50.56
820.565	50.55
820.952	50.57
821.339	50.53
821.725	50.52
822.112	50.52
822.498	50.52
822.885	50.55
823.271	50.55
823.657	50.52
824.044	50.56
824.43	50.55
824.816	50.54
825.202	50.51
825.588	50.52
825.974	50.5
826.36	50.49
826.746	50.46
827.132	50.44
827.517	50.45
827.903	50.48
828.289	50.49
828.674	50.5
829.06	50.5
829.445	50.5
829.83	50.49
830.216	50.49
830.601	50.49
830.986	50.51
831.371	50.48
831.756	50.46
832.141	50.46
832.526	50.43
832.911	50.43
833.295	50.44
833.68	50.45
834.065	50.45
834.449	50.44
834.834	50.43
835.218	50.42
835.603	50.44
835.987	50.43
836.371	50.39
836.755	50.37
837.139	50.35
837.524	50.33
837.908	50.34
838.291	50.35
838.675	50.35
839.059	50.34
839.443	50.31
839.827	50.3
840.21	50.3
840.594	50.34
840.977	50.35
841.361	50.36
841.744	50.34
842.127	50.3
842.511	50.29
842.894	50.27
843.277	50.26
843.66	50.24
844.043	50.26
844.426	50.25
844.809	50.23
845.191	50.24
845.574	50.23
845.957	50.25
846.339	50.25
846.722	50.28
847.104	50.3
847.487	50.3
847.869	50.33
848.252	50.33
848.634	50.33
849.016	50.34
849.398	50.35
849.78	50.34
850.162	50.31
850.544	50.33
850.926	50.3
851.307	50.3
851.689	50.32
852.071	50.34
852.452	50.33
852.834	50.33
853.215	50.32
853.597	50.32
853.978	50.32
854.359	50.36
854.741	50.37
855.122	50.38
855.503	50.36
855.884	50.34
856.265	50.33
856.646	50.32
857.026	50.34
857.407	50.37
857.788	50.38
858.169	50.4
858.549	50.39
858.93	50.39
859.31	50.39
859.69	50.42
860.071	50.45
860.451	50.45
860.831	50.46
861.211	50.45
861.591	50.44
861.971	50.42
862.351	50.4
862.731	50.43
863.111	50.42
863.491	50.41
863.87	50.42
864.25	50.39
864.629	50.4
865.009	50.4
865.388	50.39
865.768	50.4
866.147	50.43
866.526	50.43
866.905	50.41
867.284	50.41
867.663	50.42
868.042	50.43
868.421	50.46
868.8	50.46
869.179	50.47
869.558	50.47
869.936	50.44
870.315	50.43
870.693	50.44
871.072	50.48
871.45	50.5
871.828	50.52
872.207	50.53
872.585	50.51
872.963	50.51
873.341	50.5
873.719	50.55
874.097	50.56
874.475	50.58
874.853	50.58
875.23	50.57
875.608	50.55
875.986	50.57
876.363	50.56
876.741	50.58
877.118	50.6
877.495	50.62
877.873	50.6
878.25	50.62
878.627	50.59
879.004	50.58
879.381	50.56
879.758	50.54
880.135	50.5
880.512	50.5
880.889	50.48
881.265	50.44
881.642	50.42
882.019	50.4
882.395	50.38
882.772	50.37
883.148	50.35
883.524	50.34
883.901	50.34
884.277	50.34
884.653	50.3
885.029	50.3
885.405	50.29
885.781	50.28
886.157	50.27
886.532	50.26
886.908	50.27
887.284	50.27
887.659	50.24
888.035	50.21
888.411	50.17
888.786	50.18
889.161	50.18
889.537	50.15
889.912	50.17
890.287	50.17
890.662	50.14
891.037	50.14
891.412	50.13
891.787	50.14
892.162	50.16
892.536	50.18
892.911	50.17
893.286	50.18
893.66	50.2
894.035	50.19
894.409	50.17
894.784	50.19
895.158	50.19
895.532	50.22
895.906	50.23
896.281	50.25
896.655	50.27
897.029	50.29
897.402	50.3
897.776	50.32
898.15	50.36
898.524	50.4
898.898	50.41
899.271	50.42
899.645	50.45
900.018	50.46
900.392	50.47
900.765	50.48
901.138	50.45
901.511	50.46
901.884	50.46
902.258	50.47
902.631	50.48
903.003	50.49
903.376	50.5
903.749	50.48
904.122	50.49
904.495	50.51
904.867	50.52
905.24	50.57
905.612	50.57
905.985	50.58
906.357	50.55
906.729	50.56
907.102	50.58
907.474	50.6
907.846	50.61
908.218	50.6
908.59	50.63
908.962	50.64
909.334	50.63
909.705	50.62
910.077	50.63
910.449	50.65
910.82	50.66
911.192	50.64
911.563	50.66
911.935	50.64
912.306	50.69
912.677	50.66
913.048	50.69
913.419	50.69
913.79	50.73
914.161	50.71
914.532	50.72
914.903	50.75
915.274	50.77
915.645	50.77
916.015	50.81
916.386	50.79
916.756	50.8
917.127	50.79
917.497	50.79
917.868	50.79
918.238	50.8
918.608	50.82
918.978	50.84
919.348	50.85
919.718	50.83
920.088	50.82
920.458	50.84
920.828	50.84
921.198	50.83
921.567	50.87
921.937	50.9
922.306	50.91
922.676	50.91
923.045	50.87
923.415	50.87
923.784	50.89
924.153	50.94
924.522	50.94
924.891	50.94
925.26	50.95
925.629	50.92
925.998	50.88
926.367	50.89
926.736	50.87
927.104	50.85
927.473	50.84
927.842	50.79
928.21	50.8
928.578	50.8
928.947	50.85
929.315	50.86
929.683	50.89
930.051	50.88
930.42	50.89
930.788	50.91
931.156	50.91
931.523	50.94
931.891	51.01
932.259	51.01
932.627	51
932.994	50.99
933.362	51
933.729	51.02
934.097	51.06
934.464	51.12
934.831	51.16
935.199	51.27
935.566	51.32
935.933	51.3
936.3	51.36
936.667	51.43
937.034	51.57
937.401	51.66
937.767	51.69
938.134	51.73
938.501	51.79
938.867	51.86
939.234	51.86
939.6	51.86
939.967	51.93
940.333	51.9
940.699	51.89
941.065	51.75
941.431	51.72
941.798	51.71
942.163	51.73
942.529	51.65
942.895	51.59
943.261	51.6
943.627	51.63
943.992	51.61
944.358	51.63
944.723	51.67
945.089	51.64
945.454	51.63
945.82	51.58
946.185	51.5
946.55	51.42
946.915	51.36
947.28	51.23
947.645	51.12
948.01	51.1
948.375	51.01
948.74	50.93
949.104	50.87
949.469	50.82
949.834	50.75
950.198	50.8
950.562	50.77
950.927	50.75
951.291	50.74
951.655	50.67
952.02	50.63
952.384	50.55
952.748	50.53
953.112	50.5
953.476	50.42
953.839	50.38
954.203	50.35
954.567	50.29
954.931	50.2
955.294	50.16
955.658	50.22
956.021	50.19
956.385	50.16
956.748	50.11
957.111	50.05
957.474	50.04
957.837	50.01
958.2	49.95
958.563	49.93
958.926	50
959.289	50.02
959.652	49.97
960.015	49.99
960.377	50.01
960.74	50.03
961.102	50.08
961.465	50.14
961.827	50.24
962.189	50.28
962.552	50.28
962.914	50.22
963.276	50.23
963.638	50.24
964	50.21
964.362	50.22
964.724	50.24
965.085	50.21
965.447	50.15
965.809	50.09
966.17	50.09
966.532	50.11
966.893	50.14
967.255	50.13
967.616	50.09
967.977	50.13
968.338	50.12
968.699	50.13
969.061	50.15
969.421	50.16
969.782	50.19
970.143	50.16
970.504	50.2
970.865	50.25
971.225	50.24
971.586	50.27
971.946	50.24
972.307	50.26
972.667	50.2
973.027	50.25
973.388	50.3
973.748	50.32
974.108	50.36
974.468	50.39
974.828	50.41
975.188	50.44
975.548	50.44
975.907	50.47
976.267	50.5
976.627	50.58
976.986	50.58
977.346	50.51
977.705	50.5
978.064	50.54
978.424	50.54
978.783	50.5
979.142	50.49
979.501	50.61
979.86	50.68
980.219	50.76
980.578	50.77
980.937	50.83
981.296	50.92
981.654	50.93
982.013	50.96
982.371	50.96
982.73	50.98
983.088	51.04
983.447	51
983.805	51.01
984.163	50.98
984.521	50.99
984.879	50.88
985.237	50.92
985.595	50.97
985.953	50.96
986.311	50.97
986.669	50.94
987.026	50.91
987.384	50.93
987.741	50.86
988.099	50.93
988.456	50.93
988.814	51
989.171	51.04
989.528	51.09
989.885	51.08
990.242	51.13
990.599	51.25
990.956	51.29
991.313	51.29
991.67	51.49
992.027	51.6
992.383	51.8
992.74	51.91
993.096	51.94
993.453	51.99
993.809	52.12
994.165	52.19
994.522	52.34
994.878	52.49
995.234	52.59
995.59	52.49
995.946	52.39
996.302	52.34
996.658	52.4
997.013	52.46
997.369	52.44
997.725	52.45
998.08	52.53
998.436	52.42
998.791	52.44
999.147	52.48
999.502	52.61
999.857	52.7
1000.212	52.8
1000.567	52.83
1000.922	52.83
1001.277	52.94
1001.632	53.06
1001.987	53.14
1002.342	53.2
1002.696	53.28
1003.051	53.48
1003.406	53.67
1003.76	53.65
1004.114	53.61
1004.469	53.73
1004.823	54.13
1005.177	54.24
1005.531	54.23
1005.885	54.22
1006.239	54.32
1006.593	54.6
1006.947	54.52
1007.301	54.26
1007.655	54.4
1008.008	54.54
1008.362	54.73
1008.715	54.65
1009.069	54.66
1009.422	54.81
1009.776	54.96
1010.129	55.05
1010.482	55.1
1010.835	55.23
1011.188	55.49
1011.541	55.56
1011.894	55.73
1012.247	55.72
1012.6	55.67
1012.952	55.77
1013.305	55.96
1013.657	56.14
1014.01	56.47
1014.362	56.41
1014.715	56.65
1015.067	56.85
1015.419	57.12
1015.771	56.99
1016.123	56.98
1016.475	57.1
1016.827	57.21
1017.179	57.24
1017.531	57.29
1017.883	57.23
1018.234	57.46
1018.586	57.62
1018.938	57.89
1019.289	57.73
1019.64	57.95
1019.992	57.95
1020.343	58.13
1020.694	58.32
1021.045	58.36
1021.396	58.41
1021.747	58.63
1022.098	58.69
1022.449	58.63
1022.8	58.68
1023.151	58.87
1023.501	59.36
1023.852	59.6
1024.202	59.78
1024.553	59.89
1024.903	60.11
1025.253	60.45
1025.604	60.59
1025.954	60.53
1026.304	60.87
1026.654	61.13
1027.004	61.48
1027.354	61.23
1027.703	61.45
1028.053	61.55
1028.403	61.97
1028.753	61.75
1029.102	61.83
1029.452	61.84
1029.801	62.19
1030.15	62.09
1030.499	61.79
897.758	1798.48
901.051	1803.09
904.343	1792.84
907.636	1828.16
910.928	1781.18
914.22	1778.62
917.511	1752.53
920.803	1677.45
924.094	1669.95
927.384	1634.65
930.675	1560.18
933.965	1550.81
937.255	1461.93
940.544	1405.72
943.834	1335.22
947.123	1321.9
950.411	1245.22
953.7	1218.79
956.988	1150.69
960.276	1105.2
963.563	1089.05
966.851	1051.99
970.138	1041.87
973.424	1009.29
976.711	1015.76
979.997	964.99
983.283	960.47
986.568	940
989.853	907.52
993.138	894.31
996.423	859.17
999.708	834.61
1002.992	825.76
1006.275	785.62
1009.559	777.65
1012.842	747.83
1016.125	727.62
1019.408	714.87
1022.69	703.67
1025.972	693.13
1029.254	674.19
1032.536	662.14
1035.817	647.65
1039.098	639.69
1042.379	626.52
1045.659	619.76
1048.939	605.68
1052.219	592.68
1055.498	582.29
1058.778	571.24
1062.057	554.61
1065.335	548.91
1068.614	542.15
1071.892	537.45
1075.17	519.04
1078.447	510.19
1081.724	506.64
1085.001	501.73
1088.278	491.66
1091.554	482.32
1094.83	481.78
1098.106	480.95
1101.382	476
1104.657	472.91
1107.932	464.22
1111.206	467.71
1114.481	455.5
1117.755	450.84
1121.029	447.81
1124.302	447.94
1127.575	438.2
1130.848	432.52
1134.121	427.12
1137.393	425.87
1140.665	416.31
1143.937	414.21
1147.208	409.6
1150.48	409.95
1153.75	403.9
1157.021	397.98
1160.291	398.31
1163.561	394.38
1166.831	394.01
1170.101	391.24
1173.37	389.17
1176.639	390.51
1179.907	385.86
1183.176	382.73
1186.444	381.53
1189.711	381.92
1192.979	380.03
1196.246	376.92
1199.513	378.59
1202.78	375.78
1206.046	376.28
1209.312	372.73
1212.578	373.34
1215.843	377
1219.108	373.99
1222.373	382.69
1225.638	384.47
1228.902	391.6
1232.166	391.65
1235.43	394.94
1238.693	400.97
1241.956	402.32
1245.219	409.53
1248.482	409.08
1251.744	408.84
1255.006	409.92
1258.268	399.41
1261.529	395.99
1264.79	391.38
1268.051	389.05
1271.312	384.64
1274.572	380.06
1277.832	376.42
1281.092	369.34
1284.351	366.15
1287.61	366.32
1290.869	361.34
1294.128	358.51
1297.386	358.7
1300.644	355.29
1303.902	356.49
1307.159	353.99
1310.416	354.19
1313.673	354.25
1316.93	357.88
1320.186	358.75
1323.442	359.13
1326.697	365.8
1329.953	366.64
1333.208	368.3
1336.463	372.46
1339.717	373.19
1342.972	378.25
1346.226	380.25
1349.479	380.13
1352.733	382.89
1355.986	383.43
1359.238	383.23
1362.491	385.68
1365.743	390.03
1368.995	389.15
1372.247	386.79
1375.498	387.54
1378.749	391.38
1382	386.2
1385.251	388.67
1388.501	384.82
1391.751	387.94
1395	385.8
1398.25	382.43
1401.499	380.16
1404.748	379.98
1407.996	377.08
1411.244	374.99
1414.492	372.49
1417.74	370.18
1420.987	364.25
1424.234	365.67
1427.481	359.2
1430.728	359.94
1433.974	355.49
1437.22	352.79
1440.465	352.05
1443.711	350.33
1446.956	348.1
1450.201	342.71
1453.445	339.69
1456.689	338.3
1459.933	332.39
1463.177	330.66
1466.42	324.65
1469.663	321.26
1472.906	319.26
1476.148	310.76
1479.391	306.04
1482.633	302.86
1485.874	298.32
1489.115	296.25
1492.356	291.81
1495.597	291.66
1498.838	286.27
1502.078	284.54
1505.318	283.09
1508.557	282.95
1511.797	282.26
1515.036	281.63
1518.274	280.23
1521.513	277.35
1524.751	277.27
1527.989	276.78
1531.227	274.7
1534.464	276.14
1537.701	273.64
1540.938	272.89
1544.174	269.3
1547.41	268.88
1550.646	267.49
1553.882	267.81
1557.117	264.54
1560.352	262.78
1563.587	262.55
1566.821	260.38
1570.055	257.04
1573.289	255.32
1576.523	254.98
1579.756	252.84
1582.989	251.41
1586.222	251.22
1589.454	248.87
1592.686	250.96
1595.918	249.72
1599.15	248.52
1602.381	248.96
1605.612	249.12
1608.843	250.61
1612.073	249.96
1615.303	251.5
1618.533	252.08
1621.762	250.77
1624.992	251.68
1628.221	251.56
1631.449	251.32
1634.678	250.79
1637.906	251.68
1641.134	251.9
1644.361	251.1
1647.588	252.39
1650.815	251.24
1654.042	249.48
1657.269	251.3
1660.495	251.53
1663.72	249.25
1666.946	250.61
1670.171	250.92
1673.396	250.83
1676.621	250.57
1679.845	250.64
1683.069	250.03
1686.293	251.86
1689.517	253.51
1692.74	252.97
1695.963	254.09
1699.185	258.14
1702.408	257.78
1705.63	258.93
1708.852	259.86
1712.073	260.16
1715.294	260.83
1718.515	262.55
1721.736	262.04
1724.956	262.57
1728.176	262.64
1731.396	265.21
1734.616	263.59
1737.835	264.73
1741.054	263.23
1744.272	263.76
1747.491	267.2
1750.709	267.1
1753.927	267.04
1757.144	265.49
1760.361	267.72
1763.578	268.13
1766.795	266.86
1770.011	268.62
1773.227	268.91
1776.443	271.97
1779.658	273.83
1782.874	271.95
1786.089	274.02
1789.303	274.86
1792.518	278.95
1795.732	278.22
1798.945	282
1802.159	281.85
1805.372	283.6
1808.585	288.47
1811.797	289.47
1815.01	289.23
1818.222	292.22
1821.434	294.36
1824.645	295.72
1827.856	301.34
1831.067	303.89
1834.278	301.21
1837.488	304.11
1840.698	306.18
1843.908	302.9
1847.117	305.01
1850.326	307.01
1853.535	306.03
1856.744	311.11
1859.952	310.81
1863.16	308.52
1866.368	306.55
1869.575	312.47
1872.782	306.81
1875.989	306.25
1879.196	305.45
1882.402	303.25
1885.608	305.52
1888.814	306.99
1892.019	305.65
1895.224	305.03
1898.429	304.23
1901.634	306.83
1904.838	305.76
1908.042	311.9
1911.246	312.85
1914.449	315.45
1917.652	315.96
1920.855	314.96
1924.058	314.47
1927.26	313.37
1930.462	315.47
1933.664	318.76
1936.865	315.83
1940.066	316.38
1943.267	313.53
1946.467	313.51
1949.668	315.33
1952.868	319.62
1956.067	318.84
1959.267	320.06
1962.466	320.82
1965.665	319.15
1968.863	320.07
1972.061	324
1975.259	326.49
1978.457	328.68
1981.654	331.21
1984.852	332.13
1988.048	330.55
1991.245	333.56
1994.441	337
1997.637	339.09
2000.833	345.57
2004.028	349.65
2007.223	351.33
2010.418	355.11
2013.613	361.19
2016.807	364.67
2020.001	367.45
2023.194	372.93
2026.388	381.78
2029.581	389.79
2032.774	393.9
2035.966	400.48
2039.158	401.62
2042.35	410.57
2045.542	412.39
2048.733	418.04
2051.924	424.55
2055.115	431.06
2058.306	431.88
2061.496	437.25
2064.686	436.37
2067.875	444.31
2071.065	445.5
2074.254	443.46
2077.442	447.96
2080.631	450.5
2083.819	455.24
2087.007	454.9
2090.195	461.15
2093.382	464.44
2096.569	460.14
2099.756	468.34
2102.942	468.53
2106.128	474.58
2109.314	485.32
2112.5	483.41
2115.685	494.4
2118.87	495.42
2122.055	505.3
2125.239	509.26
2128.424	516.34
2131.608	521
2134.791	527.44
2137.974	529.96
2141.157	530.96
2144.34	531.88
2147.523	540.27
2150.705	535.49
2153.887	539.9
2157.068	540.94
2160.25	535.35
2163.431	537.05
2166.611	543.26
2169.792	553.85
2172.972	560.37
2176.152	562.67
2179.331	571.09
2182.511	580.96
2185.69	588.77
2188.868	601.39
2192.047	602.49
2195.225	619.7
2198.403	637.01
2201.58	645.86
2204.758	659.68
2207.935	674.31
2211.111	686.58
2214.288	694.26
2217.464	696.21
2220.64	705.4
2223.815	715.9
2226.991	745.05
2230.166	748.23
2233.34	762.12
2236.515	775.6
2239.689	775.69
2242.863	778.38
2246.036	805.13
2249.209	796.73
2252.382	809.44
2255.555	835.95
2258.727	837.29
2261.9	840.72
2265.071	848.84
2268.243	862.18
2271.414	872.29
2274.585	893.5
2277.756	902.8
2280.926	906.22
2284.096	928.01
2287.266	950.22
2290.436	956.62
2293.605	980.76
2296.774	1013.61
2299.942	1046.6
2303.111	1050.98
2306.279	1078.84
2309.447	1090.28
2312.614	1118
2315.781	1149.53
2318.948	1204.08
2322.115	1183.8
2325.281	1247.46
2328.447	1221.09
2331.613	1270.46
2334.779	1253.08
2337.944	1310.75
2341.109	1321.69
2344.274	1355.16
2347.438	1409.06
2350.602	1409.26
2353.766	1449.78
2356.929	1472.89
2360.092	1462.55
2363.255	1571.11
2366.418	1565.59
2369.58	1599.5
2372.742	1696.02
2375.904	1741.02
2379.066	1731.49
2382.227	1694.12
2385.388	1840.42
2388.548	1849.53
2391.709	1871.55
2394.869	2086.21
2398.029	1990.36
2401.188	2049.2
2404.347	2036.93
2407.506	2002.33
2410.665	2056.56
2413.823	2186.3
2416.981	2314.33
2420.139	2229.39
2423.296	2203.77
2426.453	2300.59
2429.61	2209.06
2432.767	2317.38
2435.923	2294.13
2439.079	2497.01
2442.235	2529.26
2445.391	2508.18
2448.546	2487.37
2451.701	2417.68
2454.855	2421.67
2458.009	2570.83
2461.163	2668.03
2464.317	2779.41
2467.471	2845.84
2470.624	2844.31
2473.777	2777.84
2476.929	2715.2
2480.082	2635.7
2483.234	2603.49
2486.385	2735.02
2489.537	2745.74
2492.688	2849.32
2495.839	2770.88
2498.989	2708.99
2502.14	2727.72
2505.29	2761.27
2508.439	2799.34
2511.589	2787.61
2514.738	3039.88
2517.887	2975.39
2521.035	3154.44
2524.183	3173.35
2527.331	3196.48
2530.479	3195.84
2533.627	3212.2
