Data from N_2_DEC_NC_4N_Splice17_13-26-53-841.txt Node
Date: Sat Mar 07 13:26:53 EST 2020
User: sa697716
Spectrometer: NQ5500242
Trigger mode: 0
Integration Time (sec): 1.450000E-1
Scans to average: 20
Nonlinearity correction enabled: false
Boxcar width: 5
Storing dark spectrum: false
XAxis mode: Wavelengths
Number of Pixels in Spectrum: 512
>>>>>Begin Spectral Data<<<<<
187.83	117.57
188.298	131.18
188.766	126.91
189.233	110.47
189.701	114.12
190.169	137.25
190.636	164.43
191.104	192.2
191.571	128.74
192.039	-70.41
192.506	-57.75
192.974	-36.89
193.441	-16.65
193.908	1.81
194.375	67.15
194.842	29.03
195.31	80.62
195.777	112.08
196.244	41.2
196.711	41.19
197.177	43.48
197.644	43.06
198.111	42.71
198.578	42.22
199.045	42.8
199.511	42.49
199.978	42.32
200.445	42.41
200.911	42.63
201.378	42.58
201.844	42.51
202.31	41.97
202.777	42.12
203.243	42.05
203.709	41.92
204.176	41.51
204.642	41.25
205.108	41.48
205.574	41.04
206.04	40.55
206.506	40.15
206.972	40.11
207.438	39.94
207.903	39.43
208.369	38.9
208.835	38.32
209.301	37.54
209.766	36.55
210.232	35.77
210.697	35.14
211.163	34.65
211.628	34.06
212.094	33.28
212.559	32.56
213.024	31.89
213.49	31.36
213.955	30.87
214.42	30.28
214.885	29.75
215.35	28.8
215.815	27.65
216.28	26.17
216.745	24.52
217.21	23.01
217.675	21.73
218.14	20.57
218.604	19.58
219.069	18.67
219.534	18.01
219.998	17.39
220.463	16.9
220.927	16.44
221.392	16.08
221.856	15.81
222.32	15.55
222.785	15.34
223.249	15.14
223.713	14.89
224.177	14.75
224.642	14.57
225.106	14.37
225.57	14.18
226.034	14.04
226.497	13.89
226.961	13.74
227.425	13.61
227.889	13.45
228.353	13.29
228.816	13.17
229.28	13.04
229.744	12.93
230.207	12.8
230.671	12.68
231.134	12.54
231.597	12.44
232.061	12.32
232.524	12.2
232.987	12.08
233.45	12.01
233.914	11.91
234.377	11.8
234.84	11.68
235.303	11.61
235.766	11.54
236.229	11.45
236.691	11.36
237.154	11.28
237.617	11.21
238.08	11.12
238.542	11.01
239.005	10.94
239.468	10.85
239.93	10.77
240.393	10.68
240.855	10.59
241.317	10.5
241.78	10.42
242.242	10.34
242.704	10.27
243.166	10.19
243.629	10.15
244.091	10.07
244.553	10
245.015	9.94
245.477	9.87
245.939	9.81
246.4	9.76
246.862	9.7
247.324	9.65
247.786	9.59
248.247	9.53
248.709	9.45
249.17	9.39
249.632	9.36
250.093	9.32
250.555	9.28
251.016	9.24
251.477	9.2
251.939	9.17
252.4	9.13
252.861	9.08
253.322	9.06
253.783	9.03
254.244	9.01
254.705	8.96
255.166	8.91
255.627	8.86
256.088	8.81
256.549	8.76
257.009	8.71
257.47	8.65
257.931	8.6
258.391	8.54
258.852	8.48
259.312	8.43
259.773	8.38
260.233	8.35
260.694	8.31
261.154	8.26
261.614	8.22
262.074	8.17
262.534	8.12
262.994	8.09
263.455	8.05
263.915	8.02
264.374	7.99
264.834	7.97
265.294	7.93
265.754	7.91
266.214	7.88
266.673	7.86
267.133	7.84
267.593	7.83
268.052	7.81
268.512	7.79
268.971	7.78
269.431	7.75
269.89	7.73
270.349	7.71
270.809	7.68
271.268	7.66
271.727	7.64
272.186	7.61
272.645	7.59
273.104	7.57
273.563	7.54
274.022	7.52
274.481	7.5
274.94	7.47
275.399	7.44
275.857	7.42
276.316	7.4
276.775	7.37
277.233	7.35
277.692	7.33
278.15	7.31
278.609	7.28
279.067	7.26
279.525	7.23
279.984	7.21
280.442	7.18
280.9	7.16
281.358	7.14
281.816	7.12
282.274	7.1
282.732	7.06
283.19	7.04
283.648	7.01
284.106	6.97
284.564	6.94
285.021	6.92
285.479	6.9
285.937	6.86
286.394	6.82
286.852	6.79
287.309	6.77
287.767	6.74
288.224	6.7
288.682	6.66
289.139	6.64
289.596	6.61
290.053	6.58
290.511	6.56
290.968	6.54
291.425	6.52
291.882	6.5
292.339	6.49
292.796	6.48
293.252	6.46
293.709	6.45
294.166	6.44
294.623	6.42
295.079	6.41
295.536	6.39
295.992	6.38
296.449	6.37
296.905	6.36
297.362	6.34
297.818	6.32
298.274	6.31
298.731	6.3
299.187	6.29
299.643	6.27
300.099	6.26
300.555	6.26
301.011	6.25
301.467	6.23
301.923	6.21
302.379	6.21
302.835	6.21
303.291	6.2
303.746	6.18
304.202	6.18
304.658	6.18
305.113	6.17
305.569	6.16
306.024	6.15
306.479	6.14
306.935	6.13
307.39	6.12
307.845	6.11
308.301	6.11
308.756	6.11
309.211	6.1
309.666	6.09
310.121	6.09
310.576	6.09
311.031	6.09
311.486	6.1
311.94	6.11
312.395	6.1
312.85	6.1
313.305	6.1
313.759	6.1
314.214	6.08
314.668	6.06
315.123	6.06
315.577	6.05
316.032	6.05
316.486	6.03
316.94	6.02
317.394	6.01
317.849	5.99
318.303	5.97
318.757	5.96
319.211	5.96
319.665	5.96
320.119	5.96
320.572	5.95
321.026	5.94
321.48	5.93
321.934	5.91
322.387	5.9
322.841	5.89
323.295	5.89
323.748	5.88
324.202	5.87
324.655	5.86
325.108	5.85
325.562	5.84
326.015	5.83
326.468	5.83
326.921	5.84
327.374	5.83
327.827	5.84
328.28	5.83
328.733	5.83
329.186	5.83
329.639	5.83
330.092	5.83
330.545	5.83
330.997	5.83
331.45	5.83
331.903	5.82
332.355	5.82
332.808	5.81
333.26	5.8
333.713	5.8
334.165	5.78
334.617	5.77
335.069	5.75
335.522	5.74
335.974	5.73
336.426	5.71
336.878	5.7
337.33	5.69
337.782	5.68
338.234	5.69
338.686	5.68
339.137	5.68
339.589	5.67
340.041	5.67
340.493	5.66
340.944	5.64
341.396	5.64
341.847	5.63
342.299	5.62
342.75	5.61
343.201	5.58
343.653	5.58
344.104	5.56
344.555	5.57
345.006	5.55
345.457	5.55
345.908	5.54
346.359	5.53
346.81	5.53
347.261	5.53
347.712	5.52
348.163	5.51
348.613	5.5
349.064	5.5
349.515	5.48
349.965	5.47
350.416	5.46
350.866	5.45
351.317	5.45
351.767	5.44
352.217	5.43
352.668	5.43
353.118	5.44
353.568	5.43
354.018	5.43
354.468	5.44
354.918	5.44
355.368	5.44
355.818	5.45
356.268	5.45
356.718	5.45
357.168	5.46
357.617	5.45
358.067	5.45
358.517	5.47
358.966	5.48
359.416	5.47
359.865	5.47
360.315	5.49
360.764	5.49
361.213	5.5
361.663	5.5
362.112	5.51
362.561	5.52
363.01	5.53
363.459	5.52
363.908	5.5
364.357	5.52
364.806	5.53
365.255	5.53
365.703	5.53
366.152	5.54
366.601	5.55
367.05	5.56
367.498	5.55
367.947	5.56
368.395	5.58
368.844	5.59
369.292	5.58
369.74	5.59
370.189	5.59
370.637	5.59
371.085	5.6
371.533	5.6
371.981	5.6
372.429	5.62
372.877	5.62
373.325	5.62
373.773	5.63
374.221	5.64
374.669	5.65
375.116	5.66
375.564	5.67
376.012	5.68
376.459	5.7
376.907	5.71
377.354	5.73
377.801	5.74
378.249	5.77
378.696	5.79
379.143	5.81
379.591	5.83
380.038	5.85
380.485	5.88
380.932	5.9
381.379	5.92
381.826	5.94
382.273	5.96
382.72	5.98
383.166	6.01
383.613	6.04
384.06	6.06
384.506	6.1
384.953	6.13
385.4	6.15
385.846	6.2
386.292	6.23
386.739	6.26
387.185	6.3
387.631	6.34
388.078	6.38
388.524	6.4
388.97	6.44
389.416	6.48
389.862	6.52
390.308	6.57
390.754	6.62
391.2	6.65
391.645	6.69
392.091	6.74
392.537	6.79
392.983	6.83
393.428	6.88
393.874	6.92
394.319	6.96
394.765	7
395.21	7.04
395.655	7.07
396.101	7.13
396.546	7.17
396.991	7.21
397.436	7.25
397.881	7.31
398.326	7.35
398.771	7.4
399.216	7.44
399.661	7.49
400.106	7.52
400.551	7.56
400.995	7.58
401.44	7.61
401.885	7.65
402.329	7.68
402.774	7.72
403.218	7.77
403.663	7.8
404.107	7.84
404.551	7.87
404.995	7.9
405.44	7.92
405.884	7.96
406.328	7.99
406.772	8.01
407.216	8.03
407.66	8.03
408.104	8.03
408.547	8.03
408.991	8.05
409.435	8.06
409.879	8.08
410.322	8.11
410.766	8.13
411.209	8.15
411.653	8.16
412.096	8.18
412.54	8.2
412.983	8.23
413.426	8.27
413.869	8.3
414.312	8.32
414.756	8.34
415.199	8.33
415.642	8.34
416.085	8.34
416.527	8.35
416.97	8.33
417.413	8.33
417.856	8.32
418.298	8.32
418.741	8.32
419.184	8.32
419.626	8.32
420.069	8.33
420.511	8.33
420.953	8.34
421.396	8.35
421.838	8.37
422.28	8.37
422.722	8.4
423.164	8.4
423.606	8.39
424.048	8.39
424.49	8.38
424.932	8.38
425.374	8.37
425.816	8.35
426.258	8.33
426.699	8.32
427.141	8.32
427.582	8.31
428.024	8.3
428.465	8.3
428.907	8.29
429.348	8.27
429.789	8.26
430.231	8.28
430.672	8.29
431.113	8.3
431.554	8.31
431.995	8.31
432.436	8.31
432.877	8.32
433.318	8.34
433.759	8.36
434.2	8.39
434.64	8.41
435.081	8.4
435.522	8.4
435.962	8.41
436.403	8.42
436.843	8.44
437.284	8.44
437.724	8.44
438.164	8.43
438.604	8.44
439.045	8.45
439.485	8.47
439.925	8.48
440.365	8.51
440.805	8.53
441.245	8.56
441.685	8.61
442.125	8.65
442.564	8.68
443.004	8.72
443.444	8.76
443.883	8.8
444.323	8.81
444.762	8.86
445.202	8.88
445.641	8.93
446.081	8.96
446.52	8.99
446.959	9.03
447.398	9.08
447.837	9.12
448.276	9.14
448.716	9.19
449.154	9.23
449.593	9.27
450.032	9.32
450.471	9.33
450.91	9.36
451.349	9.39
451.787	9.4
452.226	9.41
452.664	9.42
453.103	9.44
453.541	9.45
453.98	9.48
454.418	9.48
454.856	9.48
455.295	9.49
455.733	9.49
456.171	9.49
456.609	9.5
457.047	9.49
457.485	9.49
457.923	9.5
458.361	9.49
458.798	9.48
459.236	9.48
459.674	9.48
460.111	9.47
460.549	9.48
460.987	9.48
461.424	9.47
461.862	9.49
462.299	9.49
462.736	9.49
463.173	9.49
463.611	9.49
464.048	9.49
464.485	9.5
464.922	9.49
465.359	9.5
465.796	9.51
466.233	9.52
466.67	9.52
467.106	9.53
467.543	9.52
467.98	9.53
468.416	9.53
468.853	9.53
469.29	9.53
469.726	9.54
470.162	9.54
470.599	9.54
471.035	9.54
471.471	9.54
471.907	9.54
472.344	9.55
472.78	9.56
473.216	9.56
473.652	9.58
474.088	9.57
474.523	9.59
474.959	9.59
475.395	9.59
475.831	9.6
476.266	9.61
476.702	9.62
477.138	9.64
477.573	9.64
478.008	9.66
478.444	9.66
478.879	9.68
479.314	9.67
479.75	9.68
480.185	9.68
480.62	9.68
481.055	9.69
481.49	9.7
481.925	9.7
482.36	9.73
482.795	9.73
483.229	9.74
483.664	9.76
484.099	9.77
484.534	9.78
484.968	9.81
485.403	9.84
485.837	9.86
486.271	9.89
486.706	9.92
487.14	9.95
487.574	9.98
488.009	10.02
488.443	10.05
488.877	10.11
489.311	10.16
489.745	10.21
490.179	10.27
490.613	10.33
491.046	10.39
491.48	10.44
491.914	10.5
492.348	10.58
492.781	10.66
493.215	10.74
493.648	10.81
494.082	10.88
494.515	10.96
494.948	11.05
495.382	11.12
495.815	11.21
496.248	11.32
496.681	11.42
497.114	11.51
497.547	11.61
497.98	11.73
498.413	11.84
498.846	11.96
499.279	12.07
499.711	12.19
500.144	12.33
500.577	12.47
501.009	12.6
501.442	12.74
501.874	12.89
502.306	13.04
502.739	13.2
503.171	13.36
503.603	13.53
504.036	13.71
504.468	13.89
504.9	14.04
505.332	14.22
505.764	14.4
506.196	14.58
506.627	14.77
507.059	14.95
507.491	15.14
507.923	15.33
508.354	15.54
508.786	15.75
509.217	15.97
509.649	16.19
510.08	16.39
510.512	16.62
510.943	16.85
511.374	17.07
511.805	17.31
512.237	17.54
512.668	17.75
513.099	17.96
513.53	18.18
513.961	18.39
514.391	18.62
514.822	18.85
515.253	19.07
515.684	19.3
516.114	19.53
516.545	19.74
516.975	19.96
517.406	20.19
517.836	20.4
518.267	20.63
518.697	20.84
519.127	21.04
519.558	21.25
519.988	21.46
520.418	21.64
520.848	21.81
521.278	22
521.708	22.36
522.138	22.55
522.567	22.72
522.997	22.87
523.427	23.03
523.857	23.19
524.286	23.34
524.716	23.48
525.145	23.62
525.575	23.77
526.004	23.91
526.433	23.86
526.863	23.97
527.292	24.09
527.721	24.19
528.15	24.29
528.579	24.39
529.008	24.49
529.437	24.59
529.866	24.67
530.295	24.77
530.724	24.85
531.152	24.94
531.581	25.03
532.01	25.1
532.438	25.19
532.867	25.27
533.295	25.34
533.723	25.39
534.152	25.44
534.58	25.51
535.008	25.54
535.436	25.6
535.865	25.63
536.293	25.66
536.721	25.7
537.149	25.74
537.576	25.77
538.004	25.81
538.432	25.85
538.86	25.88
539.287	25.89
539.715	25.93
540.143	25.95
540.57	25.98
540.998	26.01
541.425	26.05
541.852	26.06
542.28	26.07
542.707	26.08
543.134	26.09
543.561	26.12
543.988	26.15
544.415	26.15
544.842	26.14
545.269	26.16
545.696	26.18
546.123	26.19
546.549	26.21
546.976	26.24
547.403	26.26
547.829	26.26
548.256	26.25
548.682	26.26
549.108	26.29
549.535	26.32
549.961	26.31
550.387	26.31
550.813	26.31
551.24	26.31
551.666	26.3
552.092	26.29
552.518	26.29
552.943	26.3
553.369	26.29
553.795	26.28
554.221	26.26
554.646	26.25
555.072	26.24
555.498	26.21
555.923	26.2
556.349	26.17
556.774	26.15
557.199	26.12
557.625	26.09
558.05	26.05
558.475	26.01
558.9	25.96
559.325	25.93
559.75	25.89
560.175	25.85
560.6	25.78
561.025	25.75
561.449	25.69
561.874	25.63
562.299	25.58
562.723	25.52
563.148	25.45
563.572	25.37
563.997	25.29
564.421	25.21
564.846	25.14
565.27	25.09
565.694	25.01
566.118	24.93
566.542	24.84
566.966	24.75
567.39	24.65
567.814	24.59
568.238	24.52
568.662	24.44
569.086	24.35
569.509	24.25
569.933	24.17
570.357	24.07
570.78	23.98
571.204	23.9
571.627	23.84
572.05	23.76
572.474	23.68
572.897	23.59
573.32	23.5
573.743	23.41
574.166	23.35
574.589	23.27
575.012	23.19
575.435	23.12
575.858	23.05
576.281	22.96
576.704	22.9
577.126	22.83
577.549	22.75
577.972	22.68
578.394	22.63
578.817	22.56
579.239	22.49
579.661	22.44
580.084	22.38
580.506	22.32
580.928	22.26
581.35	22.2
581.772	22.13
582.194	22.08
582.616	22.03
583.038	21.98
583.46	21.91
583.882	21.86
584.303	21.8
584.725	21.75
585.147	21.71
585.568	21.68
585.99	21.64
586.411	21.6
586.833	21.57
587.254	21.54
587.675	21.49
588.096	21.45
588.518	21.41
588.939	21.38
589.36	21.35
589.781	21.31
590.202	21.27
590.623	21.26
591.043	21.22
591.464	21.2
591.885	21.17
592.305	21.15
592.726	21.13
593.147	21.12
593.567	21.09
593.987	21.08
594.408	21.05
594.828	21.03
595.248	21.01
595.669	21
596.089	20.97
596.509	20.94
596.929	20.93
597.349	20.92
597.769	20.91
598.189	20.89
598.608	20.86
599.028	20.85
599.448	20.83
599.867	20.8
600.287	20.77
600.706	20.75
601.126	20.73
601.545	20.71
601.965	20.68
602.384	20.64
602.803	20.59
603.222	20.55
603.641	20.51
604.061	20.46
604.48	20.41
604.898	20.36
605.317	20.32
605.736	20.27
606.155	20.21
606.574	20.14
606.992	20.07
607.411	20.03
607.829	19.93
608.248	19.85
608.666	19.79
609.085	19.74
609.503	19.67
609.921	19.61
610.339	19.53
610.758	19.46
611.176	19.39
611.594	19.33
612.012	19.25
612.43	19.21
612.847	19.16
613.265	19.1
613.683	19.02
614.101	18.97
614.518	18.89
614.936	18.84
615.353	18.77
615.771	18.71
616.188	18.66
616.606	18.6
617.023	18.56
617.44	18.53
617.857	18.48
618.274	18.43
618.691	18.38
619.108	18.35
619.525	18.32
619.942	18.3
620.359	18.28
620.776	18.25
621.192	18.22
621.609	18.19
622.026	18.15
622.442	18.12
622.859	18.11
623.275	18.09
623.691	18.06
624.108	18.05
624.524	18.03
624.94	17.99
625.356	17.99
625.772	17.99
626.188	17.98
626.604	17.98
627.02	17.97
627.436	17.96
627.852	17.95
628.268	17.93
628.683	17.92
629.099	17.92
629.514	17.92
629.93	17.91
630.345	17.89
630.761	17.86
631.176	17.83
631.591	17.81
632.007	17.79
632.422	17.75
632.837	17.72
633.252	17.67
633.667	17.62
634.082	17.55
634.497	17.49
634.911	17.44
635.326	17.38
635.741	17.32
636.155	17.24
636.57	17.16
636.984	17.08
637.399	16.99
637.813	16.91
638.228	16.83
638.642	16.73
639.056	16.63
639.47	16.55
639.884	16.45
640.298	16.33
640.712	16.22
641.126	16.11
641.54	16
641.954	15.89
642.368	15.77
642.781	15.67
643.195	15.56
643.609	15.45
644.022	15.33
644.436	15.22
644.849	15.11
645.262	15.02
645.676	14.93
646.089	14.84
646.502	14.76
646.915	14.69
647.328	14.6
647.741	14.54
648.154	14.47
648.567	14.42
648.98	14.35
649.393	14.3
649.805	14.25
650.218	14.2
650.631	14.15
651.043	14.1
651.456	14.05
651.868	14
652.28	13.94
652.693	13.87
653.105	13.81
653.517	13.75
653.929	13.69
654.341	13.61
654.753	13.54
655.165	13.46
655.577	13.38
655.989	13.29
656.401	13.19
656.813	13.09
657.224	12.99
657.636	12.88
658.047	12.77
658.459	12.64
658.87	12.51
659.282	12.38
659.693	12.26
660.104	12.12
660.515	12
660.926	11.87
661.338	11.75
661.749	11.62
662.159	11.52
662.57	11.41
662.981	11.3
663.392	11.2
663.803	11.1
664.213	10.99
664.624	10.9
665.035	10.81
665.445	10.74
665.855	10.65
666.266	10.58
666.676	10.51
667.086	10.43
667.497	10.36
667.907	10.31
668.317	10.24
668.727	10.2
669.137	10.15
669.547	10.11
669.956	10.06
670.366	10.03
670.776	9.99
671.186	9.96
671.595	9.93
672.005	9.91
672.414	9.89
672.824	9.88
673.233	9.86
673.642	9.87
674.052	9.86
674.461	9.87
674.87	9.87
675.279	9.89
675.688	9.91
676.097	9.94
676.506	9.95
676.915	9.99
677.323	10.03
677.732	10.07
678.141	10.11
678.549	10.16
678.958	10.22
679.366	10.3
679.775	10.37
680.183	10.46
680.592	10.57
681	10.71
681.408	10.84
681.816	10.99
682.224	11.16
682.632	11.34
683.04	11.54
683.448	11.76
683.856	11.97
684.264	12.23
684.671	12.5
685.079	12.79
685.487	13.1
685.894	13.43
686.302	13.77
686.709	14.11
687.116	14.48
687.524	14.88
687.931	15.28
688.338	15.71
688.745	16.13
689.152	16.57
689.559	17.02
689.966	17.46
690.373	17.91
690.78	18.38
691.187	18.84
691.593	19.29
692	19.72
692.407	20.15
692.813	20.59
693.22	21.01
693.626	21.43
694.032	21.84
694.439	22.25
694.845	22.66
695.251	23.04
695.657	23.41
696.063	23.79
696.469	24.18
696.875	24.55
697.281	24.91
697.687	25.28
698.093	25.62
698.498	25.95
698.904	26.28
699.31	26.58
699.715	26.88
700.12	27.19
700.526	27.48
700.931	27.76
701.337	28.03
701.742	28.28
702.147	28.52
702.552	28.77
702.957	29
703.362	29.22
703.767	29.43
704.172	29.65
704.577	29.85
704.981	30.04
705.386	30.25
705.791	30.43
706.195	30.62
706.6	30.81
707.004	31
707.408	31.19
707.813	31.37
708.217	31.56
708.621	31.72
709.025	31.88
709.43	32.03
709.834	32.15
710.237	32.3
710.641	32.44
711.045	32.57
711.449	32.71
711.853	32.86
712.256	32.98
712.66	33.1
713.064	33.23
713.467	33.37
713.87	33.49
714.274	33.62
714.677	33.75
715.08	33.87
715.484	33.98
715.887	34.08
716.29	34.16
716.693	34.26
717.096	34.35
717.499	34.45
717.901	34.55
718.304	34.66
718.707	34.76
719.109	34.83
719.512	34.94
719.915	35.01
720.317	35.08
720.719	35.17
721.122	35.25
721.524	35.33
721.926	35.41
722.328	35.47
722.731	35.52
723.133	35.59
723.535	35.67
723.937	35.72
724.338	35.78
724.74	35.85
725.142	35.99
725.544	36.03
725.945	36.12
726.347	36.13
726.748	36.18
727.15	36.23
727.551	36.29
727.952	36.34
728.354	36.4
728.755	36.45
729.156	36.49
729.557	36.42
729.958	36.46
730.359	36.47
730.76	36.54
731.161	36.58
731.562	36.62
731.962	36.61
732.363	36.64
732.763	36.66
733.164	36.67
733.564	36.72
733.965	36.74
734.365	36.79
734.766	36.81
735.166	36.81
735.566	36.86
735.966	36.88
736.366	36.91
736.766	36.92
737.166	36.96
737.566	36.98
737.966	36.97
738.365	37.01
738.765	37.01
739.165	37.05
739.564	37.06
739.964	37.06
740.363	37.07
740.763	37.1
741.162	37.13
741.561	37.12
741.96	37.13
742.36	37.15
742.759	37.16
743.158	37.16
743.557	37.14
743.955	37.17
744.354	37.18
744.753	37.2
745.152	37.21
745.55	37.22
745.949	37.24
746.348	37.25
746.746	37.25
747.144	37.28
747.543	37.3
747.941	37.31
748.339	37.29
748.737	37.31
749.136	37.29
749.534	37.26
749.932	37.24
750.33	37.22
750.727	37.22
751.125	37.23
751.523	37.21
751.921	37.21
752.318	37.22
752.716	37.24
753.113	37.23
753.511	37.25
753.908	37.28
754.305	37.3
754.703	37.29
755.1	37.29
755.497	37.28
755.894	37.28
756.291	37.27
756.688	37.24
757.085	37.24
757.482	37.22
757.878	37.19
758.275	37.18
758.672	37.17
759.068	37.19
759.465	37.19
759.861	37.19
760.258	37.2
760.654	37.21
761.05	37.24
761.447	37.23
761.843	37.24
762.239	37.26
762.635	37.26
763.031	37.27
763.427	37.27
763.822	37.28
764.218	37.3
764.614	37.3
765.01	37.3
765.405	37.29
765.801	37.28
766.196	37.28
766.592	37.28
766.987	37.28
767.382	37.26
767.778	37.26
768.173	37.24
768.568	37.24
768.963	37.25
769.358	37.26
769.753	37.26
770.148	37.26
770.542	37.26
770.937	37.25
771.332	37.26
771.726	37.27
772.121	37.27
772.515	37.27
772.91	37.25
773.304	37.26
773.699	37.27
774.093	37.26
774.487	37.28
774.881	37.28
775.275	37.27
775.669	37.26
776.063	37.25
776.457	37.26
776.851	37.25
777.245	37.22
777.638	37.19
778.032	37.19
778.425	37.19
778.819	37.17
779.212	37.17
779.606	37.19
779.999	37.16
780.392	37.17
780.786	37.14
781.179	37.16
781.572	37.18
781.965	37.2
782.358	37.19
782.751	37.21
783.143	37.23
783.536	37.22
783.929	37.21
784.322	37.24
784.714	37.24
785.107	37.28
785.499	37.28
785.891	37.28
786.284	37.27
786.676	37.26
787.068	37.25
787.46	37.24
787.852	37.25
788.245	37.26
788.636	37.25
789.028	37.25
789.42	37.23
789.812	37.23
790.204	37.24
790.595	37.26
790.987	37.28
791.378	37.32
791.77	37.34
792.161	37.33
792.553	37.34
792.944	37.36
793.335	37.36
793.726	37.37
794.117	37.37
794.508	37.33
794.899	37.3
795.29	37.31
795.681	37.27
796.072	37.25
796.463	37.27
796.853	37.24
797.244	37.24
797.634	37.24
798.025	37.24
798.415	37.22
798.806	37.21
799.196	37.23
799.586	37.23
799.976	37.25
800.366	37.25
800.756	37.23
801.146	37.25
801.536	37.26
801.926	37.25
802.316	37.28
802.706	37.31
803.095	37.34
803.485	37.33
803.874	37.32
804.264	37.32
804.653	37.36
805.043	37.37
805.432	37.37
805.821	37.38
806.21	37.36
806.599	37.34
806.988	37.35
807.377	37.33
807.766	37.34
808.155	37.33
808.544	37.32
808.933	37.29
809.321	37.3
809.71	37.29
810.098	37.28
810.487	37.29
810.875	37.3
811.264	37.31
811.652	37.33
812.04	37.34
812.428	37.37
812.816	37.37
813.204	37.36
813.592	37.35
813.98	37.36
814.368	37.39
814.756	37.4
815.144	37.41
815.531	37.41
815.919	37.42
816.306	37.42
816.694	37.41
817.081	37.42
817.469	37.46
817.856	37.44
818.243	37.41
818.63	37.39
819.017	37.38
819.404	37.36
819.791	37.35
820.178	37.34
820.565	37.33
820.952	37.36
821.339	37.36
821.725	37.35
822.112	37.38
822.498	37.39
822.885	37.42
823.271	37.42
823.657	37.42
824.044	37.42
824.43	37.42
824.816	37.42
825.202	37.39
825.588	37.39
825.974	37.39
826.36	37.38
826.746	37.37
827.132	37.36
827.517	37.38
827.903	37.38
828.289	37.4
828.674	37.38
829.06	37.37
829.445	37.37
829.83	37.38
830.216	37.36
830.601	37.34
830.986	37.35
831.371	37.34
831.756	37.34
832.141	37.34
832.526	37.31
832.911	37.3
833.295	37.33
833.68	37.33
834.065	37.33
834.449	37.36
834.834	37.37
835.218	37.38
835.603	37.38
835.987	37.38
836.371	37.38
836.755	37.39
837.139	37.4
837.524	37.41
837.908	37.42
838.291	37.43
838.675	37.43
839.059	37.44
839.443	37.44
839.827	37.43
840.21	37.42
840.594	37.42
840.977	37.41
841.361	37.42
841.744	37.38
842.127	37.36
842.511	37.34
842.894	37.34
843.277	37.32
843.66	37.28
844.043	37.3
844.426	37.3
844.809	37.31
845.191	37.31
845.574	37.28
845.957	37.32
846.339	37.31
846.722	37.32
847.104	37.33
847.487	37.34
847.869	37.36
848.252	37.35
848.634	37.36
849.016	37.36
849.398	37.36
849.78	37.39
850.162	37.39
850.544	37.4
850.926	37.39
851.307	37.38
851.689	37.36
852.071	37.37
852.452	37.37
852.834	37.36
853.215	37.36
853.597	37.37
853.978	37.36
854.359	37.35
854.741	37.34
855.122	37.33
855.503	37.33
855.884	37.33
856.265	37.33
856.646	37.31
857.026	37.32
857.407	37.35
857.788	37.34
858.169	37.36
858.549	37.37
858.93	37.38
859.31	37.41
859.69	37.42
860.071	37.45
860.451	37.46
860.831	37.47
861.211	37.45
861.591	37.44
861.971	37.43
862.351	37.42
862.731	37.42
863.111	37.42
863.491	37.4
863.87	37.39
864.25	37.37
864.629	37.36
865.009	37.36
865.388	37.36
865.768	37.35
866.147	37.37
866.526	37.37
866.905	37.39
867.284	37.4
867.663	37.39
868.042	37.4
868.421	37.4
868.8	37.4
869.179	37.41
869.558	37.41
869.936	37.41
870.315	37.39
870.693	37.38
871.072	37.36
871.45	37.34
871.828	37.36
872.207	37.37
872.585	37.37
872.963	37.36
873.341	37.36
873.719	37.36
874.097	37.36
874.475	37.37
874.853	37.38
875.23	37.4
875.608	37.41
875.986	37.44
876.363	37.43
876.741	37.45
877.118	37.47
877.495	37.48
877.873	37.49
878.25	37.53
878.627	37.55
879.004	37.55
879.381	37.55
879.758	37.53
880.135	37.51
880.512	37.5
880.889	37.49
881.265	37.48
881.642	37.48
882.019	37.47
882.395	37.44
882.772	37.42
883.148	37.41
883.524	37.41
883.901	37.42
884.277	37.4
884.653	37.36
885.029	37.35
885.405	37.35
885.781	37.34
886.157	37.34
886.532	37.34
886.908	37.33
887.284	37.34
887.659	37.32
888.035	37.28
888.411	37.3
888.786	37.33
889.161	37.33
889.537	37.3
889.912	37.28
890.287	37.29
890.662	37.28
891.037	37.28
891.412	37.27
891.787	37.26
892.162	37.27
892.536	37.27
892.911	37.25
893.286	37.24
893.66	37.26
894.035	37.28
894.409	37.27
894.784	37.27
895.158	37.26
895.532	37.27
895.906	37.27
896.281	37.27
896.655	37.25
897.029	37.26
897.402	37.25
897.776	37.26
898.15	37.25
898.524	37.24
898.898	37.23
899.271	37.25
899.645	37.27
900.018	37.26
900.392	37.29
900.765	37.32
901.138	37.31
901.511	37.32
901.884	37.32
902.258	37.36
902.631	37.37
903.003	37.4
903.376	37.39
903.749	37.38
904.122	37.41
904.495	37.39
904.867	37.41
905.24	37.42
905.612	37.44
905.985	37.42
906.357	37.4
906.729	37.42
907.102	37.41
907.474	37.42
907.846	37.42
908.218	37.39
908.59	37.4
908.962	37.38
909.334	37.37
909.705	37.35
910.077	37.36
910.449	37.34
910.82	37.33
911.192	37.33
911.563	37.3
911.935	37.3
912.306	37.29
912.677	37.31
913.048	37.31
913.419	37.31
913.79	37.34
914.161	37.37
914.532	37.38
914.903	37.37
915.274	37.36
915.645	37.38
916.015	37.39
916.386	37.39
916.756	37.39
917.127	37.4
917.497	37.4
917.868	37.39
918.238	37.35
918.608	37.37
918.978	37.38
919.348	37.39
919.718	37.37
920.088	37.38
920.458	37.41
920.828	37.4
921.198	37.38
921.567	37.38
921.937	37.38
922.306	37.4
922.676	37.38
923.045	37.4
923.415	37.41
923.784	37.43
924.153	37.45
924.522	37.43
924.891	37.42
925.26	37.43
925.629	37.45
925.998	37.44
926.367	37.44
926.736	37.45
927.104	37.45
927.473	37.44
927.842	37.42
928.21	37.43
928.578	37.41
928.947	37.41
929.315	37.4
929.683	37.4
930.051	37.39
930.42	37.42
930.788	37.41
931.156	37.37
931.523	37.36
931.891	37.4
932.259	37.41
932.627	37.43
932.994	37.43
933.362	37.45
933.729	37.43
934.097	37.45
934.464	37.44
934.831	37.46
935.199	37.5
935.566	37.52
935.933	37.44
936.3	37.41
936.667	37.4
937.034	37.45
937.401	37.45
937.767	37.45
938.134	37.48
938.501	37.48
938.867	37.48
939.234	37.49
939.6	37.5
939.967	37.55
940.333	37.52
940.699	37.54
941.065	37.49
941.431	37.47
941.798	37.47
942.163	37.44
942.529	37.38
942.895	37.37
943.261	37.33
943.627	37.32
943.992	37.34
944.358	37.35
944.723	37.35
945.089	37.25
945.454	37.27
945.82	37.29
946.185	37.29
946.55	37.29
946.915	37.31
947.28	37.28
947.645	37.25
948.01	37.26
948.375	37.26
948.74	37.25
949.104	37.33
949.469	37.27
949.834	37.2
950.198	37.18
950.562	37.11
950.927	37.07
951.291	37.02
951.655	36.98
952.02	36.95
952.384	36.88
952.748	36.85
953.112	36.79
953.476	36.77
953.839	36.76
954.203	36.71
954.567	36.71
954.931	36.67
955.294	36.65
955.658	36.67
956.021	36.66
956.385	36.65
956.748	36.63
957.111	36.59
957.474	36.6
957.837	36.58
958.2	36.54
958.563	36.55
958.926	36.58
959.289	36.62
959.652	36.57
960.015	36.52
960.377	36.52
960.74	36.52
961.102	36.57
961.465	36.58
961.827	36.64
962.189	36.69
962.552	36.67
962.914	36.68
963.276	36.66
963.638	36.7
964	36.71
964.362	36.69
964.724	36.65
965.085	36.62
965.447	36.62
965.809	36.56
966.17	36.51
966.532	36.53
966.893	36.5
967.255	36.52
967.616	36.55
967.977	36.56
968.338	36.56
968.699	36.6
969.061	36.53
969.421	36.49
969.782	36.53
970.143	36.57
970.504	36.61
970.865	36.63
971.225	36.64
971.586	36.58
971.946	36.58
972.307	36.61
972.667	36.55
973.027	36.64
973.388	36.64
973.748	36.63
974.108	36.71
974.468	36.66
974.828	36.65
975.188	36.65
975.548	36.66
975.907	36.63
976.267	36.68
976.627	36.74
976.986	36.69
977.346	36.68
977.705	36.68
978.064	36.59
978.424	36.63
978.783	36.6
979.142	36.57
979.501	36.57
979.86	36.67
980.219	36.58
980.578	36.6
980.937	36.69
981.296	36.74
981.654	36.78
982.013	36.85
982.371	36.82
982.73	36.85
983.088	36.89
983.447	36.88
983.805	36.83
984.163	36.86
984.521	36.83
984.879	36.74
985.237	36.73
985.595	36.67
985.953	36.6
986.311	36.63
986.669	36.58
987.026	36.53
987.384	36.58
987.741	36.51
988.099	36.57
988.456	36.55
988.814	36.58
989.171	36.57
989.528	36.64
989.885	36.68
990.242	36.7
990.599	36.72
990.956	36.75
991.313	36.75
991.67	36.84
992.027	36.91
992.383	36.97
992.74	37.08
993.096	37.02
993.453	36.96
993.809	37
994.165	36.96
994.522	37.07
994.878	37.12
995.234	37.14
995.59	37.22
995.946	37.25
996.302	37.24
996.658	37.23
997.013	37.28
997.369	37.4
997.725	37.42
998.08	37.47
998.436	37.36
998.791	37.41
999.147	37.4
999.502	37.41
999.857	37.37
1000.212	37.32
1000.567	37.31
1000.922	37.39
1001.277	37.32
1001.632	37.27
1001.987	37.35
1002.342	37.43
1002.696	37.37
1003.051	37.46
1003.406	37.46
1003.76	37.5
1004.114	37.54
1004.469	37.53
1004.823	37.72
1005.177	37.72
1005.531	37.73
1005.885	37.61
1006.239	37.7
1006.593	37.76
1006.947	37.83
1007.301	37.8
1007.655	37.77
1008.008	37.85
1008.362	37.87
1008.715	37.65
1009.069	37.71
1009.422	37.82
1009.776	37.8
1010.129	37.72
1010.482	37.66
1010.835	37.58
1011.188	37.56
1011.541	37.57
1011.894	37.56
1012.247	37.63
1012.6	37.65
1012.952	37.68
1013.305	37.67
1013.657	37.87
1014.01	37.86
1014.362	37.91
1014.715	38
1015.067	38.01
1015.419	37.93
1015.771	37.98
1016.123	37.92
1016.475	38.06
1016.827	38.15
1017.179	38.35
1017.531	38.43
1017.883	38.56
1018.234	38.73
1018.586	38.75
1018.938	39.04
1019.289	39.19
1019.64	39.2
1019.992	39.26
1020.343	39.13
1020.694	39.04
1021.045	38.82
1021.396	38.7
1021.747	38.77
1022.098	38.63
1022.449	38.66
1022.8	38.52
1023.151	38.71
1023.501	38.95
1023.852	39.12
1024.202	39.12
1024.553	39.17
1024.903	39.44
1025.253	39.84
1025.604	39.76
1025.954	39.85
1026.304	39.85
1026.654	39.87
1027.004	39.81
1027.354	39.47
1027.703	39.24
1028.053	39.41
1028.403	39.48
1028.753	39.26
1029.102	39.14
1029.452	39.37
1029.801	39.58
1030.15	39.59
1030.499	39.53
897.758	1398.9
901.051	1407.37
904.343	1398.01
907.636	1420.92
910.928	1380.1
914.22	1380.14
917.511	1361.22
920.803	1304.23
924.094	1296.33
927.384	1268.29
930.675	1211.01
933.965	1204.92
937.255	1132.28
940.544	1088.99
943.834	1036.95
947.123	1030.71
950.411	966.59
953.7	945.49
956.988	894.39
960.276	856.85
963.563	843.45
966.851	815.1
970.138	807.12
973.424	781.38
976.711	784.51
979.997	745.95
983.283	740.85
986.568	726.92
989.853	704.51
993.138	690.2
996.423	665.89
999.708	646.62
1002.992	638.26
1006.275	610.51
1009.559	604.84
1012.842	584.04
1016.125	567.17
1019.408	556.82
1022.69	548.2
1025.972	537.93
1029.254	525.2
1032.536	515.85
1035.817	504.38
1039.098	497.13
1042.379	485.71
1045.659	480.9
1048.939	468.8
1052.219	459.86
1055.498	452.58
1058.778	442.64
1062.057	430.95
1065.335	425.99
1068.614	420.94
1071.892	416.4
1075.17	403.28
1078.447	395.76
1081.724	392.53
1085.001	389.15
1088.278	380.89
1091.554	373.3
1094.83	373.78
1098.106	371.82
1101.382	368.56
1104.657	365.84
1107.932	359.76
1111.206	361.43
1114.481	353.54
1117.755	349.67
1121.029	346.74
1124.302	346.35
1127.575	338.61
1130.848	334.64
1134.121	331.05
1137.393	328.99
1140.665	321.19
1143.937	319.81
1147.208	318.58
1150.48	316.98
1153.75	312.75
1157.021	308.67
1160.291	308.62
1163.561	305.93
1166.831	305.99
1170.101	303.03
1173.37	303.19
1176.639	304.14
1179.907	301.18
1183.176	296.63
1186.444	296.59
1189.711	296.31
1192.979	295.08
1196.246	293
1199.513	294.24
1202.78	291.89
1206.046	292.2
1209.312	288.08
1212.578	289.05
1215.843	290.7
1219.108	289.95
1222.373	295.75
1225.638	297.16
1228.902	301.36
1232.166	301.87
1235.43	304.34
1238.693	308.21
1241.956	310.47
1245.219	315.97
1248.482	315.12
1251.744	315.2
1255.006	316.18
1258.268	307.35
1261.529	305.45
1264.79	303.32
1268.051	301.6
1271.312	297.72
1274.572	294.1
1277.832	291.17
1281.092	286.14
1284.351	284.36
1287.61	284.18
1290.869	280.31
1294.128	279.3
1297.386	278.76
1300.644	275.58
1303.902	276.37
1307.159	275.22
1310.416	275.36
1313.673	274.99
1316.93	277.81
1320.186	278.31
1323.442	279.13
1326.697	283.25
1329.953	284.55
1333.208	285.65
1336.463	289.2
1339.717	289.82
1342.972	292.71
1346.226	295.5
1349.479	295.75
1352.733	297.44
1355.986	298.95
1359.238	298.85
1362.491	300.67
1365.743	302.98
1368.995	303.63
1372.247	302.39
1375.498	302.14
1378.749	305.83
1382	301.77
1385.251	303.43
1388.501	301.68
1391.751	302.68
1395	302.22
1398.25	299.65
1401.499	298.38
1404.748	297.77
1407.996	296.54
1411.244	295.54
1414.492	293.18
1417.74	291.54
1420.987	286.86
1424.234	287.1
1427.481	283.33
1430.728	283.07
1433.974	279.94
1437.22	277.69
1440.465	277.26
1443.711	274.83
1446.956	273.28
1450.201	270.3
1453.445	267.27
1456.689	266.18
1459.933	261.85
1463.177	259.49
1466.42	254.9
1469.663	252.2
1472.906	250.75
1476.148	243.67
1479.391	240.65
1482.633	238.25
1485.874	233.93
1489.115	232.78
1492.356	229.57
1495.597	228.94
1498.838	225.32
1502.078	223.96
1505.318	223.01
1508.557	222.4
1511.797	222.05
1515.036	220.88
1518.274	220.26
1521.513	218.03
1524.751	217.22
1527.989	217.13
1531.227	215.34
1534.464	216
1537.701	213.73
1540.938	213.18
1544.174	210.71
1547.41	210.5
1550.646	208.95
1553.882	208.61
1557.117	206.45
1560.352	205.26
1563.587	204.5
1566.821	203.08
1570.055	200.87
1573.289	199.79
1576.523	199.24
1579.756	197.88
1582.989	196.63
1586.222	196.54
1589.454	194.67
1592.686	196.72
1595.918	195.42
1599.15	194.46
1602.381	195.19
1605.612	194.99
1608.843	195.85
1612.073	195.38
1615.303	196.53
1618.533	196.02
1621.762	195.66
1624.992	196.84
1628.221	195.9
1631.449	196.34
1634.678	195.36
1637.906	195.87
1641.134	196.56
1644.361	195.98
1647.588	197.08
1650.815	195.76
1654.042	195.45
1657.269	196.54
1660.495	196.31
1663.72	195.55
1666.946	196.39
1670.171	197.54
1673.396	197.65
1676.621	197.18
1679.845	197.79
1683.069	197.42
1686.293	198.79
1689.517	199.98
1692.74	199.68
1695.963	200.22
1699.185	202.38
1702.408	202.18
1705.63	203.05
1708.852	203.01
1712.073	203.85
1715.294	204.07
1718.515	205.8
1721.736	205.5
1724.956	206.22
1728.176	206.26
1731.396	208.06
1734.616	207.24
1737.835	208.35
1741.054	206.74
1744.272	207.75
1747.491	209.25
1750.709	209.44
1753.927	209.05
1757.144	208.5
1760.361	209.26
1763.578	209.96
1766.795	209.45
1770.011	211.34
1773.227	210.98
1776.443	213.94
1779.658	214.85
1782.874	214.58
1786.089	215.42
1789.303	216.06
1792.518	219.4
1795.732	219.04
1798.945	221.4
1802.159	221.39
1805.372	221.72
1808.585	225.76
1811.797	226.16
1815.01	225.94
1818.222	227.46
1821.434	230.15
1824.645	230.81
1827.856	233.79
1831.067	236.37
1834.278	235.44
1837.488	237.67
1840.698	239.18
1843.908	237.08
1847.117	238.53
1850.326	240.62
1853.535	240.19
1856.744	242.94
1859.952	243.36
1863.16	242.59
1866.368	240.45
1869.575	243.74
1872.782	240.25
1875.989	240.09
1879.196	239.35
1882.402	238.5
1885.608	239.51
1888.814	240.27
1892.019	240.08
1895.224	239.78
1898.429	238.47
1901.634	240.98
1904.838	240.5
1908.042	243.83
1911.246	244.63
1914.449	246.47
1917.652	246.53
1920.855	246.54
1924.058	246.66
1927.26	245.46
1930.462	246.24
1933.664	249.01
1936.865	246.83
1940.066	247.35
1943.267	245.27
1946.467	244.87
1949.668	246.42
1952.868	249.8
1956.067	249.41
1959.267	249.35
1962.466	250.36
1965.665	249.35
1968.863	249.76
1972.061	253.91
1975.259	255.35
1978.457	257.38
1981.654	259.93
1984.852	260.49
1988.048	259.2
1991.245	261.57
1994.441	264.44
1997.637	266.25
2000.833	271.52
2004.028	274.77
2007.223	274.15
2010.418	277.2
2013.613	282.31
2016.807	284.82
2020.001	287.15
2023.194	291.45
2026.388	297.74
2029.581	304.08
2032.774	306.71
2035.966	312.05
2039.158	312.82
2042.35	320.4
2045.542	322.94
2048.733	327.67
2051.924	332.46
2055.115	338.22
2058.306	338.91
2061.496	342.61
2064.686	342.56
2067.875	349.05
2071.065	349.39
2074.254	347.97
2077.442	351.74
2080.631	353.55
2083.819	356.66
2087.007	356.81
2090.195	360.76
2093.382	364.63
2096.569	361.88
2099.756	368.02
2102.942	368.35
2106.128	372.54
2109.314	381.24
2112.5	380.06
2115.685	387.71
2118.87	388.95
2122.055	396.88
2125.239	399.76
2128.424	403.4
2131.608	408.3
2134.791	413.43
2137.974	414.38
2141.157	416.41
2144.34	417.38
2147.523	423.21
2150.705	419.82
2153.887	423.87
2157.068	424.67
2160.25	419.53
2163.431	422.02
2166.611	425.11
2169.792	433.44
2172.972	438.64
2176.152	440.3
2179.331	446.61
2182.511	454.14
2185.69	459.78
2188.868	468.69
2192.047	469.57
2195.225	484.59
2198.403	497.57
2201.58	505.76
2204.758	514.96
2207.935	525.66
2211.111	535.44
2214.288	540.73
2217.464	542.41
2220.64	550.96
2223.815	557.66
2226.991	579.99
2230.166	581.64
2233.34	590.57
2236.515	601.27
2239.689	600.62
2242.863	604.01
2246.036	623.82
2249.209	619.01
2252.382	629.57
2255.555	648.07
2258.727	650.93
2261.9	655.06
2265.071	661.55
2268.243	671.3
2271.414	679.24
2274.585	696.77
2277.756	704.3
2280.926	706.68
2284.096	723.85
2287.266	740.46
2290.436	746.53
2293.605	764.62
2296.774	786.82
2299.942	812.31
2303.111	816.46
2306.279	837.04
2309.447	848.93
2312.614	869.38
2315.781	892.25
2318.948	935.12
2322.115	921.25
2325.281	971.15
2328.447	948.02
2331.613	991.14
2334.779	978.82
2337.944	1020.93
2341.109	1030.12
2344.274	1053.27
2347.438	1094.36
2350.602	1096.07
2353.766	1127.51
2356.929	1142.59
2360.092	1133.74
2363.255	1218.97
2366.418	1210.83
2369.58	1234.43
2372.742	1315.33
2375.904	1346.71
2379.066	1340.78
2382.227	1309.92
2385.388	1422.72
2388.548	1424.84
2391.709	1442.8
2394.869	1610.56
2398.029	1537.37
2401.188	1585.45
2404.347	1574.08
2407.506	1544.68
2410.665	1589.11
2413.823	1686.81
2416.981	1789.2
2420.139	1728.91
2423.296	1708.18
2426.453	1786.54
2429.61	1715.58
2432.767	1795.96
2435.923	1771.7
2439.079	1945.08
2442.235	1972.54
2445.391	1951.86
2448.546	1937.02
2451.701	1882.95
2454.855	1881.88
2458.009	1994.37
2461.163	2079.32
2464.317	2155.28
2467.471	2211.76
2470.624	2216.54
2473.777	2148.55
2476.929	2091.08
2480.082	2037.61
2483.234	2013.7
2486.385	2119.62
2489.537	2127.6
2492.688	2210.93
2495.839	2144.9
2498.989	2099.81
2502.14	2114.81
2505.29	2133.54
2508.439	2176.15
2511.589	2171.81
2514.738	2357.1
2517.887	2308.26
2521.035	2437.46
2524.183	2462.73
2527.331	2479.1
2530.479	2468.27
2533.627	2485.86
