Data from N_2_DEC_VA_2N_Splice17_13-07-39-279.txt Node
Date: Sat Mar 07 13:07:39 EST 2020
User: sa697716
Spectrometer: NQ5500242
Trigger mode: 0
Integration Time (sec): 1.450000E-1
Scans to average: 20
Nonlinearity correction enabled: false
Boxcar width: 5
Storing dark spectrum: false
XAxis mode: Wavelengths
Number of Pixels in Spectrum: 512
>>>>>Begin Spectral Data<<<<<
187.83	111.35
188.298	131.87
188.766	112.03
189.233	100.28
189.701	90.9
190.169	116.26
190.636	94.24
191.104	122.88
191.571	-106.67
192.039	-264.14
192.506	-602.26
192.974	113.85
193.441	164.47
193.908	94.71
194.375	51.8
194.842	-0.94
195.31	90.77
195.777	-105.96
196.244	34.07
196.711	36.27
197.177	39.29
197.644	39.04
198.111	38.93
198.578	39.69
199.045	40.16
199.511	40.78
199.978	40.75
200.445	40.52
200.911	40.86
201.378	40.64
201.844	40.67
202.31	40.18
202.777	40.35
203.243	40.77
203.709	40.65
204.176	39.74
204.642	39.21
205.108	39.21
205.574	38.96
206.04	38.26
206.506	38.05
206.972	37.96
207.438	37.93
207.903	37.48
208.369	36.44
208.835	35.64
209.301	35.24
209.766	34.35
210.232	33.47
210.697	32.66
211.163	32.07
211.628	31.28
212.094	30.28
212.559	29.66
213.024	28.86
213.49	28.36
213.955	27.56
214.42	26.85
214.885	26.16
215.35	25.2
215.815	23.96
216.28	22.37
216.745	20.71
217.21	18.92
217.675	17.23
218.14	15.97
218.604	14.76
219.069	13.8
219.534	12.94
219.998	12.2
220.463	11.58
220.927	11.04
221.392	10.63
221.856	10.27
222.32	9.97
222.785	9.71
223.249	9.43
223.713	9.25
224.177	9.08
224.642	8.91
225.106	8.72
225.57	8.53
226.034	8.39
226.497	8.24
226.961	8.1
227.425	7.98
227.889	7.87
228.353	7.76
228.816	7.61
229.28	7.49
229.744	7.37
230.207	7.26
230.671	7.16
231.134	7.05
231.597	6.98
232.061	6.89
232.524	6.8
232.987	6.71
233.45	6.63
233.914	6.55
234.377	6.46
234.84	6.38
235.303	6.32
235.766	6.25
236.229	6.19
236.691	6.11
237.154	6.04
237.617	5.98
238.08	5.92
238.542	5.85
239.005	5.8
239.468	5.74
239.93	5.69
240.393	5.64
240.855	5.58
241.317	5.53
241.78	5.47
242.242	5.42
242.704	5.37
243.166	5.32
243.629	5.27
244.091	5.22
244.553	5.17
245.015	5.13
245.477	5.06
245.939	5.01
246.4	4.97
246.862	4.93
247.324	4.89
247.786	4.84
248.247	4.8
248.709	4.75
249.17	4.7
249.632	4.67
250.093	4.63
250.555	4.59
251.016	4.57
251.477	4.53
251.939	4.51
252.4	4.48
252.861	4.46
253.322	4.43
253.783	4.4
254.244	4.39
254.705	4.36
255.166	4.33
255.627	4.31
256.088	4.27
256.549	4.25
257.009	4.22
257.47	4.19
257.931	4.15
258.391	4.11
258.852	4.08
259.312	4.06
259.773	4.03
260.233	4
260.694	3.98
261.154	3.95
261.614	3.93
262.074	3.9
262.534	3.87
262.994	3.85
263.455	3.83
263.915	3.82
264.374	3.79
264.834	3.78
265.294	3.76
265.754	3.75
266.214	3.74
266.673	3.73
267.133	3.72
267.593	3.72
268.052	3.71
268.512	3.7
268.971	3.7
269.431	3.69
269.89	3.68
270.349	3.67
270.809	3.66
271.268	3.65
271.727	3.64
272.186	3.63
272.645	3.63
273.104	3.63
273.563	3.61
274.022	3.6
274.481	3.6
274.94	3.59
275.399	3.58
275.857	3.58
276.316	3.57
276.775	3.57
277.233	3.57
277.692	3.56
278.15	3.55
278.609	3.54
279.067	3.53
279.525	3.53
279.984	3.52
280.442	3.51
280.9	3.51
281.358	3.5
281.816	3.5
282.274	3.49
282.732	3.48
283.19	3.48
283.648	3.47
284.106	3.46
284.564	3.46
285.021	3.45
285.479	3.45
285.937	3.44
286.394	3.43
286.852	3.41
287.309	3.41
287.767	3.39
288.224	3.38
288.682	3.37
289.139	3.35
289.596	3.34
290.053	3.32
290.511	3.3
290.968	3.29
291.425	3.27
291.882	3.27
292.339	3.26
292.796	3.25
293.252	3.23
293.709	3.23
294.166	3.22
294.623	3.21
295.079	3.2
295.536	3.2
295.992	3.19
296.449	3.19
296.905	3.18
297.362	3.17
297.818	3.16
298.274	3.16
298.731	3.15
299.187	3.14
299.643	3.13
300.099	3.13
300.555	3.13
301.011	3.12
301.467	3.11
301.923	3.1
302.379	3.09
302.835	3.09
303.291	3.09
303.746	3.08
304.202	3.08
304.658	3.08
305.113	3.07
305.569	3.07
306.024	3.07
306.479	3.06
306.935	3.06
307.39	3.06
307.845	3.06
308.301	3.06
308.756	3.06
309.211	3.06
309.666	3.06
310.121	3.06
310.576	3.05
311.031	3.06
311.486	3.06
311.94	3.06
312.395	3.06
312.85	3.05
313.305	3.06
313.759	3.05
314.214	3.04
314.668	3.03
315.123	3.03
315.577	3.02
316.032	3.01
316.486	3
316.94	2.99
317.394	2.98
317.849	2.98
318.303	2.97
318.757	2.96
319.211	2.96
319.665	2.95
320.119	2.94
320.572	2.94
321.026	2.93
321.48	2.93
321.934	2.91
322.387	2.91
322.841	2.9
323.295	2.9
323.748	2.89
324.202	2.88
324.655	2.88
325.108	2.88
325.562	2.87
326.015	2.87
326.468	2.86
326.921	2.86
327.374	2.86
327.827	2.86
328.28	2.85
328.733	2.85
329.186	2.85
329.639	2.85
330.092	2.85
330.545	2.84
330.997	2.84
331.45	2.85
331.903	2.85
332.355	2.86
332.808	2.86
333.26	2.85
333.713	2.86
334.165	2.86
334.617	2.86
335.069	2.86
335.522	2.86
335.974	2.87
336.426	2.86
336.878	2.85
337.33	2.84
337.782	2.84
338.234	2.84
338.686	2.84
339.137	2.84
339.589	2.84
340.041	2.83
340.493	2.82
340.944	2.8
341.396	2.8
341.847	2.8
342.299	2.79
342.75	2.77
343.201	2.76
343.653	2.75
344.104	2.74
344.555	2.73
345.006	2.72
345.457	2.72
345.908	2.71
346.359	2.7
346.81	2.7
347.261	2.7
347.712	2.7
348.163	2.7
348.613	2.7
349.064	2.7
349.515	2.69
349.965	2.7
350.416	2.69
350.866	2.69
351.317	2.69
351.767	2.69
352.217	2.69
352.668	2.69
353.118	2.69
353.568	2.69
354.018	2.69
354.468	2.7
354.918	2.7
355.368	2.71
355.818	2.71
356.268	2.71
356.718	2.71
357.168	2.7
357.617	2.7
358.067	2.7
358.517	2.72
358.966	2.72
359.416	2.71
359.865	2.71
360.315	2.72
360.764	2.72
361.213	2.72
361.663	2.72
362.112	2.74
362.561	2.75
363.01	2.74
363.459	2.73
363.908	2.73
364.357	2.73
364.806	2.73
365.255	2.72
365.703	2.73
366.152	2.74
366.601	2.74
367.05	2.75
367.498	2.74
367.947	2.75
368.395	2.76
368.844	2.77
369.292	2.76
369.74	2.77
370.189	2.78
370.637	2.78
371.085	2.77
371.533	2.77
371.981	2.78
372.429	2.8
372.877	2.81
373.325	2.82
373.773	2.84
374.221	2.85
374.669	2.87
375.116	2.88
375.564	2.91
376.012	2.95
376.459	2.98
376.907	3.01
377.354	3.04
377.801	3.09
378.249	3.14
378.696	3.18
379.143	3.23
379.591	3.28
380.038	3.34
380.485	3.39
380.932	3.44
381.379	3.5
381.826	3.55
382.273	3.61
382.72	3.65
383.166	3.71
383.613	3.78
384.06	3.84
384.506	3.91
384.953	3.98
385.4	4.05
385.846	4.14
386.292	4.2
386.739	4.27
387.185	4.35
387.631	4.43
388.078	4.51
388.524	4.59
388.97	4.66
389.416	4.74
389.862	4.82
390.308	4.9
390.754	4.98
391.2	5.06
391.645	5.14
392.091	5.23
392.537	5.31
392.983	5.37
393.428	5.45
393.874	5.52
394.319	5.59
394.765	5.65
395.21	5.7
395.655	5.75
396.101	5.82
396.546	5.86
396.991	5.9
397.436	5.95
397.881	6
398.326	6.05
398.771	6.08
399.216	6.1
399.661	6.14
400.106	6.16
400.551	6.17
400.995	6.17
401.44	6.18
401.885	6.2
402.329	6.21
402.774	6.22
403.218	6.23
403.663	6.24
404.107	6.24
404.551	6.25
404.995	6.24
405.44	6.22
405.884	6.22
406.328	6.22
406.772	6.19
407.216	6.17
407.66	6.15
408.104	6.11
408.547	6.09
408.991	6.08
409.435	6.04
409.879	6.03
410.322	6.03
410.766	6.02
411.209	6.01
411.653	6.01
412.096	5.99
412.54	5.98
412.983	5.97
413.426	5.97
413.869	5.96
414.312	5.99
414.756	5.98
415.199	5.96
415.642	5.94
416.085	5.91
416.527	5.88
416.97	5.86
417.413	5.84
417.856	5.83
418.298	5.81
418.741	5.78
419.184	5.75
419.626	5.74
420.069	5.72
420.511	5.71
420.953	5.71
421.396	5.7
421.838	5.69
422.28	5.68
422.722	5.66
423.164	5.64
423.606	5.62
424.048	5.6
424.49	5.57
424.932	5.54
425.374	5.49
425.816	5.44
426.258	5.41
426.699	5.38
427.141	5.35
427.582	5.34
428.024	5.32
428.465	5.3
428.907	5.28
429.348	5.25
429.789	5.24
430.231	5.26
430.672	5.26
431.113	5.26
431.554	5.26
431.995	5.26
432.436	5.24
432.877	5.25
433.318	5.26
433.759	5.28
434.2	5.28
434.64	5.29
435.081	5.28
435.522	5.3
435.962	5.32
436.403	5.36
436.843	5.38
437.284	5.4
437.724	5.42
438.164	5.43
438.604	5.47
439.045	5.52
439.485	5.55
439.925	5.6
440.365	5.65
440.805	5.69
441.245	5.73
441.685	5.79
442.125	5.85
442.564	5.91
443.004	5.97
443.444	6.01
443.883	6.08
444.323	6.14
444.762	6.22
445.202	6.27
445.641	6.35
446.081	6.42
446.52	6.49
446.959	6.58
447.398	6.66
447.837	6.72
448.276	6.8
448.716	6.88
449.154	6.96
449.593	7.03
450.032	7.1
450.471	7.15
450.91	7.19
451.349	7.26
451.787	7.29
452.226	7.33
452.664	7.39
453.103	7.42
453.541	7.46
453.98	7.5
454.418	7.51
454.856	7.54
455.295	7.56
455.733	7.58
456.171	7.59
456.609	7.61
457.047	7.63
457.485	7.63
457.923	7.64
458.361	7.65
458.798	7.65
459.236	7.66
459.674	7.66
460.111	7.66
460.549	7.67
460.987	7.67
461.424	7.69
461.862	7.69
462.299	7.69
462.736	7.7
463.173	7.7
463.611	7.7
464.048	7.7
464.485	7.71
464.922	7.72
465.359	7.73
465.796	7.75
466.233	7.75
466.67	7.76
467.106	7.77
467.543	7.76
467.98	7.76
468.416	7.75
468.853	7.75
469.29	7.75
469.726	7.77
470.162	7.77
470.599	7.77
471.035	7.76
471.471	7.75
471.907	7.75
472.344	7.76
472.78	7.78
473.216	7.79
473.652	7.8
474.088	7.79
474.523	7.8
474.959	7.81
475.395	7.81
475.831	7.83
476.266	7.86
476.702	7.87
477.138	7.88
477.573	7.89
478.008	7.9
478.444	7.92
478.879	7.95
479.314	7.97
479.75	7.98
480.185	7.98
480.62	7.99
481.055	7.99
481.49	8
481.925	8.02
482.36	8.05
482.795	8.07
483.229	8.1
483.664	8.14
484.099	8.17
484.534	8.21
484.968	8.27
485.403	8.33
485.837	8.4
486.271	8.47
486.706	8.54
487.14	8.61
487.574	8.7
488.009	8.78
488.443	8.86
488.877	8.95
489.311	9.05
489.745	9.17
490.179	9.28
490.613	9.41
491.046	9.52
491.48	9.66
491.914	9.8
492.348	9.93
492.781	10.1
493.215	10.26
493.648	10.42
494.082	10.59
494.515	10.76
494.948	10.93
495.382	11.11
495.815	11.31
496.248	11.52
496.681	11.73
497.114	11.94
497.547	12.15
497.98	12.38
498.413	12.61
498.846	12.85
499.279	13.09
499.711	13.35
500.144	13.62
500.577	13.87
501.009	14.13
501.442	14.41
501.874	14.71
502.306	14.99
502.739	15.3
503.171	15.61
503.603	15.92
504.036	16.23
504.468	16.55
504.9	16.85
505.332	17.19
505.764	17.52
506.196	17.85
506.627	18.19
507.059	18.55
507.491	18.91
507.923	19.25
508.354	19.63
508.786	20
509.217	20.38
509.649	20.78
510.08	21.14
510.512	21.52
510.943	21.91
511.374	22.29
511.805	22.66
512.237	23.04
512.668	23.42
513.099	23.78
513.53	24.13
513.961	24.49
514.391	24.85
514.822	25.24
515.253	25.58
515.684	25.93
516.114	26.27
516.545	26.62
516.975	26.95
517.406	27.29
517.836	27.63
518.267	27.97
518.697	28.28
519.127	28.58
519.558	28.88
519.988	29.17
520.418	29.46
520.848	29.75
521.278	30.02
521.708	30.38
522.138	30.63
522.567	30.88
522.997	31.1
523.427	31.35
523.857	31.59
524.286	31.78
524.716	31.99
525.145	32.2
525.575	32.38
526.004	32.59
526.433	32.67
526.863	32.84
527.292	33.01
527.721	33.17
528.15	33.29
528.579	33.41
529.008	33.56
529.437	33.67
529.866	33.8
530.295	33.92
530.724	34.03
531.152	34.13
531.581	34.23
532.01	34.32
532.438	34.41
532.867	34.51
533.295	34.62
533.723	34.7
534.152	34.78
534.58	34.85
535.008	34.91
535.436	34.98
535.865	35.06
536.293	35.11
536.721	35.16
537.149	35.22
537.576	35.25
538.004	35.3
538.432	35.36
538.86	35.38
539.287	35.39
539.715	35.43
540.143	35.43
540.57	35.44
540.998	35.47
541.425	35.48
541.852	35.5
542.28	35.54
542.707	35.55
543.134	35.56
543.561	35.6
543.988	35.64
544.415	35.65
544.842	35.67
545.269	35.7
545.696	35.71
546.123	35.72
546.549	35.74
546.976	35.75
547.403	35.75
547.829	35.76
548.256	35.76
548.682	35.76
549.108	35.78
549.535	35.79
549.961	35.79
550.387	35.79
550.813	35.79
551.24	35.79
551.666	35.78
552.092	35.78
552.518	35.77
552.943	35.74
553.369	35.72
553.795	35.7
554.221	35.69
554.646	35.66
555.072	35.64
555.498	35.6
555.923	35.56
556.349	35.52
556.774	35.46
557.199	35.4
557.625	35.35
558.05	35.3
558.475	35.25
558.9	35.18
559.325	35.13
559.75	35.06
560.175	35
560.6	34.93
561.025	34.84
561.449	34.77
561.874	34.68
562.299	34.58
562.723	34.5
563.148	34.39
563.572	34.28
563.997	34.16
564.421	34.04
564.846	33.93
565.27	33.82
565.694	33.72
566.118	33.61
566.542	33.5
566.966	33.38
567.39	33.26
567.814	33.16
568.238	33.05
568.662	32.94
569.086	32.83
569.509	32.71
569.933	32.59
570.357	32.46
570.78	32.33
571.204	32.22
571.627	32.11
572.05	31.98
572.474	31.87
572.897	31.75
573.32	31.63
573.743	31.51
574.166	31.42
574.589	31.3
575.012	31.2
575.435	31.1
575.858	30.98
576.281	30.87
576.704	30.78
577.126	30.66
577.549	30.56
577.972	30.45
578.394	30.35
578.817	30.25
579.239	30.16
579.661	30.05
580.084	29.95
580.506	29.88
580.928	29.78
581.35	29.71
581.772	29.63
582.194	29.55
582.616	29.48
583.038	29.4
583.46	29.31
583.882	29.24
584.303	29.17
584.725	29.11
585.147	29.04
585.568	28.97
585.99	28.9
586.411	28.84
586.833	28.75
587.254	28.68
587.675	28.61
588.096	28.56
588.518	28.51
588.939	28.45
589.36	28.37
589.781	28.31
590.202	28.26
590.623	28.2
591.043	28.14
591.464	28.13
591.885	28.08
592.305	28.04
592.726	28
593.147	27.95
593.567	27.9
593.987	27.88
594.408	27.85
594.828	27.8
595.248	27.77
595.669	27.72
596.089	27.67
596.509	27.63
596.929	27.6
597.349	27.56
597.769	27.52
598.189	27.5
598.608	27.47
599.028	27.43
599.448	27.4
599.867	27.35
600.287	27.32
600.706	27.27
601.126	27.23
601.545	27.17
601.965	27.13
602.384	27.07
602.803	27
603.222	26.93
603.641	26.86
604.061	26.8
604.48	26.74
604.898	26.65
605.317	26.59
605.736	26.51
606.155	26.44
606.574	26.36
606.992	26.28
607.411	26.21
607.829	26.09
608.248	26
608.666	25.9
609.085	25.81
609.503	25.73
609.921	25.64
610.339	25.55
610.758	25.44
611.176	25.35
611.594	25.25
612.012	25.15
612.43	25.07
612.847	24.98
613.265	24.89
613.683	24.8
614.101	24.7
614.518	24.59
614.936	24.49
615.353	24.39
615.771	24.3
616.188	24.22
616.606	24.15
617.023	24.07
617.44	24.01
617.857	23.93
618.274	23.86
618.691	23.8
619.108	23.74
619.525	23.69
619.942	23.65
620.359	23.59
620.776	23.54
621.192	23.49
621.609	23.45
622.026	23.41
622.442	23.38
622.859	23.35
623.275	23.32
623.691	23.29
624.108	23.27
624.524	23.24
624.94	23.22
625.356	23.21
625.772	23.18
626.188	23.16
626.604	23.14
627.02	23.12
627.436	23.11
627.852	23.09
628.268	23.07
628.683	23.05
629.099	23.04
629.514	23.02
629.93	22.98
630.345	22.95
630.761	22.9
631.176	22.86
631.591	22.81
632.007	22.74
632.422	22.67
632.837	22.6
633.252	22.51
633.667	22.41
634.082	22.3
634.497	22.21
634.911	22.1
635.326	21.98
635.741	21.85
636.155	21.7
636.57	21.55
636.984	21.4
637.399	21.25
637.813	21.08
638.228	20.9
638.642	20.71
639.056	20.51
639.47	20.32
639.884	20.11
640.298	19.9
640.712	19.71
641.126	19.51
641.54	19.3
641.954	19.08
642.368	18.88
642.781	18.67
643.195	18.46
643.609	18.27
644.022	18.07
644.436	17.89
644.849	17.7
645.262	17.51
645.676	17.34
646.089	17.17
646.502	17.02
646.915	16.88
647.328	16.75
647.741	16.62
648.154	16.49
648.567	16.39
648.98	16.29
649.393	16.19
649.805	16.1
650.218	16.01
650.631	15.94
651.043	15.84
651.456	15.75
651.868	15.66
652.28	15.59
652.693	15.51
653.105	15.4
653.517	15.3
653.929	15.21
654.341	15.08
654.753	14.95
655.165	14.82
655.577	14.69
655.989	14.54
656.401	14.38
656.813	14.23
657.224	14.05
657.636	13.86
658.047	13.68
658.459	13.48
658.87	13.28
659.282	13.07
659.693	12.88
660.104	12.65
660.515	12.43
660.926	12.21
661.338	11.97
661.749	11.76
662.159	11.53
662.57	11.33
662.981	11.13
663.392	10.92
663.803	10.74
664.213	10.52
664.624	10.34
665.035	10.16
665.445	10
665.855	9.84
666.266	9.69
666.676	9.56
667.086	9.43
667.497	9.28
667.907	9.15
668.317	9.04
668.727	8.94
669.137	8.84
669.547	8.76
669.956	8.68
670.366	8.6
670.776	8.53
671.186	8.47
671.595	8.41
672.005	8.37
672.414	8.35
672.824	8.31
673.233	8.29
673.642	8.28
674.052	8.26
674.461	8.26
674.87	8.26
675.279	8.29
675.688	8.31
676.097	8.34
676.506	8.38
676.915	8.44
677.323	8.5
677.732	8.57
678.141	8.66
678.549	8.76
678.958	8.88
679.366	9.03
679.775	9.18
680.183	9.36
680.592	9.57
681	9.81
681.408	10.07
681.816	10.36
682.224	10.68
682.632	11.03
683.04	11.43
683.448	11.84
683.856	12.28
684.264	12.75
684.671	13.24
685.079	13.78
685.487	14.35
685.894	14.93
686.302	15.56
686.709	16.2
687.116	16.86
687.524	17.53
687.931	18.23
688.338	18.94
688.745	19.65
689.152	20.37
689.559	21.09
689.966	21.81
690.373	22.56
690.78	23.28
691.187	24
691.593	24.71
692	25.4
692.407	26.06
692.813	26.75
693.22	27.41
693.626	28.06
694.032	28.7
694.439	29.31
694.845	29.89
695.251	30.47
695.657	31.03
696.063	31.58
696.469	32.11
696.875	32.63
697.281	33.12
697.687	33.62
698.093	34.09
698.498	34.55
698.904	35
699.31	35.41
699.715	35.8
700.12	36.19
700.526	36.59
700.931	36.95
701.337	37.31
701.742	37.62
702.147	37.94
702.552	38.26
702.957	38.54
703.362	38.8
703.767	39.08
704.172	39.35
704.577	39.6
704.981	39.86
705.386	40.12
705.791	40.36
706.195	40.61
706.6	40.85
707.004	41.07
707.408	41.29
707.813	41.53
708.217	41.76
708.621	41.95
709.025	42.15
709.43	42.32
709.834	42.54
710.237	42.7
710.641	42.86
711.045	43.01
711.449	43.17
711.853	43.34
712.256	43.49
712.66	43.62
713.064	43.77
713.467	43.91
713.87	44.05
714.274	44.15
714.677	44.31
715.08	44.45
715.484	44.59
715.887	44.73
716.29	44.84
716.693	44.96
717.096	45.1
717.499	45.24
717.901	45.36
718.304	45.48
718.707	45.58
719.109	45.67
719.512	45.77
719.915	45.86
720.317	45.94
720.719	46.01
721.122	46.1
721.524	46.19
721.926	46.25
722.328	46.33
722.731	46.41
723.133	46.51
723.535	46.58
723.937	46.64
724.338	46.69
724.74	46.76
725.142	46.96
725.544	47.01
725.945	47.09
726.347	47.15
726.748	47.18
727.15	47.2
727.551	47.26
727.952	47.28
728.354	47.35
728.755	47.38
729.156	47.41
729.557	47.32
729.958	47.36
730.359	47.36
730.76	47.39
731.161	47.44
731.562	47.51
731.962	47.5
732.363	47.56
732.763	47.58
733.164	47.62
733.564	47.65
733.965	47.67
734.365	47.7
734.766	47.72
735.166	47.76
735.566	47.76
735.966	47.79
736.366	47.82
736.766	47.82
737.166	47.84
737.566	47.87
737.966	47.88
738.365	47.9
738.765	47.92
739.165	47.93
739.564	47.93
739.964	47.95
740.363	47.95
740.763	47.95
741.162	47.94
741.561	47.96
741.96	47.94
742.36	47.96
742.759	47.98
743.158	47.97
743.557	47.97
743.955	47.99
744.354	48
744.753	48
745.152	48.04
745.55	48.08
745.949	48.09
746.348	48.11
746.746	48.12
747.144	48.12
747.543	48.11
747.941	48.12
748.339	48.09
748.737	48.1
749.136	48.09
749.534	48.06
749.932	48.03
750.33	48.03
750.727	48.04
751.125	48.01
751.523	48
751.921	48.05
752.318	48.07
752.716	48.1
753.113	48.1
753.511	48.12
753.908	48.16
754.305	48.18
754.703	48.16
755.1	48.16
755.497	48.17
755.894	48.17
756.291	48.15
756.688	48.14
757.085	48.15
757.482	48.15
757.878	48.15
758.275	48.12
758.672	48.13
759.068	48.15
759.465	48.16
759.861	48.16
760.258	48.17
760.654	48.16
761.05	48.16
761.447	48.15
761.843	48.14
762.239	48.16
762.635	48.15
763.031	48.14
763.427	48.13
763.822	48.12
764.218	48.15
764.614	48.15
765.01	48.15
765.405	48.15
765.801	48.14
766.196	48.16
766.592	48.13
766.987	48.15
767.382	48.14
767.778	48.14
768.173	48.15
768.568	48.12
768.963	48.13
769.358	48.15
769.753	48.14
770.148	48.15
770.542	48.13
770.937	48.12
771.332	48.12
771.726	48.11
772.121	48.12
772.515	48.12
772.91	48.14
773.304	48.12
773.699	48.1
774.093	48.12
774.487	48.11
774.881	48.12
775.275	48.13
775.669	48.1
776.063	48.12
776.457	48.09
776.851	48.07
777.245	48.02
777.638	48.04
778.032	48.05
778.425	48.05
778.819	48.07
779.212	48.06
779.606	48.09
779.999	48.12
780.392	48.14
780.786	48.15
781.179	48.19
781.572	48.26
781.965	48.25
782.358	48.27
782.751	48.28
783.143	48.26
783.536	48.24
783.929	48.19
784.322	48.21
784.714	48.2
785.107	48.24
785.499	48.21
785.891	48.19
786.284	48.2
786.676	48.17
787.068	48.15
787.46	48.17
787.852	48.19
788.245	48.22
788.636	48.16
789.028	48.17
789.42	48.14
789.812	48.17
790.204	48.19
790.595	48.2
790.987	48.2
791.378	48.24
791.77	48.24
792.161	48.24
792.553	48.23
792.944	48.26
793.335	48.23
793.726	48.25
794.117	48.24
794.508	48.2
794.899	48.19
795.29	48.2
795.681	48.13
796.072	48.14
796.463	48.16
796.853	48.16
797.244	48.15
797.634	48.14
798.025	48.15
798.415	48.16
798.806	48.16
799.196	48.16
799.586	48.15
799.976	48.19
800.366	48.19
800.756	48.19
801.146	48.22
801.536	48.28
801.926	48.28
802.316	48.28
802.706	48.27
803.095	48.32
803.485	48.32
803.874	48.32
804.264	48.32
804.653	48.31
805.043	48.32
805.432	48.31
805.821	48.31
806.21	48.31
806.599	48.28
806.988	48.31
807.377	48.29
807.766	48.3
808.155	48.31
808.544	48.33
808.933	48.35
809.321	48.35
809.71	48.36
810.098	48.35
810.487	48.34
810.875	48.39
811.264	48.37
811.652	48.4
812.04	48.39
812.428	48.39
812.816	48.39
813.204	48.38
813.592	48.35
813.98	48.37
814.368	48.37
814.756	48.39
815.144	48.37
815.531	48.37
815.919	48.33
816.306	48.36
816.694	48.34
817.081	48.33
817.469	48.36
817.856	48.36
818.243	48.33
818.63	48.33
819.017	48.33
819.404	48.31
819.791	48.3
820.178	48.31
820.565	48.28
820.952	48.29
821.339	48.28
821.725	48.26
822.112	48.28
822.498	48.3
822.885	48.31
823.271	48.31
823.657	48.3
824.044	48.31
824.43	48.32
824.816	48.33
825.202	48.34
825.588	48.36
825.974	48.37
826.36	48.37
826.746	48.37
827.132	48.38
827.517	48.4
827.903	48.44
828.289	48.45
828.674	48.43
829.06	48.42
829.445	48.43
829.83	48.44
830.216	48.42
830.601	48.41
830.986	48.42
831.371	48.41
831.756	48.43
832.141	48.41
832.526	48.42
832.911	48.43
833.295	48.46
833.68	48.49
834.065	48.49
834.449	48.51
834.834	48.53
835.218	48.53
835.603	48.53
835.987	48.52
836.371	48.54
836.755	48.53
837.139	48.53
837.524	48.53
837.908	48.54
838.291	48.55
838.675	48.56
839.059	48.57
839.443	48.56
839.827	48.56
840.21	48.56
840.594	48.57
840.977	48.55
841.361	48.57
841.744	48.54
842.127	48.51
842.511	48.49
842.894	48.47
843.277	48.46
843.66	48.45
844.043	48.46
844.426	48.46
844.809	48.45
845.191	48.47
845.574	48.47
845.957	48.48
846.339	48.5
846.722	48.5
847.104	48.52
847.487	48.53
847.869	48.54
848.252	48.55
848.634	48.55
849.016	48.56
849.398	48.56
849.78	48.54
850.162	48.54
850.544	48.52
850.926	48.52
851.307	48.51
851.689	48.49
852.071	48.51
852.452	48.5
852.834	48.51
853.215	48.51
853.597	48.53
853.978	48.54
854.359	48.57
854.741	48.58
855.122	48.58
855.503	48.59
855.884	48.6
856.265	48.57
856.646	48.59
857.026	48.59
857.407	48.58
857.788	48.57
858.169	48.59
858.549	48.59
858.93	48.6
859.31	48.6
859.69	48.61
860.071	48.62
860.451	48.62
860.831	48.61
861.211	48.58
861.591	48.58
861.971	48.56
862.351	48.57
862.731	48.55
863.111	48.53
863.491	48.54
863.87	48.52
864.25	48.51
864.629	48.53
865.009	48.52
865.388	48.53
865.768	48.55
866.147	48.56
866.526	48.53
866.905	48.56
867.284	48.57
867.663	48.57
868.042	48.58
868.421	48.59
868.8	48.59
869.179	48.61
869.558	48.61
869.936	48.59
870.315	48.56
870.693	48.6
871.072	48.6
871.45	48.6
871.828	48.61
872.207	48.6
872.585	48.57
872.963	48.58
873.341	48.58
873.719	48.6
874.097	48.63
874.475	48.66
874.853	48.64
875.23	48.63
875.608	48.65
875.986	48.67
876.363	48.67
876.741	48.72
877.118	48.72
877.495	48.73
877.873	48.74
878.25	48.74
878.627	48.74
879.004	48.74
879.381	48.77
879.758	48.75
880.135	48.72
880.512	48.72
880.889	48.71
881.265	48.67
881.642	48.66
882.019	48.65
882.395	48.63
882.772	48.63
883.148	48.61
883.524	48.58
883.901	48.58
884.277	48.56
884.653	48.55
885.029	48.54
885.405	48.54
885.781	48.52
886.157	48.53
886.532	48.54
886.908	48.51
887.284	48.49
887.659	48.47
888.035	48.46
888.411	48.45
888.786	48.46
889.161	48.47
889.537	48.5
889.912	48.5
890.287	48.49
890.662	48.46
891.037	48.49
891.412	48.5
891.787	48.5
892.162	48.48
892.536	48.5
892.911	48.49
893.286	48.48
893.66	48.45
894.035	48.46
894.409	48.47
894.784	48.48
895.158	48.47
895.532	48.49
895.906	48.49
896.281	48.49
896.655	48.49
897.029	48.51
897.402	48.51
897.776	48.53
898.15	48.55
898.524	48.56
898.898	48.56
899.271	48.56
899.645	48.55
900.018	48.57
900.392	48.6
900.765	48.62
901.138	48.61
901.511	48.61
901.884	48.6
902.258	48.57
902.631	48.55
903.003	48.56
903.376	48.58
903.749	48.57
904.122	48.59
904.495	48.59
904.867	48.58
905.24	48.61
905.612	48.61
905.985	48.61
906.357	48.59
906.729	48.59
907.102	48.58
907.474	48.57
907.846	48.58
908.218	48.57
908.59	48.56
908.962	48.56
909.334	48.55
909.705	48.57
910.077	48.56
910.449	48.6
910.82	48.61
911.192	48.62
911.563	48.59
911.935	48.56
912.306	48.55
912.677	48.55
913.048	48.56
913.419	48.54
913.79	48.51
914.161	48.53
914.532	48.53
914.903	48.53
915.274	48.53
915.645	48.55
916.015	48.57
916.386	48.58
916.756	48.6
917.127	48.59
917.497	48.59
917.868	48.62
918.238	48.6
918.608	48.62
918.978	48.62
919.348	48.62
919.718	48.61
920.088	48.65
920.458	48.66
920.828	48.63
921.198	48.63
921.567	48.63
921.937	48.65
922.306	48.63
922.676	48.6
923.045	48.61
923.415	48.58
923.784	48.57
924.153	48.57
924.522	48.56
924.891	48.56
925.26	48.55
925.629	48.56
925.998	48.51
926.367	48.54
926.736	48.5
927.104	48.51
927.473	48.52
927.842	48.51
928.21	48.5
928.578	48.44
928.947	48.47
929.315	48.44
929.683	48.43
930.051	48.45
930.42	48.42
930.788	48.45
931.156	48.42
931.523	48.4
931.891	48.43
932.259	48.43
932.627	48.47
932.994	48.43
933.362	48.4
933.729	48.4
934.097	48.4
934.464	48.43
934.831	48.43
935.199	48.46
935.566	48.52
935.933	48.46
936.3	48.44
936.667	48.44
937.034	48.5
937.401	48.56
937.767	48.59
938.134	48.58
938.501	48.6
938.867	48.63
939.234	48.58
939.6	48.53
939.967	48.54
940.333	48.54
940.699	48.59
941.065	48.56
941.431	48.56
941.798	48.54
942.163	48.54
942.529	48.45
942.895	48.47
943.261	48.46
943.627	48.43
943.992	48.49
944.358	48.49
944.723	48.45
945.089	48.38
945.454	48.39
945.82	48.39
946.185	48.37
946.55	48.35
946.915	48.32
947.28	48.29
947.645	48.28
948.01	48.24
948.375	48.19
948.74	48.17
949.104	48.21
949.469	48.16
949.834	48.1
950.198	48.1
950.562	48.08
950.927	48.03
951.291	47.98
951.655	47.93
952.02	47.9
952.384	47.91
952.748	47.86
953.112	47.82
953.476	47.79
953.839	47.78
954.203	47.72
954.567	47.75
954.931	47.75
955.294	47.78
955.658	47.87
956.021	47.85
956.385	47.82
956.748	47.84
957.111	47.81
957.474	47.79
957.837	47.7
958.2	47.73
958.563	47.73
958.926	47.76
959.289	47.76
959.652	47.65
960.015	47.66
960.377	47.64
960.74	47.69
961.102	47.67
961.465	47.72
961.827	47.84
962.189	47.91
962.552	47.9
962.914	47.87
963.276	47.88
963.638	47.93
964	47.92
964.362	47.98
964.724	47.91
965.085	47.94
965.447	47.95
965.809	47.92
966.17	47.82
966.532	47.77
966.893	47.76
967.255	47.76
967.616	47.74
967.977	47.78
968.338	47.69
968.699	47.68
969.061	47.72
969.421	47.7
969.782	47.7
970.143	47.73
970.504	47.78
970.865	47.85
971.225	47.82
971.586	47.83
971.946	47.79
972.307	47.85
972.667	47.88
973.027	47.8
973.388	47.81
973.748	47.79
974.108	47.82
974.468	47.77
974.828	47.71
975.188	47.69
975.548	47.65
975.907	47.71
976.267	47.75
976.627	47.73
976.986	47.74
977.346	47.65
977.705	47.64
978.064	47.59
978.424	47.65
978.783	47.59
979.142	47.63
979.501	47.64
979.86	47.58
980.219	47.57
980.578	47.61
980.937	47.7
981.296	47.78
981.654	47.74
982.013	47.78
982.371	47.74
982.73	47.79
983.088	47.71
983.447	47.74
983.805	47.76
984.163	47.71
984.521	47.58
984.879	47.48
985.237	47.44
985.595	47.51
985.953	47.49
986.311	47.45
986.669	47.44
987.026	47.47
987.384	47.51
987.741	47.42
988.099	47.43
988.456	47.47
988.814	47.48
989.171	47.5
989.528	47.45
989.885	47.4
990.242	47.46
990.599	47.51
990.956	47.56
991.313	47.55
991.67	47.54
992.027	47.65
992.383	47.71
992.74	47.81
993.096	47.72
993.453	47.65
993.809	47.66
994.165	47.67
994.522	47.7
994.878	47.67
995.234	47.71
995.59	47.67
995.946	47.6
996.302	47.65
996.658	47.61
997.013	47.63
997.369	47.7
997.725	47.72
998.08	47.76
998.436	47.66
998.791	47.74
999.147	47.62
999.502	47.66
999.857	47.6
1000.212	47.61
1000.567	47.48
1000.922	47.5
1001.277	47.52
1001.632	47.47
1001.987	47.41
1002.342	47.38
1002.696	47.32
1003.051	47.56
1003.406	47.73
1003.76	47.69
1004.114	47.6
1004.469	47.76
1004.823	47.97
1005.177	47.83
1005.531	47.96
1005.885	47.92
1006.239	48
1006.593	48.07
1006.947	47.92
1007.301	47.77
1007.655	47.83
1008.008	47.9
1008.362	47.79
1008.715	47.58
1009.069	47.77
1009.422	47.66
1009.776	47.72
1010.129	47.66
1010.482	47.62
1010.835	47.58
1011.188	47.66
1011.541	47.69
1011.894	47.68
1012.247	47.7
1012.6	47.87
1012.952	47.83
1013.305	47.98
1013.657	47.92
1014.01	47.99
1014.362	47.89
1014.715	48
1015.067	48.05
1015.419	48.02
1015.771	47.94
1016.123	48.03
1016.475	48.06
1016.827	48.07
1017.179	47.96
1017.531	48.05
1017.883	48.08
1018.234	48.2
1018.586	48.26
1018.938	48.33
1019.289	48.37
1019.64	48.47
1019.992	48.42
1020.343	48.34
1020.694	48.31
1021.045	48.45
1021.396	48.36
1021.747	48.48
1022.098	48.59
1022.449	48.4
1022.8	48.27
1023.151	48.28
1023.501	48.28
1023.852	48.24
1024.202	48.15
1024.553	48.1
1024.903	48.07
1025.253	48.39
1025.604	48.27
1025.954	47.89
1026.304	47.95
1026.654	48.07
1027.004	47.97
1027.354	47.99
1027.703	47.92
1028.053	47.86
1028.403	48
1028.753	47.68
1029.102	47.52
1029.452	47.5
1029.801	47.75
1030.15	47.72
1030.499	47.5
897.758	1264.15
901.051	1273.45
904.343	1264.52
907.636	1288.48
910.928	1252.07
914.22	1252.21
917.511	1234.9
920.803	1182.49
924.094	1175.64
927.384	1146.4
930.675	1102.07
933.965	1095.04
937.255	1030.89
940.544	992.3
943.834	942.32
947.123	936.14
950.411	881.32
953.7	862.09
956.988	815.31
960.276	783.37
963.563	770.36
966.851	744.96
970.138	739.47
973.424	715.4
976.711	719.58
979.997	684.73
983.283	681.35
986.568	667.14
989.853	646.12
993.138	634.64
996.423	610.02
999.708	593.86
1002.992	587.88
1006.275	559.67
1009.559	554.97
1012.842	534.69
1016.125	520.85
1019.408	511.91
1022.69	504.41
1025.972	495.16
1029.254	483.33
1032.536	475.65
1035.817	466.05
1039.098	460.09
1042.379	452.14
1045.659	446.92
1048.939	436.39
1052.219	428.41
1055.498	420.85
1058.778	411.4
1062.057	402.41
1065.335	398.61
1068.614	393.18
1071.892	388.88
1075.17	375.71
1078.447	367.92
1081.724	364.77
1085.001	363.11
1088.278	354.57
1091.554	347.82
1094.83	348.33
1098.106	345.61
1101.382	342.67
1104.657	340.93
1107.932	334.81
1111.206	337.64
1114.481	329.93
1117.755	327.29
1121.029	323.51
1124.302	324.03
1127.575	317.24
1130.848	313.75
1134.121	310.6
1137.393	308.56
1140.665	301.94
1143.937	300.31
1147.208	297.81
1150.48	297.24
1153.75	293.15
1157.021	289.78
1160.291	289.22
1163.561	287.2
1166.831	286.82
1170.101	284.33
1173.37	284.29
1176.639	284.91
1179.907	282.4
1183.176	278.95
1186.444	279.13
1189.711	278.65
1192.979	277.29
1196.246	276.21
1199.513	276.69
1202.78	274.87
1206.046	274.67
1209.312	272.55
1212.578	272.27
1215.843	275.21
1219.108	273.5
1222.373	278.93
1225.638	280.91
1228.902	284.88
1232.166	285.32
1235.43	287.84
1238.693	291.32
1241.956	293.4
1245.219	297.14
1248.482	296.97
1251.744	295.99
1255.006	298.35
1258.268	289.62
1261.529	287.46
1264.79	285.85
1268.051	284.01
1271.312	280.43
1274.572	277.39
1277.832	274.22
1281.092	270.45
1284.351	269.09
1287.61	269.09
1290.869	264.52
1294.128	264.02
1297.386	263.79
1300.644	260.15
1303.902	261.25
1307.159	260.21
1310.416	260.46
1313.673	260.51
1316.93	262.24
1320.186	261.83
1323.442	262.72
1326.697	267.1
1329.953	267.96
1333.208	268.8
1336.463	273.13
1339.717	272.83
1342.972	276.62
1346.226	278.43
1349.479	279.12
1352.733	280.92
1355.986	282.92
1359.238	282.75
1362.491	284.32
1365.743	287.21
1368.995	287.24
1372.247	285.71
1375.498	286.1
1378.749	287.97
1382	285.49
1385.251	285.97
1388.501	284.35
1391.751	285.17
1395	283.63
1398.25	281.86
1401.499	279.95
1404.748	279.71
1407.996	278.35
1411.244	276.71
1414.492	275.35
1417.74	272.98
1420.987	268.75
1424.234	268.41
1427.481	265.17
1430.728	264.99
1433.974	262.39
1437.22	260.45
1440.465	259.82
1443.711	257.41
1446.956	255.45
1450.201	252.32
1453.445	249.79
1456.689	249.75
1459.933	246.26
1463.177	243.75
1466.42	239.89
1469.663	237.16
1472.906	235.87
1476.148	229.82
1479.391	227.02
1482.633	225.57
1485.874	222.16
1489.115	220.93
1492.356	218.31
1495.597	217.44
1498.838	214.89
1502.078	214.08
1505.318	212.82
1508.557	212.68
1511.797	212.64
1515.036	211.38
1518.274	210.66
1521.513	209.11
1524.751	208.57
1527.989	208.09
1531.227	207.04
1534.464	207.53
1537.701	205.51
1540.938	205.08
1544.174	202.82
1547.41	202.55
1550.646	201.81
1553.882	201.84
1557.117	199.31
1560.352	198.45
1563.587	198.12
1566.821	196.38
1570.055	194.68
1573.289	193.48
1576.523	193.27
1579.756	191.77
1582.989	190.51
1586.222	190.18
1589.454	189.16
1592.686	190.34
1595.918	189.39
1599.15	188.46
1602.381	189.55
1605.612	189.15
1608.843	189.79
1612.073	189.37
1615.303	190.13
1618.533	190.41
1621.762	190.06
1624.992	190.31
1628.221	189.89
1631.449	189.94
1634.678	189.11
1637.906	189.56
1641.134	189.39
1644.361	189.44
1647.588	189.7
1650.815	188.9
1654.042	188.11
1657.269	189.41
1660.495	189.09
1663.72	188.74
1666.946	189.49
1670.171	190.27
1673.396	189.74
1676.621	190.24
1679.845	190.45
1683.069	190.75
1686.293	192.32
1689.517	193.39
1692.74	192.96
1695.963	193.28
1699.185	195.29
1702.408	194.74
1705.63	195.75
1708.852	196.28
1712.073	196.64
1715.294	197.15
1718.515	198.15
1721.736	197.24
1724.956	197.76
1728.176	197.83
1731.396	199.66
1734.616	198.8
1737.835	200.17
1741.054	198.3
1744.272	199.19
1747.491	200.72
1750.709	200.81
1753.927	200.6
1757.144	200.8
1760.361	201.47
1763.578	202.03
1766.795	201.45
1770.011	203.08
1773.227	202.52
1776.443	205.56
1779.658	205.92
1782.874	205.48
1786.089	206.28
1789.303	206.89
1792.518	208.79
1795.732	209.03
1798.945	210.74
1802.159	211.23
1805.372	211.38
1808.585	215.37
1811.797	215.81
1815.01	216.42
1818.222	218.25
1821.434	219.79
1824.645	220.57
1827.856	224.17
1831.067	225.86
1834.278	225.27
1837.488	227
1840.698	228.92
1843.908	226.67
1847.117	227.45
1850.326	228.57
1853.535	228.1
1856.744	231.27
1859.952	231.8
1863.16	229.85
1866.368	228.27
1869.575	230.9
1872.782	226.46
1875.989	226.04
1879.196	224.77
1882.402	223.74
1885.608	224.23
1888.814	224.05
1892.019	222.98
1895.224	221.13
1898.429	221.05
1901.634	222.13
1904.838	221.08
1908.042	223.81
1911.246	223.69
1914.449	225.55
1917.652	224.88
1920.855	224.1
1924.058	224.34
1927.26	223.13
1930.462	224.3
1933.664	225.99
1936.865	224.1
1940.066	224.4
1943.267	223.24
1946.467	222.7
1949.668	223.82
1952.868	226.79
1956.067	227.22
1959.267	227.69
1962.466	228.65
1965.665	227.97
1968.863	228.35
1972.061	231.95
1975.259	233.97
1978.457	236.4
1981.654	238.79
1984.852	239.34
1988.048	238.71
1991.245	240.94
1994.441	244.02
1997.637	245.19
2000.833	250.43
2004.028	253.53
2007.223	254.13
2010.418	256.96
2013.613	260.75
2016.807	263.48
2020.001	265.61
2023.194	269.9
2026.388	275.29
2029.581	282.08
2032.774	284.74
2035.966	290.02
2039.158	290.91
2042.35	297.54
2045.542	299.07
2048.733	303.57
2051.924	307.63
2055.115	313.33
2058.306	313.99
2061.496	317.76
2064.686	315.7
2067.875	321.72
2071.065	322.33
2074.254	320.65
2077.442	325.43
2080.631	326.67
2083.819	330.06
2087.007	330.73
2090.195	334.61
2093.382	337.09
2096.569	335.03
2099.756	340.4
2102.942	341.35
2106.128	344.63
2109.314	353.06
2112.5	350.45
2115.685	358.3
2118.87	358.6
2122.055	364.64
2125.239	367.42
2128.424	372.26
2131.608	375.11
2134.791	381.48
2137.974	382.96
2141.157	383.61
2144.34	384.48
2147.523	389.96
2150.705	387.76
2153.887	391.64
2157.068	393.04
2160.25	389.64
2163.431	391.21
2166.611	395.81
2169.792	402.49
2172.972	406.24
2176.152	408.48
2179.331	413.51
2182.511	421.02
2185.69	424.73
2188.868	432.76
2192.047	433.69
2195.225	446.12
2198.403	456.72
2201.58	464.5
2204.758	471.29
2207.935	481.15
2211.111	490.71
2214.288	496.21
2217.464	495.86
2220.64	506.18
2223.815	513.97
2226.991	532.13
2230.166	532.11
2233.34	541.93
2236.515	550.98
2239.689	553.29
2242.863	557.1
2246.036	572.36
2249.209	569.1
2252.382	579.55
2255.555	594.92
2258.727	595.93
2261.9	603.78
2265.071	609.99
2268.243	619.04
2271.414	625.7
2274.585	638.94
2277.756	645.22
2280.926	649.79
2284.096	663.45
2287.266	677.98
2290.436	681.33
2293.605	697.68
2296.774	714.55
2299.942	737
2303.111	742.1
2306.279	757.98
2309.447	767.84
2312.614	786.04
2315.781	807.86
2318.948	845.71
2322.115	834.07
2325.281	879.33
2328.447	861.81
2331.613	898.05
2334.779	886.37
2337.944	924.79
2341.109	933.74
2344.274	961.58
2347.438	994.96
2350.602	992.94
2353.766	1021.6
2356.929	1036.02
2360.092	1031.8
2363.255	1103.46
2366.418	1101.78
2369.58	1125.66
2372.742	1192.4
2375.904	1222.99
2379.066	1213.61
2382.227	1193.12
2385.388	1297.81
2388.548	1296.45
2391.709	1315.32
2394.869	1459.09
2398.029	1401.97
2401.188	1440.65
2404.347	1430.12
2407.506	1406.8
2410.665	1448.59
2413.823	1532.25
2416.981	1623.98
2420.139	1567.44
2423.296	1554.13
2426.453	1615.29
2429.61	1561.91
2432.767	1626.09
2435.923	1608.28
2439.079	1761.17
2442.235	1784.89
2445.391	1767.81
2448.546	1754.45
2451.701	1700.58
2454.855	1698.05
2458.009	1801.96
2461.163	1880.32
2464.317	1946.91
2467.471	2001.25
2470.624	2003.71
2473.777	1950.96
2476.929	1903.65
2480.082	1844.65
2483.234	1827.89
2486.385	1922.86
2489.537	1933.12
2492.688	2000.55
2495.839	1948.06
2498.989	1899.97
2502.14	1912.04
2505.29	1924.71
2508.439	1961.2
2511.589	1953.76
2514.738	2133.77
2517.887	2086.79
2521.035	2202.02
2524.183	2222.48
2527.331	2241.85
2530.479	2227.47
2533.627	2246.61
