Data from N_2_DIV_OH_2N_Splice17_13-23-49-822.txt Node
Date: Sat Mar 07 13:23:49 EST 2020
User: sa697716
Spectrometer: NQ5500242
Trigger mode: 0
Integration Time (sec): 1.450000E-1
Scans to average: 20
Nonlinearity correction enabled: false
Boxcar width: 5
Storing dark spectrum: false
XAxis mode: Wavelengths
Number of Pixels in Spectrum: 512
>>>>>Begin Spectral Data<<<<<
187.83	177.87
188.298	205.65
188.766	172.85
189.233	155.57
189.701	170.12
190.169	194.68
190.636	193.8
191.104	340.03
191.571	318.31
192.039	191.97
192.506	558.99
192.974	-5.58
193.441	246.62
193.908	70.22
194.375	93.47
194.842	88.31
195.31	172.68
195.777	156.62
196.244	63.2
196.711	47.42
197.177	48.46
197.644	47.79
198.111	46.91
198.578	45.97
199.045	46.08
199.511	46.08
199.978	45.93
200.445	45.73
200.911	45.68
201.378	45.76
201.844	45.84
202.31	45.47
202.777	45.4
203.243	45.62
203.709	45.21
204.176	44.89
204.642	44.54
205.108	44.58
205.574	44.41
206.04	44.01
206.506	43.52
206.972	43.32
207.438	42.81
207.903	42.14
208.369	41.1
208.835	40.44
209.301	39.49
209.766	38.41
210.232	37.17
210.697	35.81
211.163	34.96
211.628	33.96
212.094	32.94
212.559	32.28
213.024	31.58
213.49	30.91
213.955	30.25
214.42	29.57
214.885	28.68
215.35	27.63
215.815	26.49
216.28	24.56
216.745	22.57
217.21	20.63
217.675	18.66
218.14	16.98
218.604	15.51
219.069	14.27
219.534	13.25
219.998	12.35
220.463	11.72
220.927	10.97
221.392	10.52
221.856	10.14
222.32	9.77
222.785	9.48
223.249	9.19
223.713	8.96
224.177	8.76
224.642	8.55
225.106	8.37
225.57	8.14
226.034	8.03
226.497	7.9
226.961	7.73
227.425	7.61
227.889	7.48
228.353	7.37
228.816	7.23
229.28	7.11
229.744	7.01
230.207	6.92
230.671	6.83
231.134	6.72
231.597	6.63
232.061	6.53
232.524	6.43
232.987	6.35
233.45	6.29
233.914	6.2
234.377	6.14
234.84	6.07
235.303	5.99
235.766	5.94
236.229	5.88
236.691	5.8
237.154	5.76
237.617	5.7
238.08	5.64
238.542	5.58
239.005	5.54
239.468	5.48
239.93	5.43
240.393	5.38
240.855	5.31
241.317	5.25
241.78	5.21
242.242	5.15
242.704	5.11
243.166	5.05
243.629	5.01
244.091	4.94
244.553	4.9
245.015	4.84
245.477	4.79
245.939	4.75
246.4	4.71
246.862	4.66
247.324	4.62
247.786	4.58
248.247	4.53
248.709	4.48
249.17	4.43
249.632	4.41
250.093	4.37
250.555	4.34
251.016	4.3
251.477	4.27
251.939	4.24
252.4	4.2
252.861	4.17
253.322	4.15
253.783	4.12
254.244	4.11
254.705	4.07
255.166	4.04
255.627	4.02
256.088	4
256.549	3.97
257.009	3.93
257.47	3.91
257.931	3.87
258.391	3.83
258.852	3.8
259.312	3.76
259.773	3.72
260.233	3.7
260.694	3.67
261.154	3.63
261.614	3.61
262.074	3.58
262.534	3.56
262.994	3.54
263.455	3.52
263.915	3.5
264.374	3.47
264.834	3.46
265.294	3.43
265.754	3.41
266.214	3.39
266.673	3.37
267.133	3.36
267.593	3.35
268.052	3.33
268.512	3.32
268.971	3.31
269.431	3.29
269.89	3.28
270.349	3.27
270.809	3.26
271.268	3.25
271.727	3.24
272.186	3.22
272.645	3.21
273.104	3.2
273.563	3.19
274.022	3.18
274.481	3.17
274.94	3.17
275.399	3.15
275.857	3.14
276.316	3.13
276.775	3.12
277.233	3.11
277.692	3.11
278.15	3.09
278.609	3.09
279.067	3.08
279.525	3.08
279.984	3.07
280.442	3.07
280.9	3.07
281.358	3.07
281.816	3.07
282.274	3.07
282.732	3.06
283.19	3.06
283.648	3.05
284.106	3.04
284.564	3.04
285.021	3.03
285.479	3.02
285.937	3.01
286.394	3
286.852	2.99
287.309	2.97
287.767	2.96
288.224	2.95
288.682	2.94
289.139	2.92
289.596	2.9
290.053	2.88
290.511	2.87
290.968	2.86
291.425	2.84
291.882	2.83
292.339	2.82
292.796	2.81
293.252	2.81
293.709	2.8
294.166	2.8
294.623	2.79
295.079	2.78
295.536	2.77
295.992	2.76
296.449	2.76
296.905	2.75
297.362	2.74
297.818	2.73
298.274	2.73
298.731	2.72
299.187	2.71
299.643	2.71
300.099	2.7
300.555	2.7
301.011	2.69
301.467	2.68
301.923	2.68
302.379	2.68
302.835	2.68
303.291	2.67
303.746	2.66
304.202	2.67
304.658	2.67
305.113	2.67
305.569	2.67
306.024	2.67
306.479	2.66
306.935	2.66
307.39	2.66
307.845	2.66
308.301	2.67
308.756	2.67
309.211	2.66
309.666	2.66
310.121	2.66
310.576	2.66
311.031	2.66
311.486	2.67
311.94	2.68
312.395	2.68
312.85	2.67
313.305	2.67
313.759	2.68
314.214	2.68
314.668	2.67
315.123	2.66
315.577	2.66
316.032	2.65
316.486	2.65
316.94	2.64
317.394	2.64
317.849	2.62
318.303	2.61
318.757	2.6
319.211	2.59
319.665	2.58
320.119	2.57
320.572	2.56
321.026	2.55
321.48	2.54
321.934	2.52
322.387	2.51
322.841	2.51
323.295	2.51
323.748	2.51
324.202	2.51
324.655	2.51
325.108	2.52
325.562	2.52
326.015	2.53
326.468	2.53
326.921	2.53
327.374	2.53
327.827	2.54
328.28	2.54
328.733	2.54
329.186	2.54
329.639	2.54
330.092	2.54
330.545	2.53
330.997	2.53
331.45	2.54
331.903	2.55
332.355	2.55
332.808	2.55
333.26	2.56
333.713	2.55
334.165	2.56
334.617	2.56
335.069	2.55
335.522	2.56
335.974	2.56
336.426	2.56
336.878	2.55
337.33	2.55
337.782	2.54
338.234	2.55
338.686	2.54
339.137	2.55
339.589	2.54
340.041	2.54
340.493	2.53
340.944	2.51
341.396	2.51
341.847	2.5
342.299	2.49
342.75	2.49
343.201	2.47
343.653	2.46
344.104	2.44
344.555	2.43
345.006	2.41
345.457	2.41
345.908	2.4
346.359	2.41
346.81	2.4
347.261	2.4
347.712	2.39
348.163	2.39
348.613	2.4
349.064	2.4
349.515	2.4
349.965	2.4
350.416	2.4
350.866	2.4
351.317	2.39
351.767	2.39
352.217	2.39
352.668	2.39
353.118	2.4
353.568	2.39
354.018	2.39
354.468	2.39
354.918	2.39
355.368	2.39
355.818	2.4
356.268	2.4
356.718	2.4
357.168	2.4
357.617	2.39
358.067	2.38
358.517	2.4
358.966	2.41
359.416	2.42
359.865	2.42
360.315	2.42
360.764	2.42
361.213	2.42
361.663	2.41
362.112	2.42
362.561	2.43
363.01	2.44
363.459	2.42
363.908	2.42
364.357	2.42
364.806	2.41
365.255	2.42
365.703	2.42
366.152	2.43
366.601	2.43
367.05	2.44
367.498	2.44
367.947	2.45
368.395	2.47
368.844	2.47
369.292	2.48
369.74	2.49
370.189	2.5
370.637	2.5
371.085	2.5
371.533	2.51
371.981	2.51
372.429	2.51
372.877	2.52
373.325	2.52
373.773	2.53
374.221	2.53
374.669	2.54
375.116	2.54
375.564	2.54
376.012	2.56
376.459	2.57
376.907	2.59
377.354	2.6
377.801	2.62
378.249	2.64
378.696	2.64
379.143	2.65
379.591	2.67
380.038	2.69
380.485	2.71
380.932	2.72
381.379	2.74
381.826	2.76
382.273	2.76
382.72	2.76
383.166	2.78
383.613	2.79
384.06	2.81
384.506	2.82
384.953	2.84
385.4	2.85
385.846	2.88
386.292	2.89
386.739	2.9
387.185	2.92
387.631	2.94
388.078	2.96
388.524	2.98
388.97	3
389.416	3.01
389.862	3.03
390.308	3.05
390.754	3.07
391.2	3.1
391.645	3.13
392.091	3.15
392.537	3.18
392.983	3.2
393.428	3.22
393.874	3.24
394.319	3.26
394.765	3.28
395.21	3.29
395.655	3.3
396.101	3.31
396.546	3.31
396.991	3.33
397.436	3.34
397.881	3.37
398.326	3.38
398.771	3.4
399.216	3.42
399.661	3.44
400.106	3.46
400.551	3.48
400.995	3.48
401.44	3.49
401.885	3.5
402.329	3.51
402.774	3.51
403.218	3.53
403.663	3.55
404.107	3.55
404.551	3.56
404.995	3.56
405.44	3.56
405.884	3.57
406.328	3.58
406.772	3.58
407.216	3.59
407.66	3.59
408.104	3.58
408.547	3.58
408.991	3.58
409.435	3.58
409.879	3.59
410.322	3.6
410.766	3.62
411.209	3.64
411.653	3.66
412.096	3.68
412.54	3.69
412.983	3.7
413.426	3.73
413.869	3.75
414.312	3.77
414.756	3.79
415.199	3.8
415.642	3.79
416.085	3.78
416.527	3.78
416.97	3.76
417.413	3.76
417.856	3.76
418.298	3.74
418.741	3.74
419.184	3.73
419.626	3.72
420.069	3.72
420.511	3.73
420.953	3.73
421.396	3.74
421.838	3.74
422.28	3.75
422.722	3.78
423.164	3.79
423.606	3.8
424.048	3.8
424.49	3.79
424.932	3.79
425.374	3.76
425.816	3.75
426.258	3.73
426.699	3.72
427.141	3.71
427.582	3.69
428.024	3.7
428.465	3.71
428.907	3.71
429.348	3.71
429.789	3.71
430.231	3.74
430.672	3.78
431.113	3.81
431.554	3.83
431.995	3.83
432.436	3.85
432.877	3.84
433.318	3.85
433.759	3.88
434.2	3.89
434.64	3.92
435.081	3.93
435.522	3.94
435.962	3.94
436.403	3.96
436.843	3.98
437.284	3.97
437.724	3.98
438.164	3.98
438.604	3.97
439.045	3.97
439.485	3.97
439.925	3.97
440.365	3.97
440.805	3.99
441.245	4
441.685	4.01
442.125	4.03
442.564	4.04
443.004	4.05
443.444	4.07
443.883	4.08
444.323	4.08
444.762	4.08
445.202	4.08
445.641	4.08
446.081	4.09
446.52	4.09
446.959	4.11
447.398	4.14
447.837	4.15
448.276	4.16
448.716	4.16
449.154	4.18
449.593	4.19
450.032	4.19
450.471	4.19
450.91	4.18
451.349	4.18
451.787	4.17
452.226	4.15
452.664	4.14
453.103	4.11
453.541	4.1
453.98	4.1
454.418	4.08
454.856	4.08
455.295	4.07
455.733	4.06
456.171	4.05
456.609	4.05
457.047	4.04
457.485	4.03
457.923	4.03
458.361	4.03
458.798	4.03
459.236	4.02
459.674	4.01
460.111	4.01
460.549	4.02
460.987	4.03
461.424	4.03
461.862	4.03
462.299	4.04
462.736	4.04
463.173	4.05
463.611	4.05
464.048	4.06
464.485	4.07
464.922	4.07
465.359	4.08
465.796	4.08
466.233	4.09
466.67	4.09
467.106	4.11
467.543	4.11
467.98	4.11
468.416	4.1
468.853	4.09
469.29	4.08
469.726	4.08
470.162	4.08
470.599	4.07
471.035	4.05
471.471	4.03
471.907	4.02
472.344	4.01
472.78	4.01
473.216	3.99
473.652	4
474.088	3.99
474.523	3.98
474.959	3.97
475.395	3.95
475.831	3.96
476.266	3.97
476.702	3.96
477.138	3.95
477.573	3.94
478.008	3.95
478.444	3.94
478.879	3.95
479.314	3.95
479.75	3.93
480.185	3.92
480.62	3.91
481.055	3.91
481.49	3.9
481.925	3.89
482.36	3.89
482.795	3.88
483.229	3.87
483.664	3.87
484.099	3.85
484.534	3.85
484.968	3.85
485.403	3.86
485.837	3.86
486.271	3.87
486.706	3.87
487.14	3.88
487.574	3.89
488.009	3.89
488.443	3.89
488.877	3.91
489.311	3.93
489.745	3.95
490.179	3.96
490.613	3.99
491.046	4
491.48	4.03
491.914	4.06
492.348	4.08
492.781	4.12
493.215	4.16
493.648	4.19
494.082	4.23
494.515	4.26
494.948	4.3
495.382	4.33
495.815	4.38
496.248	4.42
496.681	4.48
497.114	4.53
497.547	4.58
497.98	4.64
498.413	4.69
498.846	4.75
499.279	4.82
499.711	4.89
500.144	4.96
500.577	5.04
501.009	5.12
501.442	5.19
501.874	5.28
502.306	5.37
502.739	5.47
503.171	5.56
503.603	5.66
504.036	5.77
504.468	5.88
504.9	5.99
505.332	6.11
505.764	6.23
506.196	6.36
506.627	6.49
507.059	6.64
507.491	6.77
507.923	6.93
508.354	7.11
508.786	7.27
509.217	7.45
509.649	7.62
510.08	7.8
510.512	7.99
510.943	8.18
511.374	8.37
511.805	8.57
512.237	8.78
512.668	8.99
513.099	9.19
513.53	9.4
513.961	9.61
514.391	9.84
514.822	10.07
515.253	10.29
515.684	10.52
516.114	10.76
516.545	10.99
516.975	11.24
517.406	11.47
517.836	11.72
518.267	11.98
518.697	12.21
519.127	12.43
519.558	12.67
519.988	12.91
520.418	13.14
520.848	13.36
521.278	13.59
521.708	13.98
522.138	14.21
522.567	14.42
522.997	14.62
523.427	14.85
523.857	15.06
524.286	15.25
524.716	15.46
525.145	15.66
525.575	15.86
526.004	16.03
526.433	16.03
526.863	16.19
527.292	16.36
527.721	16.52
528.15	16.66
528.579	16.8
529.008	16.95
529.437	17.08
529.866	17.21
530.295	17.33
530.724	17.46
531.152	17.59
531.581	17.69
532.01	17.8
532.438	17.89
532.867	18
533.295	18.09
533.723	18.17
534.152	18.24
534.58	18.33
535.008	18.38
535.436	18.45
535.865	18.51
536.293	18.56
536.721	18.62
537.149	18.68
537.576	18.72
538.004	18.77
538.432	18.81
538.86	18.84
539.287	18.86
539.715	18.91
540.143	18.93
540.57	18.97
540.998	19
541.425	19.03
541.852	19.05
542.28	19.09
542.707	19.1
543.134	19.12
543.561	19.18
543.988	19.21
544.415	19.23
544.842	19.26
545.269	19.28
545.696	19.31
546.123	19.33
546.549	19.35
546.976	19.36
547.403	19.39
547.829	19.41
548.256	19.43
548.682	19.45
549.108	19.47
549.535	19.48
549.961	19.49
550.387	19.49
550.813	19.49
551.24	19.48
551.666	19.48
552.092	19.47
552.518	19.46
552.943	19.43
553.369	19.41
553.795	19.37
554.221	19.35
554.646	19.3
555.072	19.27
555.498	19.23
555.923	19.19
556.349	19.14
556.774	19.09
557.199	19.02
557.625	18.96
558.05	18.89
558.475	18.83
558.9	18.76
559.325	18.7
559.75	18.63
560.175	18.55
560.6	18.46
561.025	18.38
561.449	18.28
561.874	18.2
562.299	18.1
562.723	18
563.148	17.89
563.572	17.76
563.997	17.63
564.421	17.51
564.846	17.39
565.27	17.27
565.694	17.15
566.118	17.03
566.542	16.91
566.966	16.77
567.39	16.65
567.814	16.51
568.238	16.39
568.662	16.26
569.086	16.13
569.509	16
569.933	15.88
570.357	15.76
570.78	15.62
571.204	15.5
571.627	15.38
572.05	15.26
572.474	15.18
572.897	15.06
573.32	14.96
573.743	14.85
574.166	14.76
574.589	14.64
575.012	14.54
575.435	14.46
575.858	14.37
576.281	14.28
576.704	14.18
577.126	14.09
577.549	14
577.972	13.91
578.394	13.85
578.817	13.77
579.239	13.7
579.661	13.62
580.084	13.56
580.506	13.49
580.928	13.41
581.35	13.34
581.772	13.25
582.194	13.19
582.616	13.13
583.038	13.05
583.46	12.98
583.882	12.92
584.303	12.86
584.725	12.8
585.147	12.75
585.568	12.7
585.99	12.66
586.411	12.62
586.833	12.56
587.254	12.5
587.675	12.45
588.096	12.4
588.518	12.35
588.939	12.3
589.36	12.25
589.781	12.2
590.202	12.17
590.623	12.13
591.043	12.09
591.464	12.06
591.885	12.02
592.305	11.99
592.726	11.96
593.147	11.93
593.567	11.9
593.987	11.87
594.408	11.84
594.828	11.78
595.248	11.75
595.669	11.71
596.089	11.68
596.509	11.66
596.929	11.62
597.349	11.58
597.769	11.56
598.189	11.53
598.608	11.49
599.028	11.46
599.448	11.43
599.867	11.4
600.287	11.36
600.706	11.33
601.126	11.29
601.545	11.25
601.965	11.22
602.384	11.18
602.803	11.13
603.222	11.1
603.641	11.05
604.061	11.02
604.48	10.97
604.898	10.92
605.317	10.88
605.736	10.84
606.155	10.8
606.574	10.74
606.992	10.68
607.411	10.64
607.829	10.55
608.248	10.48
608.666	10.42
609.085	10.36
609.503	10.31
609.921	10.25
610.339	10.2
610.758	10.13
611.176	10.07
611.594	10.01
612.012	9.95
612.43	9.92
612.847	9.87
613.265	9.82
613.683	9.78
614.101	9.72
614.518	9.67
614.936	9.6
615.353	9.54
615.771	9.49
616.188	9.44
616.606	9.39
617.023	9.35
617.44	9.31
617.857	9.26
618.274	9.21
618.691	9.16
619.108	9.12
619.525	9.09
619.942	9.06
620.359	9.04
620.776	9
621.192	8.97
621.609	8.95
622.026	8.92
622.442	8.91
622.859	8.9
623.275	8.89
623.691	8.87
624.108	8.85
624.524	8.85
624.94	8.83
625.356	8.83
625.772	8.82
626.188	8.8
626.604	8.8
627.02	8.79
627.436	8.78
627.852	8.77
628.268	8.77
628.683	8.76
629.099	8.75
629.514	8.74
629.93	8.72
630.345	8.7
630.761	8.68
631.176	8.65
631.591	8.61
632.007	8.56
632.422	8.52
632.837	8.47
633.252	8.42
633.667	8.35
634.082	8.29
634.497	8.22
634.911	8.16
635.326	8.09
635.741	8.03
636.155	7.96
636.57	7.89
636.984	7.81
637.399	7.73
637.813	7.64
638.228	7.55
638.642	7.46
639.056	7.36
639.47	7.27
639.884	7.19
640.298	7.09
640.712	6.98
641.126	6.89
641.54	6.79
641.954	6.7
642.368	6.61
642.781	6.53
643.195	6.45
643.609	6.38
644.022	6.3
644.436	6.22
644.849	6.14
645.262	6.08
645.676	6.01
646.089	5.94
646.502	5.89
646.915	5.84
647.328	5.79
647.741	5.74
648.154	5.69
648.567	5.65
648.98	5.62
649.393	5.59
649.805	5.57
650.218	5.54
650.631	5.52
651.043	5.49
651.456	5.48
651.868	5.44
652.28	5.42
652.693	5.4
653.105	5.38
653.517	5.34
653.929	5.32
654.341	5.28
654.753	5.24
655.165	5.2
655.577	5.17
655.989	5.13
656.401	5.09
656.813	5.06
657.224	5.01
657.636	4.95
658.047	4.92
658.459	4.86
658.87	4.81
659.282	4.76
659.693	4.72
660.104	4.66
660.515	4.61
660.926	4.55
661.338	4.49
661.749	4.45
662.159	4.4
662.57	4.36
662.981	4.32
663.392	4.29
663.803	4.26
664.213	4.21
664.624	4.18
665.035	4.14
665.445	4.12
665.855	4.09
666.266	4.08
666.676	4.07
667.086	4.04
667.497	4.02
667.907	4.02
668.317	4
668.727	4
669.137	3.99
669.547	3.99
669.956	4
670.366	4
670.776	4
671.186	4
671.595	4.02
672.005	4.02
672.414	4.03
672.824	4.04
673.233	4.04
673.642	4.06
674.052	4.08
674.461	4.09
674.87	4.11
675.279	4.14
675.688	4.17
676.097	4.2
676.506	4.23
676.915	4.26
677.323	4.29
677.732	4.33
678.141	4.37
678.549	4.4
678.958	4.44
679.366	4.49
679.775	4.53
680.183	4.59
680.592	4.64
681	4.71
681.408	4.77
681.816	4.85
682.224	4.93
682.632	5.02
683.04	5.11
683.448	5.21
683.856	5.32
684.264	5.44
684.671	5.57
685.079	5.72
685.487	5.89
685.894	6.08
686.302	6.27
686.709	6.5
687.116	6.74
687.524	7
687.931	7.29
688.338	7.61
688.745	7.93
689.152	8.27
689.559	8.65
689.966	9.04
690.373	9.44
690.78	9.88
691.187	10.31
691.593	10.76
692	11.22
692.407	11.67
692.813	12.15
693.22	12.63
693.626	13.12
694.032	13.63
694.439	14.13
694.845	14.64
695.251	15.14
695.657	15.63
696.063	16.14
696.469	16.66
696.875	17.18
697.281	17.69
697.687	18.22
698.093	18.75
698.498	19.23
698.904	19.73
699.31	20.23
699.715	20.74
700.12	21.24
700.526	21.72
700.931	22.19
701.337	22.65
701.742	23.1
702.147	23.53
702.552	23.95
702.957	24.38
703.362	24.79
703.767	25.18
704.172	25.58
704.577	25.96
704.981	26.36
705.386	26.76
705.791	27.13
706.195	27.54
706.6	27.93
707.004	28.32
707.408	28.7
707.813	29.06
708.217	29.44
708.621	29.81
709.025	30.16
709.43	30.51
709.834	30.84
710.237	31.19
710.641	31.5
711.045	31.81
711.449	32.11
711.853	32.44
712.256	32.77
712.66	33.04
713.064	33.33
713.467	33.62
713.87	33.89
714.274	34.16
714.677	34.44
715.08	34.7
715.484	34.96
715.887	35.24
716.29	35.48
716.693	35.72
717.096	35.97
717.499	36.21
717.901	36.45
718.304	36.68
718.707	36.9
719.109	37.12
719.512	37.36
719.915	37.57
720.317	37.78
720.719	37.95
721.122	38.14
721.524	38.34
721.926	38.53
722.328	38.71
722.731	38.9
723.133	39.07
723.535	39.22
723.937	39.39
724.338	39.53
724.74	39.7
725.142	39.96
725.544	40.1
725.945	40.28
726.347	40.4
726.748	40.53
727.15	40.64
727.551	40.81
727.952	40.93
728.354	41.04
728.755	41.15
729.156	41.23
729.557	41.24
729.958	41.34
730.359	41.4
730.76	41.53
731.161	41.63
731.562	41.72
731.962	41.75
732.363	41.83
732.763	41.92
733.164	42.02
733.564	42.13
733.965	42.19
734.365	42.3
734.766	42.37
735.166	42.44
735.566	42.53
735.966	42.6
736.366	42.68
736.766	42.74
737.166	42.79
737.566	42.84
737.966	42.85
738.365	42.9
738.765	42.95
739.165	43
739.564	43.01
739.964	43.02
740.363	43.05
740.763	43.09
741.162	43.13
741.561	43.15
741.96	43.17
742.36	43.21
742.759	43.23
743.158	43.2
743.557	43.23
743.955	43.27
744.354	43.28
744.753	43.33
745.152	43.38
745.55	43.4
745.949	43.44
746.348	43.47
746.746	43.49
747.144	43.53
747.543	43.57
747.941	43.59
748.339	43.58
748.737	43.59
749.136	43.59
749.534	43.58
749.932	43.59
750.33	43.57
750.727	43.58
751.125	43.59
751.523	43.6
751.921	43.62
752.318	43.61
752.716	43.63
753.113	43.67
753.511	43.67
753.908	43.7
754.305	43.72
754.703	43.71
755.1	43.72
755.497	43.72
755.894	43.71
756.291	43.72
756.688	43.72
757.085	43.72
757.482	43.72
757.878	43.74
758.275	43.74
758.672	43.75
759.068	43.79
759.465	43.78
759.861	43.79
760.258	43.78
760.654	43.78
761.05	43.81
761.447	43.83
761.843	43.81
762.239	43.8
762.635	43.79
763.031	43.77
763.427	43.74
763.822	43.75
764.218	43.77
764.614	43.79
765.01	43.78
765.405	43.77
765.801	43.74
766.196	43.75
766.592	43.72
766.987	43.72
767.382	43.74
767.778	43.76
768.173	43.77
768.568	43.76
768.963	43.74
769.358	43.74
769.753	43.75
770.148	43.79
770.542	43.77
770.937	43.8
771.332	43.8
771.726	43.77
772.121	43.77
772.515	43.74
772.91	43.74
773.304	43.75
773.699	43.75
774.093	43.73
774.487	43.7
774.881	43.76
775.275	43.74
775.669	43.74
776.063	43.74
776.457	43.72
776.851	43.73
777.245	43.72
777.638	43.69
778.032	43.69
778.425	43.71
778.819	43.71
779.212	43.67
779.606	43.68
779.999	43.68
780.392	43.71
780.786	43.72
781.179	43.73
781.572	43.76
781.965	43.78
782.358	43.8
782.751	43.79
783.143	43.78
783.536	43.77
783.929	43.77
784.322	43.77
784.714	43.78
785.107	43.81
785.499	43.8
785.891	43.8
786.284	43.82
786.676	43.81
787.068	43.82
787.46	43.83
787.852	43.88
788.245	43.9
788.636	43.9
789.028	43.9
789.42	43.88
789.812	43.88
790.204	43.9
790.595	43.87
790.987	43.87
791.378	43.9
791.77	43.91
792.161	43.9
792.553	43.9
792.944	43.91
793.335	43.92
793.726	43.93
794.117	43.93
794.508	43.89
794.899	43.9
795.29	43.91
795.681	43.89
796.072	43.9
796.463	43.92
796.853	43.9
797.244	43.89
797.634	43.88
798.025	43.88
798.415	43.88
798.806	43.88
799.196	43.89
799.586	43.92
799.976	43.93
800.366	43.93
800.756	43.9
801.146	43.93
801.536	43.94
801.926	43.95
802.316	43.96
802.706	43.99
803.095	44.04
803.485	44.04
803.874	44.01
804.264	44
804.653	44
805.043	44.03
805.432	44.02
805.821	44.04
806.21	44.04
806.599	44.05
806.988	44.05
807.377	44.01
807.766	44.02
808.155	44.01
808.544	44.02
808.933	44.01
809.321	44.02
809.71	44
810.098	43.96
810.487	43.95
810.875	43.94
811.264	43.91
811.652	43.92
812.04	43.91
812.428	43.93
812.816	43.92
813.204	43.89
813.592	43.85
813.98	43.85
814.368	43.89
814.756	43.89
815.144	43.89
815.531	43.93
815.919	43.9
816.306	43.94
816.694	43.93
817.081	43.94
817.469	43.96
817.856	43.99
818.243	43.99
818.63	43.98
819.017	43.97
819.404	43.94
819.791	43.93
820.178	43.96
820.565	43.93
820.952	43.91
821.339	43.91
821.725	43.92
822.112	43.93
822.498	43.94
822.885	43.95
823.271	43.95
823.657	43.93
824.044	43.95
824.43	43.95
824.816	43.94
825.202	43.94
825.588	43.95
825.974	43.94
826.36	43.92
826.746	43.92
827.132	43.91
827.517	43.93
827.903	43.96
828.289	43.94
828.674	43.93
829.06	43.93
829.445	43.91
829.83	43.89
830.216	43.9
830.601	43.89
830.986	43.91
831.371	43.89
831.756	43.89
832.141	43.89
832.526	43.9
832.911	43.91
833.295	43.91
833.68	43.93
834.065	43.95
834.449	43.94
834.834	43.94
835.218	43.93
835.603	43.94
835.987	43.92
836.371	43.89
836.755	43.88
837.139	43.86
837.524	43.88
837.908	43.88
838.291	43.89
838.675	43.88
839.059	43.88
839.443	43.87
839.827	43.87
840.21	43.86
840.594	43.88
840.977	43.89
841.361	43.88
841.744	43.87
842.127	43.85
842.511	43.83
842.894	43.8
843.277	43.79
843.66	43.76
844.043	43.76
844.426	43.76
844.809	43.77
845.191	43.76
845.574	43.79
845.957	43.8
846.339	43.81
846.722	43.82
847.104	43.87
847.487	43.88
847.869	43.91
848.252	43.92
848.634	43.93
849.016	43.92
849.398	43.92
849.78	43.91
850.162	43.89
850.544	43.88
850.926	43.88
851.307	43.86
851.689	43.85
852.071	43.84
852.452	43.84
852.834	43.85
853.215	43.84
853.597	43.84
853.978	43.82
854.359	43.84
854.741	43.86
855.122	43.83
855.503	43.83
855.884	43.82
856.265	43.84
856.646	43.84
857.026	43.82
857.407	43.83
857.788	43.83
858.169	43.85
858.549	43.85
858.93	43.85
859.31	43.87
859.69	43.87
860.071	43.9
860.451	43.9
860.831	43.9
861.211	43.89
861.591	43.88
861.971	43.88
862.351	43.88
862.731	43.87
863.111	43.85
863.491	43.86
863.87	43.85
864.25	43.81
864.629	43.81
865.009	43.83
865.388	43.86
865.768	43.86
866.147	43.86
866.526	43.88
866.905	43.89
867.284	43.93
867.663	43.92
868.042	43.95
868.421	43.97
868.8	43.97
869.179	43.96
869.558	43.94
869.936	43.94
870.315	43.94
870.693	43.94
871.072	43.96
871.45	43.95
871.828	43.94
872.207	43.96
872.585	43.96
872.963	43.97
873.341	43.98
873.719	43.98
874.097	43.98
874.475	44.01
874.853	44
875.23	43.99
875.608	44
875.986	44.03
876.363	44.02
876.741	44.02
877.118	44.03
877.495	44.04
877.873	44.04
878.25	44.08
878.627	44.08
879.004	44.07
879.381	44.08
879.758	44.04
880.135	44.03
880.512	44.03
880.889	44.01
881.265	43.98
881.642	43.97
882.019	43.97
882.395	43.95
882.772	43.94
883.148	43.93
883.524	43.91
883.901	43.91
884.277	43.86
884.653	43.85
885.029	43.84
885.405	43.86
885.781	43.85
886.157	43.83
886.532	43.83
886.908	43.79
887.284	43.8
887.659	43.79
888.035	43.77
888.411	43.79
888.786	43.78
889.161	43.8
889.537	43.79
889.912	43.79
890.287	43.81
890.662	43.78
891.037	43.81
891.412	43.79
891.787	43.78
892.162	43.79
892.536	43.78
892.911	43.78
893.286	43.76
893.66	43.76
894.035	43.75
894.409	43.74
894.784	43.76
895.158	43.75
895.532	43.75
895.906	43.77
896.281	43.77
896.655	43.77
897.029	43.78
897.402	43.8
897.776	43.79
898.15	43.8
898.524	43.8
898.898	43.8
899.271	43.82
899.645	43.82
900.018	43.85
900.392	43.85
900.765	43.87
901.138	43.84
901.511	43.84
901.884	43.84
902.258	43.83
902.631	43.84
903.003	43.88
903.376	43.89
903.749	43.89
904.122	43.88
904.495	43.9
904.867	43.91
905.24	43.94
905.612	43.97
905.985	43.98
906.357	44
906.729	44.01
907.102	43.97
907.474	43.98
907.846	43.99
908.218	44
908.59	43.99
908.962	44.01
909.334	44.04
909.705	44
910.077	44.02
910.449	44.01
910.82	44.02
911.192	44.04
911.563	44
911.935	43.98
912.306	43.97
912.677	43.98
913.048	43.96
913.419	43.95
913.79	43.97
914.161	43.95
914.532	43.96
914.903	43.94
915.274	43.94
915.645	43.92
916.015	43.94
916.386	43.97
916.756	43.95
917.127	43.97
917.497	43.96
917.868	43.95
918.238	43.96
918.608	43.98
918.978	43.99
919.348	44.01
919.718	44.02
920.088	44.04
920.458	44
920.828	43.98
921.198	43.94
921.567	43.94
921.937	43.95
922.306	43.94
922.676	43.92
923.045	43.9
923.415	43.88
923.784	43.9
924.153	43.89
924.522	43.92
924.891	43.95
925.26	43.97
925.629	43.99
925.998	43.96
926.367	43.99
926.736	44
927.104	44.01
927.473	43.99
927.842	43.98
928.21	44
928.578	43.94
928.947	43.93
929.315	43.89
929.683	43.87
930.051	43.85
930.42	43.81
930.788	43.81
931.156	43.79
931.523	43.82
931.891	43.85
932.259	43.84
932.627	43.89
932.994	43.9
933.362	43.92
933.729	43.9
934.097	43.94
934.464	44
934.831	44.01
935.199	44.01
935.566	44.02
935.933	43.96
936.3	43.9
936.667	43.88
937.034	43.92
937.401	43.96
937.767	44
938.134	43.99
938.501	43.94
938.867	43.93
939.234	43.95
939.6	43.93
939.967	43.95
940.333	43.97
940.699	43.97
941.065	43.91
941.431	43.91
941.798	43.89
942.163	43.84
942.529	43.83
942.895	43.83
943.261	43.77
943.627	43.77
943.992	43.73
944.358	43.73
944.723	43.71
945.089	43.62
945.454	43.61
945.82	43.6
946.185	43.66
946.55	43.65
946.915	43.57
947.28	43.6
947.645	43.59
948.01	43.64
948.375	43.64
948.74	43.6
949.104	43.65
949.469	43.58
949.834	43.53
950.198	43.46
950.562	43.4
950.927	43.41
951.291	43.36
951.655	43.28
952.02	43.22
952.384	43.14
952.748	43.11
953.112	43.04
953.476	43.06
953.839	43.08
954.203	43.08
954.567	43.05
954.931	43.01
955.294	42.98
955.658	43.04
956.021	43.04
956.385	43.09
956.748	43.1
957.111	43.13
957.474	43.14
957.837	43.07
958.2	43.05
958.563	43.06
958.926	43.08
959.289	43.12
959.652	43.02
960.015	43.01
960.377	42.98
960.74	42.98
961.102	42.96
961.465	42.95
961.827	43.03
962.189	43.09
962.552	43.09
962.914	43.12
963.276	43.15
963.638	43.19
964	43.19
964.362	43.25
964.724	43.25
965.085	43.22
965.447	43.19
965.809	43.16
966.17	43.13
966.532	43.13
966.893	43.11
967.255	43.08
967.616	43.1
967.977	43.13
968.338	43.07
968.699	43.08
969.061	43.11
969.421	43.15
969.782	43.16
970.143	43.14
970.504	43.17
970.865	43.2
971.225	43.19
971.586	43.2
971.946	43.19
972.307	43.16
972.667	43.16
973.027	43.16
973.388	43.14
973.748	43.15
974.108	43.22
974.468	43.21
974.828	43.27
975.188	43.29
975.548	43.24
975.907	43.23
976.267	43.32
976.627	43.29
976.986	43.27
977.346	43.2
977.705	43.18
978.064	43.13
978.424	43.11
978.783	43.02
979.142	43
979.501	43.02
979.86	43.07
980.219	43.03
980.578	43.1
980.937	43.12
981.296	43.16
981.654	43.18
982.013	43.17
982.371	43.19
982.73	43.25
983.088	43.25
983.447	43.3
983.805	43.26
984.163	43.2
984.521	43.11
984.879	43.08
985.237	43.11
985.595	43.14
985.953	43.17
986.311	43.17
986.669	43.14
987.026	43.19
987.384	43.2
987.741	43.16
988.099	43.33
988.456	43.35
988.814	43.36
989.171	43.35
989.528	43.32
989.885	43.36
990.242	43.44
990.599	43.41
990.956	43.47
991.313	43.48
991.67	43.57
992.027	43.57
992.383	43.66
992.74	43.82
993.096	43.83
993.453	43.86
993.809	43.76
994.165	43.75
994.522	43.86
994.878	43.86
995.234	43.84
995.59	43.81
995.946	43.83
996.302	43.89
996.658	43.81
997.013	43.86
997.369	43.83
997.725	43.94
998.08	43.93
998.436	43.94
998.791	43.97
999.147	43.95
999.502	43.99
999.857	43.94
1000.212	43.87
1000.567	43.85
1000.922	43.87
1001.277	43.89
1001.632	43.79
1001.987	43.82
1002.342	43.67
1002.696	43.66
1003.051	43.87
1003.406	43.87
1003.76	43.9
1004.114	43.99
1004.469	44.07
1004.823	44.32
1005.177	44.3
1005.531	44.39
1005.885	44.41
1006.239	44.6
1006.593	44.58
1006.947	44.5
1007.301	44.42
1007.655	44.32
1008.008	44.26
1008.362	44.31
1008.715	44.04
1009.069	44.08
1009.422	44.12
1009.776	44.01
1010.129	44.08
1010.482	44.14
1010.835	44.12
1011.188	44.27
1011.541	44.34
1011.894	44.53
1012.247	44.54
1012.6	44.69
1012.952	44.72
1013.305	44.72
1013.657	44.98
1014.01	45.02
1014.362	45.01
1014.715	45.1
1015.067	45.17
1015.419	45.3
1015.771	45.1
1016.123	45.14
1016.475	45.15
1016.827	45.28
1017.179	45.49
1017.531	45.42
1017.883	45.35
1018.234	45.53
1018.586	45.58
1018.938	45.73
1019.289	45.71
1019.64	45.86
1019.992	45.78
1020.343	45.76
1020.694	45.76
1021.045	45.75
1021.396	45.81
1021.747	45.92
1022.098	45.88
1022.449	45.77
1022.8	45.69
1023.151	45.69
1023.501	45.61
1023.852	45.65
1024.202	45.66
1024.553	45.67
1024.903	45.82
1025.253	45.89
1025.604	45.75
1025.954	45.59
1026.304	45.75
1026.654	45.81
1027.004	45.83
1027.354	45.89
1027.703	45.62
1028.053	45.55
1028.403	45.58
1028.753	45.03
1029.102	45.04
1029.452	45.06
1029.801	45.19
1030.15	45.03
1030.499	44.77
897.758	1379.19
901.051	1391.04
904.343	1383.41
907.636	1408.66
910.928	1369.64
914.22	1369.6
917.511	1351.6
920.803	1295.85
924.094	1289.63
927.384	1256.68
930.675	1208.92
933.965	1203.26
937.255	1127.95
940.544	1084.91
943.834	1031.38
947.123	1023.8
950.411	965.21
953.7	945.73
956.988	890.8
960.276	856.15
963.563	843.29
966.851	812.03
970.138	803.65
973.424	780.5
976.711	785.72
979.997	746.56
983.283	741.12
986.568	724.49
989.853	701.68
993.138	689.85
996.423	661.81
999.708	644.27
1002.992	637.18
1006.275	606.99
1009.559	601.78
1012.842	578.29
1016.125	563.43
1019.408	553.99
1022.69	545.37
1025.972	535.67
1029.254	522
1032.536	514.31
1035.817	501.43
1039.098	495.31
1042.379	486.49
1045.659	480.98
1048.939	469.14
1052.219	459.12
1055.498	451.42
1058.778	441.6
1062.057	430.45
1065.335	426.36
1068.614	421.47
1071.892	417.22
1075.17	402.74
1078.447	395.73
1081.724	392.8
1085.001	390.3
1088.278	382.04
1091.554	374.39
1094.83	375
1098.106	372.4
1101.382	369.88
1104.657	367.23
1107.932	361.46
1111.206	363.41
1114.481	354.17
1117.755	350.44
1121.029	347.29
1124.302	347.87
1127.575	341.14
1130.848	336.87
1134.121	333.6
1137.393	331.07
1140.665	323.64
1143.937	322.15
1147.208	320.52
1150.48	319.68
1153.75	315.53
1157.021	310.74
1160.291	310.7
1163.561	307.48
1166.831	307.95
1170.101	305.03
1173.37	304.4
1176.639	305.34
1179.907	302.05
1183.176	298.42
1186.444	298.01
1189.711	297.69
1192.979	296.98
1196.246	294.7
1199.513	295.7
1202.78	293.02
1206.046	293.5
1209.312	290.45
1212.578	290.72
1215.843	293.47
1219.108	291.41
1222.373	297.51
1225.638	299.72
1228.902	304.05
1232.166	303.72
1235.43	307.1
1238.693	311.12
1241.956	312.96
1245.219	317.55
1248.482	317.82
1251.744	317.57
1255.006	318.73
1258.268	310.96
1261.529	307.71
1264.79	305.42
1268.051	304.86
1271.312	300.46
1274.572	296.38
1277.832	293.81
1281.092	289.24
1284.351	286.59
1287.61	286.49
1290.869	282.21
1294.128	280.27
1297.386	280.54
1300.644	276.96
1303.902	277.14
1307.159	276.54
1310.416	276.8
1313.673	276.06
1316.93	278.73
1320.186	279.21
1323.442	279.63
1326.697	284.97
1329.953	286.1
1333.208	286.77
1336.463	290.69
1339.717	291.35
1342.972	294.88
1346.226	297.17
1349.479	297.54
1352.733	299.63
1355.986	300.76
1359.238	301.15
1362.491	302.08
1365.743	304.93
1368.995	305.24
1372.247	304.4
1375.498	304.28
1378.749	306.96
1382	304.14
1385.251	305.27
1388.501	303.34
1391.751	304.72
1395	303.28
1398.25	301.54
1401.499	299.77
1404.748	299.24
1407.996	297.3
1411.244	296.2
1414.492	293.52
1417.74	291.21
1420.987	286.76
1424.234	286.86
1427.481	282.44
1430.728	282.24
1433.974	279.37
1437.22	277.14
1440.465	276.44
1443.711	274.24
1446.956	272.43
1450.201	269.49
1453.445	266.79
1456.689	266.11
1459.933	261.25
1463.177	259.65
1466.42	255.32
1469.663	252.3
1472.906	250.65
1476.148	243.9
1479.391	241.05
1482.633	238.79
1485.874	235.09
1489.115	233.33
1492.356	230.41
1495.597	230.42
1498.838	226.26
1502.078	225.13
1505.318	224.04
1508.557	223.77
1511.797	223.62
1515.036	222.22
1518.274	220.84
1521.513	218.66
1524.751	218.44
1527.989	218
1531.227	216.23
1534.464	217.14
1537.701	215.38
1540.938	214.82
1544.174	212.14
1547.41	211.79
1550.646	210.42
1553.882	210.85
1557.117	208.48
1560.352	207.28
1563.587	206.45
1566.821	205.07
1570.055	203.13
1573.289	201.66
1576.523	201.18
1579.756	199.66
1582.989	198.72
1586.222	198.58
1589.454	197.18
1592.686	198.96
1595.918	197.61
1599.15	196.89
1602.381	197.09
1605.612	196.7
1608.843	197.54
1612.073	197.15
1615.303	198.56
1618.533	198.15
1621.762	198.18
1624.992	198.4
1628.221	197.64
1631.449	197.75
1634.678	196.89
1637.906	197.81
1641.134	198.17
1644.361	197.4
1647.588	198.07
1650.815	196.95
1654.042	196.61
1657.269	197.3
1660.495	197.3
1663.72	196.67
1666.946	197.78
1670.171	198.77
1673.396	198.41
1676.621	198.27
1679.845	199.29
1683.069	198.93
1686.293	200.66
1689.517	201.52
1692.74	201.26
1695.963	202.12
1699.185	204.11
1702.408	203.46
1705.63	204.45
1708.852	204.95
1712.073	205.45
1715.294	205.31
1718.515	207.06
1721.736	206.25
1724.956	207.11
1728.176	207.17
1731.396	209.2
1734.616	207.93
1737.835	209.52
1741.054	207.92
1744.272	208.64
1747.491	210.69
1750.709	210.61
1753.927	210.43
1757.144	209.55
1760.361	210.55
1763.578	211.19
1766.795	210.3
1770.011	212.5
1773.227	211.96
1776.443	214.5
1779.658	215.26
1782.874	214.98
1786.089	216.16
1789.303	216.73
1792.518	220.06
1795.732	220
1798.945	222.12
1802.159	221.88
1805.372	222.44
1808.585	226.9
1811.797	227.66
1815.01	227.76
1818.222	229.54
1821.434	230.92
1824.645	231.81
1827.856	235.21
1831.067	236.73
1834.278	236.3
1837.488	238.83
1840.698	240.33
1843.908	237.68
1847.117	239.16
1850.326	241.17
1853.535	239.82
1856.744	244.33
1859.952	244.11
1863.16	242.5
1866.368	240.89
1869.575	244.24
1872.782	240.03
1875.989	239.02
1879.196	238.6
1882.402	237.17
1885.608	237.71
1888.814	238.95
1892.019	237.41
1895.224	236.95
1898.429	236.11
1901.634	238.09
1904.838	237.33
1908.042	240.33
1911.246	241.7
1914.449	243.16
1917.652	244.13
1920.855	243.26
1924.058	242.68
1927.26	241.74
1930.462	242.72
1933.664	245.5
1936.865	243.33
1940.066	243.05
1943.267	241.78
1946.467	241.28
1949.668	243.13
1952.868	245.08
1956.067	245.57
1959.267	246.06
1962.466	246.99
1965.665	246.01
1968.863	246.87
1972.061	250.82
1975.259	252.94
1978.457	254.9
1981.654	257.02
1984.852	257.09
1988.048	256.52
1991.245	258.78
1994.441	262.34
1997.637	263.44
2000.833	269.25
2004.028	271.54
2007.223	272.59
2010.418	274.76
2013.613	280.33
2016.807	283.38
2020.001	285.3
2023.194	288.98
2026.388	296.21
2029.581	302.21
2032.774	305.78
2035.966	310.68
2039.158	312.55
2042.35	317.76
2045.542	320.54
2048.733	324.85
2051.924	328.91
2055.115	334.3
2058.306	335.59
2061.496	338.76
2064.686	338.59
2067.875	344.2
2071.065	345.69
2074.254	344.37
2077.442	348.67
2080.631	350.65
2083.819	353.59
2087.007	354.4
2090.195	358.53
2093.382	361.76
2096.569	358.64
2099.756	364.57
2102.942	366.02
2106.128	369.44
2109.314	377.17
2112.5	376.28
2115.685	384.37
2118.87	384.54
2122.055	392.88
2125.239	396.48
2128.424	401.67
2131.608	404.94
2134.791	409.95
2137.974	412.34
2141.157	412.02
2144.34	413.51
2147.523	419.93
2150.705	416.6
2153.887	420.61
2157.068	421.18
2160.25	416.63
2163.431	418.45
2166.611	423.28
2169.792	431.62
2172.972	435.62
2176.152	440.11
2179.331	445.67
2182.511	453.06
2185.69	458.56
2188.868	468.19
2192.047	468.27
2195.225	483.63
2198.403	494.96
2201.58	504.11
2204.758	513.55
2207.935	523.72
2211.111	532.8
2214.288	539.53
2217.464	541.18
2220.64	548.58
2223.815	555.91
2226.991	579.95
2230.166	579.8
2233.34	590.25
2236.515	599.42
2239.689	598.37
2242.863	601.97
2246.036	620.67
2249.209	615.26
2252.382	626.15
2255.555	644.97
2258.727	647.53
2261.9	648.96
2265.071	656.46
2268.243	667.57
2271.414	677.1
2274.585	694.74
2277.756	701.75
2280.926	703.42
2284.096	721.5
2287.266	737.29
2290.436	743.43
2293.605	760.06
2296.774	785.46
2299.942	808.45
2303.111	812.98
2306.279	829.6
2309.447	840.67
2312.614	861.63
2315.781	888.02
2318.948	929.43
2322.115	915.21
2325.281	964.31
2328.447	944.12
2331.613	983.32
2334.779	973.78
2337.944	1015.73
2341.109	1025.32
2344.274	1052.3
2347.438	1090.78
2350.602	1087.1
2353.766	1118.19
2356.929	1133.77
2360.092	1129.17
2363.255	1213.57
2366.418	1206.94
2369.58	1230.39
2372.742	1308.63
2375.904	1341.93
2379.066	1332.75
2382.227	1307.16
2385.388	1425.23
2388.548	1424.09
2391.709	1441.69
2394.869	1607.62
2398.029	1535.05
2401.188	1579.8
2404.347	1570.28
2407.506	1541.02
2410.665	1585.11
2413.823	1684.58
2416.981	1784.91
2420.139	1722.3
2423.296	1704.86
2426.453	1782.6
2429.61	1716.09
2432.767	1797.18
2435.923	1779.18
2439.079	1947.6
2442.235	1965.39
2445.391	1951.51
2448.546	1934.57
2451.701	1880.76
2454.855	1879.4
2458.009	1997.05
2461.163	2073.75
2464.317	2139.9
2467.471	2197.71
2470.624	2200
2473.777	2137.5
2476.929	2095.07
2480.082	2028.06
2483.234	2004.54
2486.385	2104.82
2489.537	2117.58
2492.688	2194.29
2495.839	2129.17
2498.989	2088.66
2502.14	2096.14
2505.29	2117.08
2508.439	2147.5
2511.589	2138.66
2514.738	2333.63
2517.887	2287.43
2521.035	2418.93
2524.183	2435.03
2527.331	2450.8
2530.479	2448.8
2533.627	2460.97
