Data from N_2_DEC_NC_4N_Splice17_13-27-20-554.txt Node
Date: Sat Mar 07 13:27:20 EST 2020
User: sa697716
Spectrometer: NQ5500242
Trigger mode: 0
Integration Time (sec): 1.450000E-1
Scans to average: 20
Nonlinearity correction enabled: false
Boxcar width: 5
Storing dark spectrum: false
XAxis mode: Wavelengths
Number of Pixels in Spectrum: 512
>>>>>Begin Spectral Data<<<<<
187.83	136.21
188.298	137.71
188.766	114.95
189.233	81.34
189.701	74.22
190.169	87.63
190.636	90.63
191.104	93.79
191.571	-111.34
192.039	-184.75
192.506	-712.93
192.974	155.69
193.441	250.36
193.908	84.01
194.375	-28.06
194.842	-94.14
195.31	-152.76
195.777	-363.83
196.244	18.05
196.711	35.35
197.177	40.21
197.644	40.3
198.111	40.04
198.578	40.22
199.045	41.11
199.511	41.33
199.978	41.34
200.445	41.69
200.911	41.64
201.378	41.52
201.844	41.46
202.31	40.83
202.777	40.98
203.243	41.02
203.709	40.76
204.176	40.25
204.642	40
205.108	40
205.574	39.73
206.04	39.51
206.506	39.15
206.972	39.12
207.438	39.11
207.903	38.75
208.369	38.03
208.835	37.58
209.301	36.95
209.766	36.26
210.232	35.54
210.697	34.86
211.163	34.19
211.628	33.61
212.094	32.68
212.559	32.23
213.024	31.47
213.49	31.22
213.955	30.6
214.42	30.14
214.885	29.56
215.35	28.57
215.815	27.59
216.28	26.09
216.745	24.69
217.21	23.52
217.675	22.3
218.14	21.38
218.604	20.59
219.069	19.96
219.534	19.45
219.998	18.94
220.463	18.58
220.927	18.18
221.392	17.91
221.856	17.69
222.32	17.46
222.785	17.29
223.249	17.1
223.713	16.9
224.177	16.74
224.642	16.52
225.106	16.32
225.57	16.12
226.034	15.99
226.497	15.85
226.961	15.71
227.425	15.56
227.889	15.39
228.353	15.24
228.816	15.08
229.28	14.9
229.744	14.76
230.207	14.63
230.671	14.5
231.134	14.36
231.597	14.24
232.061	14.1
232.524	13.98
232.987	13.87
233.45	13.76
233.914	13.64
234.377	13.53
234.84	13.41
235.303	13.32
235.766	13.23
236.229	13.14
236.691	13.04
237.154	12.94
237.617	12.85
238.08	12.75
238.542	12.63
239.005	12.53
239.468	12.42
239.93	12.33
240.393	12.24
240.855	12.11
241.317	12
241.78	11.88
242.242	11.78
242.704	11.7
243.166	11.6
243.629	11.54
244.091	11.46
244.553	11.4
245.015	11.32
245.477	11.24
245.939	11.18
246.4	11.12
246.862	11.06
247.324	11
247.786	10.93
248.247	10.86
248.709	10.77
249.17	10.68
249.632	10.62
250.093	10.57
250.555	10.51
251.016	10.46
251.477	10.4
251.939	10.35
252.4	10.29
252.861	10.24
253.322	10.2
253.783	10.16
254.244	10.13
254.705	10.08
255.166	10.02
255.627	9.97
256.088	9.92
256.549	9.87
257.009	9.82
257.47	9.75
257.931	9.68
258.391	9.61
258.852	9.56
259.312	9.49
259.773	9.43
260.233	9.38
260.694	9.33
261.154	9.27
261.614	9.23
262.074	9.17
262.534	9.13
262.994	9.09
263.455	9.05
263.915	9.02
264.374	8.99
264.834	8.97
265.294	8.93
265.754	8.9
266.214	8.88
266.673	8.85
267.133	8.83
267.593	8.81
268.052	8.78
268.512	8.76
268.971	8.74
269.431	8.71
269.89	8.68
270.349	8.66
270.809	8.63
271.268	8.6
271.727	8.57
272.186	8.54
272.645	8.51
273.104	8.48
273.563	8.44
274.022	8.4
274.481	8.37
274.94	8.33
275.399	8.29
275.857	8.26
276.316	8.22
276.775	8.19
277.233	8.16
277.692	8.13
278.15	8.1
278.609	8.08
279.067	8.06
279.525	8.03
279.984	8.01
280.442	7.99
280.9	7.97
281.358	7.94
281.816	7.91
282.274	7.88
282.732	7.84
283.19	7.81
283.648	7.77
284.106	7.73
284.564	7.69
285.021	7.67
285.479	7.64
285.937	7.59
286.394	7.57
286.852	7.53
287.309	7.5
287.767	7.45
288.224	7.42
288.682	7.39
289.139	7.36
289.596	7.33
290.053	7.3
290.511	7.27
290.968	7.25
291.425	7.23
291.882	7.21
292.339	7.2
292.796	7.19
293.252	7.18
293.709	7.16
294.166	7.15
294.623	7.13
295.079	7.11
295.536	7.09
295.992	7.08
296.449	7.05
296.905	7.03
297.362	7.02
297.818	7
298.274	6.99
298.731	6.97
299.187	6.95
299.643	6.94
300.099	6.93
300.555	6.92
301.011	6.9
301.467	6.9
301.923	6.89
302.379	6.87
302.835	6.87
303.291	6.86
303.746	6.85
304.202	6.85
304.658	6.85
305.113	6.83
305.569	6.83
306.024	6.81
306.479	6.8
306.935	6.78
307.39	6.78
307.845	6.76
308.301	6.76
308.756	6.76
309.211	6.75
309.666	6.76
310.121	6.76
310.576	6.75
311.031	6.75
311.486	6.76
311.94	6.77
312.395	6.76
312.85	6.76
313.305	6.75
313.759	6.75
314.214	6.75
314.668	6.73
315.123	6.73
315.577	6.72
316.032	6.7
316.486	6.68
316.94	6.66
317.394	6.65
317.849	6.63
318.303	6.61
318.757	6.6
319.211	6.59
319.665	6.59
320.119	6.57
320.572	6.57
321.026	6.58
321.48	6.58
321.934	6.57
322.387	6.56
322.841	6.56
323.295	6.57
323.748	6.55
324.202	6.54
324.655	6.52
325.108	6.51
325.562	6.49
326.015	6.47
326.468	6.46
326.921	6.45
327.374	6.46
327.827	6.45
328.28	6.44
328.733	6.44
329.186	6.44
329.639	6.44
330.092	6.44
330.545	6.44
330.997	6.43
331.45	6.44
331.903	6.43
332.355	6.43
332.808	6.43
333.26	6.41
333.713	6.41
334.165	6.4
334.617	6.4
335.069	6.38
335.522	6.38
335.974	6.38
336.426	6.36
336.878	6.35
337.33	6.33
337.782	6.32
338.234	6.32
338.686	6.31
339.137	6.31
339.589	6.29
340.041	6.28
340.493	6.27
340.944	6.24
341.396	6.23
341.847	6.21
342.299	6.2
342.75	6.19
343.201	6.18
343.653	6.16
344.104	6.15
344.555	6.14
345.006	6.13
345.457	6.13
345.908	6.13
346.359	6.13
346.81	6.13
347.261	6.12
347.712	6.1
348.163	6.09
348.613	6.09
349.064	6.09
349.515	6.08
349.965	6.07
350.416	6.06
350.866	6.04
351.317	6.03
351.767	6.02
352.217	6.02
352.668	6.03
353.118	6.04
353.568	6.04
354.018	6.04
354.468	6.04
354.918	6.04
355.368	6.05
355.818	6.06
356.268	6.06
356.718	6.06
357.168	6.06
357.617	6.06
358.067	6.06
358.517	6.07
358.966	6.08
359.416	6.09
359.865	6.09
360.315	6.09
360.764	6.09
361.213	6.1
361.663	6.11
362.112	6.13
362.561	6.13
363.01	6.14
363.459	6.13
363.908	6.12
364.357	6.12
364.806	6.13
365.255	6.13
365.703	6.15
366.152	6.15
366.601	6.16
367.05	6.16
367.498	6.15
367.947	6.16
368.395	6.17
368.844	6.17
369.292	6.17
369.74	6.18
370.189	6.18
370.637	6.17
371.085	6.17
371.533	6.18
371.981	6.2
372.429	6.21
372.877	6.22
373.325	6.23
373.773	6.24
374.221	6.24
374.669	6.25
375.116	6.25
375.564	6.27
376.012	6.27
376.459	6.29
376.907	6.31
377.354	6.33
377.801	6.35
378.249	6.35
378.696	6.38
379.143	6.4
379.591	6.43
380.038	6.46
380.485	6.49
380.932	6.53
381.379	6.55
381.826	6.57
382.273	6.6
382.72	6.61
383.166	6.64
383.613	6.67
384.06	6.69
384.506	6.72
384.953	6.75
385.4	6.77
385.846	6.81
386.292	6.83
386.739	6.86
387.185	6.88
387.631	6.91
388.078	6.94
388.524	6.97
388.97	7.01
389.416	7.04
389.862	7.08
390.308	7.12
390.754	7.15
391.2	7.2
391.645	7.25
392.091	7.31
392.537	7.36
392.983	7.42
393.428	7.46
393.874	7.51
394.319	7.56
394.765	7.6
395.21	7.63
395.655	7.67
396.101	7.7
396.546	7.74
396.991	7.78
397.436	7.82
397.881	7.87
398.326	7.92
398.771	7.96
399.216	8
399.661	8.05
400.106	8.11
400.551	8.15
400.995	8.19
401.44	8.23
401.885	8.26
402.329	8.31
402.774	8.34
403.218	8.39
403.663	8.42
404.107	8.45
404.551	8.47
404.995	8.49
405.44	8.52
405.884	8.54
406.328	8.57
406.772	8.59
407.216	8.6
407.66	8.62
408.104	8.62
408.547	8.64
408.991	8.66
409.435	8.68
409.879	8.7
410.322	8.73
410.766	8.77
411.209	8.78
411.653	8.8
412.096	8.81
412.54	8.82
412.983	8.84
413.426	8.88
413.869	8.9
414.312	8.93
414.756	8.95
415.199	8.96
415.642	8.96
416.085	8.98
416.527	8.99
416.97	9
417.413	9.02
417.856	9.03
418.298	9
418.741	9
419.184	9
419.626	9.01
420.069	9.02
420.511	9.02
420.953	9.04
421.396	9.05
421.838	9.05
422.28	9.06
422.722	9.08
423.164	9.1
423.606	9.11
424.048	9.11
424.49	9.11
424.932	9.11
425.374	9.11
425.816	9.09
426.258	9.08
426.699	9.08
427.141	9.07
427.582	9.06
428.024	9.06
428.465	9.06
428.907	9.06
429.348	9.06
429.789	9.06
430.231	9.08
430.672	9.1
431.113	9.11
431.554	9.13
431.995	9.15
432.436	9.17
432.877	9.18
433.318	9.21
433.759	9.22
434.2	9.24
434.64	9.25
435.081	9.27
435.522	9.29
435.962	9.3
436.403	9.33
436.843	9.35
437.284	9.36
437.724	9.36
438.164	9.36
438.604	9.39
439.045	9.4
439.485	9.42
439.925	9.42
440.365	9.44
440.805	9.46
441.245	9.48
441.685	9.52
442.125	9.57
442.564	9.61
443.004	9.67
443.444	9.7
443.883	9.75
444.323	9.79
444.762	9.84
445.202	9.89
445.641	9.95
446.081	10
446.52	10.03
446.959	10.08
447.398	10.13
447.837	10.18
448.276	10.22
448.716	10.27
449.154	10.33
449.593	10.38
450.032	10.41
450.471	10.44
450.91	10.47
451.349	10.52
451.787	10.55
452.226	10.56
452.664	10.58
453.103	10.59
453.541	10.62
453.98	10.66
454.418	10.66
454.856	10.69
455.295	10.7
455.733	10.7
456.171	10.7
456.609	10.71
457.047	10.71
457.485	10.72
457.923	10.72
458.361	10.73
458.798	10.74
459.236	10.73
459.674	10.72
460.111	10.72
460.549	10.72
460.987	10.72
461.424	10.72
461.862	10.73
462.299	10.74
462.736	10.75
463.173	10.74
463.611	10.72
464.048	10.74
464.485	10.75
464.922	10.75
465.359	10.76
465.796	10.76
466.233	10.77
466.67	10.76
467.106	10.77
467.543	10.76
467.98	10.76
468.416	10.76
468.853	10.77
469.29	10.77
469.726	10.78
470.162	10.78
470.599	10.78
471.035	10.77
471.471	10.77
471.907	10.77
472.344	10.78
472.78	10.79
473.216	10.79
473.652	10.79
474.088	10.8
474.523	10.82
474.959	10.84
475.395	10.85
475.831	10.86
476.266	10.88
476.702	10.88
477.138	10.9
477.573	10.9
478.008	10.92
478.444	10.92
478.879	10.95
479.314	10.93
479.75	10.94
480.185	10.94
480.62	10.94
481.055	10.94
481.49	10.95
481.925	10.96
482.36	10.98
482.795	10.99
483.229	11
483.664	11.01
484.099	11.02
484.534	11.04
484.968	11.08
485.403	11.1
485.837	11.13
486.271	11.16
486.706	11.18
487.14	11.21
487.574	11.24
488.009	11.27
488.443	11.31
488.877	11.37
489.311	11.43
489.745	11.47
490.179	11.54
490.613	11.6
491.046	11.66
491.48	11.72
491.914	11.78
492.348	11.86
492.781	11.94
493.215	12.02
493.648	12.09
494.082	12.16
494.515	12.23
494.948	12.31
495.382	12.39
495.815	12.47
496.248	12.58
496.681	12.7
497.114	12.79
497.547	12.89
497.98	13
498.413	13.1
498.846	13.22
499.279	13.34
499.711	13.46
500.144	13.6
500.577	13.74
501.009	13.86
501.442	13.99
501.874	14.14
502.306	14.27
502.739	14.43
503.171	14.59
503.603	14.74
504.036	14.92
504.468	15.08
504.9	15.23
505.332	15.4
505.764	15.57
506.196	15.74
506.627	15.92
507.059	16.11
507.491	16.29
507.923	16.47
508.354	16.67
508.786	16.85
509.217	17.07
509.649	17.28
510.08	17.48
510.512	17.7
510.943	17.92
511.374	18.13
511.805	18.36
512.237	18.57
512.668	18.79
513.099	19
513.53	19.22
513.961	19.43
514.391	19.64
514.822	19.87
515.253	20.09
515.684	20.3
516.114	20.52
516.545	20.73
516.975	20.96
517.406	21.17
517.836	21.37
518.267	21.6
518.697	21.79
519.127	21.99
519.558	22.19
519.988	22.38
520.418	22.56
520.848	22.72
521.278	22.89
521.708	23.22
522.138	23.39
522.567	23.55
522.997	23.66
523.427	23.81
523.857	23.97
524.286	24.1
524.716	24.23
525.145	24.37
525.575	24.51
526.004	24.64
526.433	24.6
526.863	24.71
527.292	24.83
527.721	24.96
528.15	25.06
528.579	25.16
529.008	25.28
529.437	25.35
529.866	25.43
530.295	25.51
530.724	25.6
531.152	25.67
531.581	25.75
532.01	25.82
532.438	25.89
532.867	25.96
533.295	26
533.723	26.04
534.152	26.11
534.58	26.16
535.008	26.2
535.436	26.24
535.865	26.28
536.293	26.33
536.721	26.36
537.149	26.4
537.576	26.43
538.004	26.47
538.432	26.5
538.86	26.53
539.287	26.55
539.715	26.59
540.143	26.61
540.57	26.63
540.998	26.63
541.425	26.65
541.852	26.67
542.28	26.69
542.707	26.7
543.134	26.72
543.561	26.74
543.988	26.75
544.415	26.75
544.842	26.75
545.269	26.77
545.696	26.8
546.123	26.81
546.549	26.81
546.976	26.83
547.403	26.85
547.829	26.86
548.256	26.86
548.682	26.88
549.108	26.9
549.535	26.92
549.961	26.92
550.387	26.93
550.813	26.95
551.24	26.96
551.666	26.96
552.092	26.95
552.518	26.95
552.943	26.94
553.369	26.93
553.795	26.93
554.221	26.91
554.646	26.9
555.072	26.89
555.498	26.85
555.923	26.83
556.349	26.8
556.774	26.77
557.199	26.75
557.625	26.74
558.05	26.7
558.475	26.66
558.9	26.64
559.325	26.61
559.75	26.57
560.175	26.56
560.6	26.51
561.025	26.47
561.449	26.43
561.874	26.37
562.299	26.3
562.723	26.26
563.148	26.19
563.572	26.11
563.997	26.04
564.421	25.95
564.846	25.87
565.27	25.8
565.694	25.72
566.118	25.65
566.542	25.58
566.966	25.5
567.39	25.42
567.814	25.35
568.238	25.27
568.662	25.19
569.086	25.12
569.509	25.03
569.933	24.95
570.357	24.86
570.78	24.77
571.204	24.68
571.627	24.6
572.05	24.52
572.474	24.45
572.897	24.38
573.32	24.3
573.743	24.22
574.166	24.16
574.589	24.09
575.012	24.01
575.435	23.94
575.858	23.87
576.281	23.8
576.704	23.74
577.126	23.66
577.549	23.58
577.972	23.5
578.394	23.44
578.817	23.38
579.239	23.33
579.661	23.28
580.084	23.22
580.506	23.19
580.928	23.12
581.35	23.07
581.772	23.02
582.194	22.98
582.616	22.94
583.038	22.89
583.46	22.82
583.882	22.77
584.303	22.7
584.725	22.66
585.147	22.61
585.568	22.58
585.99	22.52
586.411	22.49
586.833	22.45
587.254	22.4
587.675	22.36
588.096	22.34
588.518	22.31
588.939	22.29
589.36	22.25
589.781	22.21
590.202	22.18
590.623	22.14
591.043	22.1
591.464	22.1
591.885	22.08
592.305	22.06
592.726	22.03
593.147	22.02
593.567	22.02
593.987	22.01
594.408	22
594.828	21.98
595.248	21.98
595.669	21.97
596.089	21.93
596.509	21.92
596.929	21.92
597.349	21.9
597.769	21.88
598.189	21.84
598.608	21.83
599.028	21.8
599.448	21.78
599.867	21.75
600.287	21.72
600.706	21.71
601.126	21.67
601.545	21.65
601.965	21.63
602.384	21.59
602.803	21.56
603.222	21.52
603.641	21.5
604.061	21.46
604.48	21.42
604.898	21.37
605.317	21.32
605.736	21.29
606.155	21.23
606.574	21.16
606.992	21.1
607.411	21.05
607.829	20.97
608.248	20.9
608.666	20.82
609.085	20.77
609.503	20.71
609.921	20.64
610.339	20.58
610.758	20.51
611.176	20.45
611.594	20.39
612.012	20.32
612.43	20.27
612.847	20.23
613.265	20.18
613.683	20.12
614.101	20.07
614.518	20
614.936	19.93
615.353	19.86
615.771	19.81
616.188	19.76
616.606	19.71
617.023	19.66
617.44	19.61
617.857	19.56
618.274	19.51
618.691	19.46
619.108	19.43
619.525	19.4
619.942	19.38
620.359	19.35
620.776	19.32
621.192	19.31
621.609	19.29
622.026	19.26
622.442	19.25
622.859	19.23
623.275	19.21
623.691	19.2
624.108	19.19
624.524	19.16
624.94	19.15
625.356	19.15
625.772	19.13
626.188	19.11
626.604	19.1
627.02	19.09
627.436	19.08
627.852	19.07
628.268	19.07
628.683	19.05
629.099	19.06
629.514	19.04
629.93	19.02
630.345	19.01
630.761	18.98
631.176	18.96
631.591	18.94
632.007	18.91
632.422	18.88
632.837	18.84
633.252	18.8
633.667	18.75
634.082	18.7
634.497	18.66
634.911	18.6
635.326	18.54
635.741	18.47
636.155	18.41
636.57	18.35
636.984	18.27
637.399	18.19
637.813	18.11
638.228	18.01
638.642	17.93
639.056	17.81
639.47	17.72
639.884	17.64
640.298	17.53
640.712	17.43
641.126	17.32
641.54	17.21
641.954	17.11
642.368	17
642.781	16.9
643.195	16.8
643.609	16.71
644.022	16.59
644.436	16.49
644.849	16.38
645.262	16.28
645.676	16.19
646.089	16.11
646.502	16.02
646.915	15.95
647.328	15.88
647.741	15.8
648.154	15.74
648.567	15.69
648.98	15.62
649.393	15.58
649.805	15.54
650.218	15.48
650.631	15.45
651.043	15.39
651.456	15.34
651.868	15.28
652.28	15.24
652.693	15.18
653.105	15.12
653.517	15.07
653.929	15.01
654.341	14.92
654.753	14.85
655.165	14.76
655.577	14.67
655.989	14.59
656.401	14.51
656.813	14.41
657.224	14.31
657.636	14.2
658.047	14.11
658.459	13.99
658.87	13.89
659.282	13.78
659.693	13.66
660.104	13.55
660.515	13.43
660.926	13.32
661.338	13.2
661.749	13.08
662.159	12.97
662.57	12.85
662.981	12.74
663.392	12.64
663.803	12.55
664.213	12.44
664.624	12.34
665.035	12.24
665.445	12.15
665.855	12.06
666.266	11.99
666.676	11.93
667.086	11.86
667.497	11.8
667.907	11.75
668.317	11.69
668.727	11.64
669.137	11.6
669.547	11.56
669.956	11.52
670.366	11.5
670.776	11.46
671.186	11.43
671.595	11.42
672.005	11.39
672.414	11.37
672.824	11.35
673.233	11.34
673.642	11.35
674.052	11.34
674.461	11.35
674.87	11.35
675.279	11.37
675.688	11.39
676.097	11.39
676.506	11.43
676.915	11.46
677.323	11.49
677.732	11.52
678.141	11.56
678.549	11.6
678.958	11.66
679.366	11.73
679.775	11.8
680.183	11.89
680.592	11.98
681	12.09
681.408	12.22
681.816	12.37
682.224	12.55
682.632	12.73
683.04	12.93
683.448	13.14
683.856	13.36
684.264	13.6
684.671	13.86
685.079	14.14
685.487	14.44
685.894	14.76
686.302	15.08
686.709	15.4
687.116	15.76
687.524	16.13
687.931	16.5
688.338	16.92
688.745	17.32
689.152	17.73
689.559	18.16
689.966	18.6
690.373	19.02
690.78	19.46
691.187	19.89
691.593	20.32
692	20.75
692.407	21.15
692.813	21.56
693.22	21.98
693.626	22.39
694.032	22.78
694.439	23.16
694.845	23.54
695.251	23.91
695.657	24.26
696.063	24.62
696.469	24.98
696.875	25.34
697.281	25.67
697.687	25.99
698.093	26.3
698.498	26.61
698.904	26.92
699.31	27.22
699.715	27.51
700.12	27.81
700.526	28.08
700.931	28.34
701.337	28.58
701.742	28.84
702.147	29.07
702.552	29.31
702.957	29.53
703.362	29.73
703.767	29.92
704.172	30.12
704.577	30.3
704.981	30.5
705.386	30.69
705.791	30.88
706.195	31.05
706.6	31.23
707.004	31.4
707.408	31.55
707.813	31.73
708.217	31.89
708.621	32.04
709.025	32.19
709.43	32.31
709.834	32.47
710.237	32.61
710.641	32.75
711.045	32.87
711.449	33.01
711.853	33.16
712.256	33.27
712.66	33.4
713.064	33.52
713.467	33.65
713.87	33.77
714.274	33.85
714.677	33.95
715.08	34.04
715.484	34.15
715.887	34.27
716.29	34.35
716.693	34.46
717.096	34.57
717.499	34.69
717.901	34.76
718.304	34.85
718.707	34.94
719.109	35.05
719.512	35.13
719.915	35.23
720.317	35.26
720.719	35.32
721.122	35.38
721.524	35.44
721.926	35.5
722.328	35.6
722.731	35.64
723.133	35.71
723.535	35.76
723.937	35.81
724.338	35.84
724.74	35.91
725.142	36.06
725.544	36.11
725.945	36.18
726.347	36.19
726.748	36.24
727.15	36.27
727.551	36.32
727.952	36.34
728.354	36.39
728.755	36.44
729.156	36.48
729.557	36.42
729.958	36.42
730.359	36.43
730.76	36.48
731.161	36.5
731.562	36.55
731.962	36.57
732.363	36.6
732.763	36.64
733.164	36.65
733.564	36.7
733.965	36.72
734.365	36.75
734.766	36.79
735.166	36.82
735.566	36.85
735.966	36.87
736.366	36.88
736.766	36.88
737.166	36.9
737.566	36.93
737.966	36.94
738.365	36.97
738.765	37.02
739.165	37.03
739.564	37.03
739.964	37.04
740.363	37.04
740.763	37.06
741.162	37.09
741.561	37.09
741.96	37.08
742.36	37.11
742.759	37.11
743.158	37.08
743.557	37.07
743.955	37.08
744.354	37.07
744.753	37.09
745.152	37.1
745.55	37.13
745.949	37.14
746.348	37.16
746.746	37.17
747.144	37.19
747.543	37.2
747.941	37.2
748.339	37.19
748.737	37.21
749.136	37.21
749.534	37.2
749.932	37.17
750.33	37.18
750.727	37.18
751.125	37.17
751.523	37.17
751.921	37.18
752.318	37.19
752.716	37.21
753.113	37.21
753.511	37.21
753.908	37.24
754.305	37.26
754.703	37.25
755.1	37.24
755.497	37.26
755.894	37.24
756.291	37.23
756.688	37.23
757.085	37.23
757.482	37.25
757.878	37.24
758.275	37.23
758.672	37.22
759.068	37.23
759.465	37.22
759.861	37.2
760.258	37.22
760.654	37.22
761.05	37.24
761.447	37.24
761.843	37.22
762.239	37.21
762.635	37.2
763.031	37.2
763.427	37.2
763.822	37.21
764.218	37.21
764.614	37.22
765.01	37.21
765.405	37.21
765.801	37.19
766.196	37.21
766.592	37.21
766.987	37.21
767.382	37.21
767.778	37.23
768.173	37.22
768.568	37.23
768.963	37.22
769.358	37.23
769.753	37.23
770.148	37.24
770.542	37.21
770.937	37.22
771.332	37.21
771.726	37.21
772.121	37.18
772.515	37.19
772.91	37.16
773.304	37.17
773.699	37.15
774.093	37.14
774.487	37.13
774.881	37.15
775.275	37.12
775.669	37.09
776.063	37.08
776.457	37.09
776.851	37.07
777.245	37.08
777.638	37.04
778.032	37.05
778.425	37.08
778.819	37.08
779.212	37.09
779.606	37.12
779.999	37.15
780.392	37.17
780.786	37.17
781.179	37.18
781.572	37.22
781.965	37.25
782.358	37.25
782.751	37.22
783.143	37.23
783.536	37.23
783.929	37.22
784.322	37.23
784.714	37.22
785.107	37.22
785.499	37.24
785.891	37.21
786.284	37.19
786.676	37.2
787.068	37.21
787.46	37.2
787.852	37.2
788.245	37.2
788.636	37.18
789.028	37.16
789.42	37.15
789.812	37.13
790.204	37.13
790.595	37.14
790.987	37.12
791.378	37.12
791.77	37.12
792.161	37.11
792.553	37.12
792.944	37.13
793.335	37.16
793.726	37.18
794.117	37.19
794.508	37.18
794.899	37.18
795.29	37.2
795.681	37.16
796.072	37.18
796.463	37.23
796.853	37.2
797.244	37.21
797.634	37.19
798.025	37.2
798.415	37.21
798.806	37.22
799.196	37.21
799.586	37.21
799.976	37.25
800.366	37.24
800.756	37.2
801.146	37.2
801.536	37.22
801.926	37.24
802.316	37.23
802.706	37.22
803.095	37.23
803.485	37.23
803.874	37.22
804.264	37.23
804.653	37.25
805.043	37.28
805.432	37.28
805.821	37.27
806.21	37.27
806.599	37.28
806.988	37.3
807.377	37.31
807.766	37.33
808.155	37.34
808.544	37.35
808.933	37.35
809.321	37.35
809.71	37.36
810.098	37.35
810.487	37.33
810.875	37.31
811.264	37.31
811.652	37.31
812.04	37.33
812.428	37.34
812.816	37.31
813.204	37.28
813.592	37.27
813.98	37.26
814.368	37.29
814.756	37.29
815.144	37.26
815.531	37.26
815.919	37.26
816.306	37.24
816.694	37.23
817.081	37.23
817.469	37.28
817.856	37.24
818.243	37.25
818.63	37.23
819.017	37.24
819.404	37.25
819.791	37.23
820.178	37.25
820.565	37.22
820.952	37.22
821.339	37.21
821.725	37.22
822.112	37.28
822.498	37.29
822.885	37.3
823.271	37.3
823.657	37.29
824.044	37.31
824.43	37.29
824.816	37.31
825.202	37.32
825.588	37.35
825.974	37.32
826.36	37.28
826.746	37.27
827.132	37.28
827.517	37.28
827.903	37.31
828.289	37.3
828.674	37.31
829.06	37.31
829.445	37.3
829.83	37.29
830.216	37.28
830.601	37.29
830.986	37.28
831.371	37.28
831.756	37.27
832.141	37.28
832.526	37.28
832.911	37.26
833.295	37.28
833.68	37.27
834.065	37.3
834.449	37.31
834.834	37.32
835.218	37.35
835.603	37.34
835.987	37.33
836.371	37.32
836.755	37.32
837.139	37.31
837.524	37.3
837.908	37.31
838.291	37.29
838.675	37.28
839.059	37.27
839.443	37.24
839.827	37.23
840.21	37.21
840.594	37.21
840.977	37.2
841.361	37.2
841.744	37.17
842.127	37.15
842.511	37.15
842.894	37.14
843.277	37.14
843.66	37.13
844.043	37.12
844.426	37.14
844.809	37.13
845.191	37.14
845.574	37.15
845.957	37.17
846.339	37.17
846.722	37.16
847.104	37.18
847.487	37.17
847.869	37.17
848.252	37.19
848.634	37.18
849.016	37.18
849.398	37.18
849.78	37.17
850.162	37.18
850.544	37.18
850.926	37.18
851.307	37.17
851.689	37.18
852.071	37.2
852.452	37.19
852.834	37.21
853.215	37.23
853.597	37.23
853.978	37.23
854.359	37.24
854.741	37.26
855.122	37.27
855.503	37.27
855.884	37.26
856.265	37.25
856.646	37.24
857.026	37.27
857.407	37.26
857.788	37.26
858.169	37.26
858.549	37.25
858.93	37.26
859.31	37.26
859.69	37.28
860.071	37.3
860.451	37.3
860.831	37.32
861.211	37.29
861.591	37.3
861.971	37.3
862.351	37.3
862.731	37.31
863.111	37.29
863.491	37.29
863.87	37.26
864.25	37.24
864.629	37.24
865.009	37.24
865.388	37.23
865.768	37.21
866.147	37.2
866.526	37.2
866.905	37.21
867.284	37.22
867.663	37.2
868.042	37.23
868.421	37.25
868.8	37.26
869.179	37.26
869.558	37.27
869.936	37.29
870.315	37.31
870.693	37.32
871.072	37.31
871.45	37.32
871.828	37.34
872.207	37.35
872.585	37.33
872.963	37.32
873.341	37.31
873.719	37.31
874.097	37.28
874.475	37.3
874.853	37.3
875.23	37.32
875.608	37.31
875.986	37.33
876.363	37.33
876.741	37.34
877.118	37.37
877.495	37.4
877.873	37.41
878.25	37.46
878.627	37.44
879.004	37.45
879.381	37.45
879.758	37.43
880.135	37.42
880.512	37.41
880.889	37.4
881.265	37.38
881.642	37.37
882.019	37.37
882.395	37.36
882.772	37.36
883.148	37.34
883.524	37.32
883.901	37.32
884.277	37.29
884.653	37.29
885.029	37.27
885.405	37.29
885.781	37.28
886.157	37.27
886.532	37.26
886.908	37.25
887.284	37.26
887.659	37.25
888.035	37.25
888.411	37.25
888.786	37.26
889.161	37.28
889.537	37.24
889.912	37.24
890.287	37.24
890.662	37.23
891.037	37.22
891.412	37.22
891.787	37.19
892.162	37.19
892.536	37.18
892.911	37.15
893.286	37.14
893.66	37.13
894.035	37.13
894.409	37.1
894.784	37.11
895.158	37.12
895.532	37.12
895.906	37.12
896.281	37.15
896.655	37.16
897.029	37.17
897.402	37.15
897.776	37.17
898.15	37.18
898.524	37.2
898.898	37.18
899.271	37.17
899.645	37.18
900.018	37.22
900.392	37.22
900.765	37.22
901.138	37.21
901.511	37.24
901.884	37.25
902.258	37.25
902.631	37.26
903.003	37.31
903.376	37.33
903.749	37.29
904.122	37.29
904.495	37.29
904.867	37.3
905.24	37.32
905.612	37.32
905.985	37.3
906.357	37.31
906.729	37.3
907.102	37.29
907.474	37.3
907.846	37.32
908.218	37.3
908.59	37.3
908.962	37.28
909.334	37.26
909.705	37.25
910.077	37.26
910.449	37.23
910.82	37.23
911.192	37.23
911.563	37.2
911.935	37.18
912.306	37.2
912.677	37.22
913.048	37.25
913.419	37.26
913.79	37.27
914.161	37.27
914.532	37.27
914.903	37.28
915.274	37.27
915.645	37.28
916.015	37.31
916.386	37.33
916.756	37.31
917.127	37.31
917.497	37.32
917.868	37.32
918.238	37.33
918.608	37.37
918.978	37.39
919.348	37.41
919.718	37.41
920.088	37.42
920.458	37.41
920.828	37.4
921.198	37.37
921.567	37.38
921.937	37.41
922.306	37.41
922.676	37.39
923.045	37.37
923.415	37.35
923.784	37.35
924.153	37.34
924.522	37.36
924.891	37.36
925.26	37.37
925.629	37.34
925.998	37.28
926.367	37.27
926.736	37.29
927.104	37.31
927.473	37.29
927.842	37.28
928.21	37.29
928.578	37.27
928.947	37.29
929.315	37.28
929.683	37.29
930.051	37.32
930.42	37.32
930.788	37.28
931.156	37.25
931.523	37.27
931.891	37.3
932.259	37.31
932.627	37.32
932.994	37.3
933.362	37.29
933.729	37.29
934.097	37.26
934.464	37.24
934.831	37.25
935.199	37.28
935.566	37.27
935.933	37.21
936.3	37.18
936.667	37.19
937.034	37.24
937.401	37.28
937.767	37.29
938.134	37.32
938.501	37.32
938.867	37.36
939.234	37.34
939.6	37.37
939.967	37.43
940.333	37.4
940.699	37.39
941.065	37.31
941.431	37.28
941.798	37.26
942.163	37.27
942.529	37.3
942.895	37.26
943.261	37.22
943.627	37.2
943.992	37.18
944.358	37.18
944.723	37.19
945.089	37.16
945.454	37.18
945.82	37.16
946.185	37.13
946.55	37.11
946.915	37.05
947.28	37.07
947.645	37.05
948.01	37.02
948.375	37.02
948.74	36.98
949.104	37.02
949.469	36.97
949.834	36.95
950.198	36.92
950.562	36.89
950.927	36.87
951.291	36.8
951.655	36.72
952.02	36.71
952.384	36.64
952.748	36.62
953.112	36.57
953.476	36.52
953.839	36.5
954.203	36.42
954.567	36.37
954.931	36.38
955.294	36.39
955.658	36.46
956.021	36.45
956.385	36.45
956.748	36.43
957.111	36.45
957.474	36.51
957.837	36.46
958.2	36.49
958.563	36.46
958.926	36.43
959.289	36.45
959.652	36.45
960.015	36.43
960.377	36.46
960.74	36.43
961.102	36.4
961.465	36.36
961.827	36.42
962.189	36.45
962.552	36.47
962.914	36.5
963.276	36.45
963.638	36.42
964	36.43
964.362	36.42
964.724	36.42
965.085	36.4
965.447	36.38
965.809	36.38
966.17	36.39
966.532	36.39
966.893	36.38
967.255	36.39
967.616	36.38
967.977	36.38
968.338	36.37
968.699	36.4
969.061	36.38
969.421	36.46
969.782	36.45
970.143	36.38
970.504	36.4
970.865	36.4
971.225	36.4
971.586	36.39
971.946	36.36
972.307	36.34
972.667	36.31
973.027	36.37
973.388	36.34
973.748	36.36
974.108	36.45
974.468	36.41
974.828	36.47
975.188	36.41
975.548	36.44
975.907	36.42
976.267	36.44
976.627	36.47
976.986	36.42
977.346	36.33
977.705	36.32
978.064	36.28
978.424	36.34
978.783	36.27
979.142	36.33
979.501	36.32
979.86	36.37
980.219	36.38
980.578	36.43
980.937	36.5
981.296	36.48
981.654	36.47
982.013	36.5
982.371	36.46
982.73	36.47
983.088	36.42
983.447	36.4
983.805	36.38
984.163	36.38
984.521	36.31
984.879	36.23
985.237	36.31
985.595	36.33
985.953	36.31
986.311	36.26
986.669	36.25
987.026	36.31
987.384	36.38
987.741	36.38
988.099	36.51
988.456	36.52
988.814	36.58
989.171	36.59
989.528	36.58
989.885	36.62
990.242	36.65
990.599	36.7
990.956	36.72
991.313	36.68
991.67	36.69
992.027	36.7
992.383	36.71
992.74	36.78
993.096	36.73
993.453	36.73
993.809	36.73
994.165	36.86
994.522	36.94
994.878	36.96
995.234	36.95
995.59	36.96
995.946	36.89
996.302	36.93
996.658	36.94
997.013	36.99
997.369	37.1
997.725	37.12
998.08	37.12
998.436	37.03
998.791	37.02
999.147	37.03
999.502	37.12
999.857	37.1
1000.212	37.03
1000.567	36.95
1000.922	36.88
1001.277	36.72
1001.632	36.67
1001.987	36.64
1002.342	36.6
1002.696	36.56
1003.051	36.66
1003.406	36.59
1003.76	36.63
1004.114	36.61
1004.469	36.67
1004.823	36.97
1005.177	36.95
1005.531	37.22
1005.885	37.18
1006.239	37.25
1006.593	37.45
1006.947	37.47
1007.301	37.39
1007.655	37.4
1008.008	37.53
1008.362	37.54
1008.715	37.39
1009.069	37.57
1009.422	37.39
1009.776	37.42
1010.129	37.51
1010.482	37.41
1010.835	37.37
1011.188	37.55
1011.541	37.58
1011.894	37.54
1012.247	37.59
1012.6	37.6
1012.952	37.56
1013.305	37.56
1013.657	37.64
1014.01	37.67
1014.362	37.82
1014.715	37.93
1015.067	37.98
1015.419	37.93
1015.771	37.81
1016.123	37.85
1016.475	37.9
1016.827	37.9
1017.179	37.95
1017.531	38.06
1017.883	37.94
1018.234	37.87
1018.586	37.84
1018.938	37.77
1019.289	37.81
1019.64	38.01
1019.992	38
1020.343	37.93
1020.694	37.95
1021.045	37.99
1021.396	37.97
1021.747	38.17
1022.098	38.24
1022.449	38.2
1022.8	38.36
1023.151	38.35
1023.501	38.5
1023.852	38.58
1024.202	38.61
1024.553	38.77
1024.903	39.03
1025.253	39.03
1025.604	38.9
1025.954	38.7
1026.304	38.86
1026.654	39.1
1027.004	39.25
1027.354	39.39
1027.703	39.17
1028.053	39.31
1028.403	39.29
1028.753	38.68
1029.102	38.86
1029.452	39.12
1029.801	39.49
1030.15	39.46
1030.499	39.01
897.758	1391.06
901.051	1401.75
904.343	1394.85
907.636	1418.45
910.928	1377.41
914.22	1379.34
917.511	1359.63
920.803	1303.13
924.094	1294.72
927.384	1268.56
930.675	1215.89
933.965	1208.71
937.255	1135.34
940.544	1090.62
943.834	1039.2
947.123	1032.37
950.411	970.22
953.7	949.93
956.988	898.03
960.276	858.77
963.563	845.9
966.851	815.54
970.138	808.79
973.424	783.5
976.711	787.16
979.997	747.92
983.283	741.91
986.568	726.72
989.853	704.09
993.138	690.69
996.423	667.78
999.708	648.48
1002.992	641.1
1006.275	612.34
1009.559	606.78
1012.842	585.09
1016.125	567.68
1019.408	559.12
1022.69	550.49
1025.972	540.2
1029.254	526.38
1032.536	516.91
1035.817	504.36
1039.098	497.1
1042.379	486.62
1045.659	480.98
1048.939	468.98
1052.219	460.89
1055.498	452.48
1058.778	442.31
1062.057	430.79
1065.335	426.4
1068.614	422.48
1071.892	418.27
1075.17	404.77
1078.447	397.18
1081.724	393.8
1085.001	390.62
1088.278	382.52
1091.554	375.27
1094.83	375.45
1098.106	373.79
1101.382	370.42
1104.657	367.05
1107.932	361
1111.206	362.66
1114.481	353.44
1117.755	350.31
1121.029	347.37
1124.302	346.7
1127.575	339.65
1130.848	335.38
1134.121	331.85
1137.393	329.26
1140.665	321.48
1143.937	319.91
1147.208	318.79
1150.48	317.92
1153.75	313.56
1157.021	309.36
1160.291	309.15
1163.561	306.73
1166.831	306.81
1170.101	303.84
1173.37	303.65
1176.639	304.47
1179.907	301.62
1183.176	297.77
1186.444	297.59
1189.711	297.44
1192.979	296
1196.246	294.19
1199.513	295.14
1202.78	292.37
1206.046	292.84
1209.312	289.79
1212.578	290.41
1215.843	292.1
1219.108	290.76
1222.373	297.08
1225.638	298.61
1228.902	303.6
1232.166	303.83
1235.43	306.04
1238.693	310.58
1241.956	312.56
1245.219	317.08
1248.482	316.97
1251.744	317.3
1255.006	318.61
1258.268	309.2
1261.529	306.91
1264.79	304.6
1268.051	303.02
1271.312	299.48
1274.572	295.02
1277.832	291.97
1281.092	287.76
1284.351	285.65
1287.61	285.46
1290.869	280.96
1294.128	280.05
1297.386	279.91
1300.644	276.44
1303.902	276.93
1307.159	275.67
1310.416	276.5
1313.673	276.22
1316.93	278.37
1320.186	278.68
1323.442	279.52
1326.697	283.99
1329.953	285.08
1333.208	285.9
1336.463	289.86
1339.717	290.49
1342.972	293.26
1346.226	295.95
1349.479	296.28
1352.733	298.23
1355.986	299.24
1359.238	299.56
1362.491	300.99
1365.743	304.11
1368.995	304.09
1372.247	303.99
1375.498	303.84
1378.749	307.29
1382	303.19
1385.251	304.2
1388.501	302.66
1391.751	304.54
1395	303.12
1398.25	300.67
1401.499	299.14
1404.748	299.06
1407.996	296.14
1411.244	294.91
1414.492	292.72
1417.74	290.83
1420.987	287.12
1424.234	286.74
1427.481	282.46
1430.728	282.38
1433.974	279.72
1437.22	277.22
1440.465	276.91
1443.711	274.84
1446.956	273.57
1450.201	269.67
1453.445	267.18
1456.689	266.07
1459.933	261.33
1463.177	259.47
1466.42	255.27
1469.663	252.2
1472.906	250.61
1476.148	243.34
1479.391	240.21
1482.633	237.79
1485.874	234.23
1489.115	232.75
1492.356	229.69
1495.597	229.3
1498.838	225.81
1502.078	224.21
1505.318	223.3
1508.557	223.29
1511.797	223.1
1515.036	221.64
1518.274	221.26
1521.513	219.34
1524.751	218.75
1527.989	218.06
1531.227	216.5
1534.464	216.64
1537.701	215.09
1540.938	214.52
1544.174	211.87
1547.41	211.64
1550.646	210.32
1553.882	209.57
1557.117	207.26
1560.352	205.71
1563.587	205.3
1566.821	204.21
1570.055	201.8
1573.289	200.55
1576.523	199.96
1579.756	198.15
1582.989	196.86
1586.222	196.96
1589.454	195.49
1592.686	197.29
1595.918	196.1
1599.15	195.2
1602.381	195.56
1605.612	195.87
1608.843	196.33
1612.073	195.84
1615.303	197.14
1618.533	196.9
1621.762	196.37
1624.992	196.93
1628.221	196.2
1631.449	196.82
1634.678	195.81
1637.906	196.69
1641.134	196.66
1644.361	196.14
1647.588	197.04
1650.815	195.94
1654.042	195.5
1657.269	197.02
1660.495	196.85
1663.72	195.95
1666.946	196.44
1670.171	197.5
1673.396	197.48
1676.621	197.87
1679.845	198.03
1683.069	197.94
1686.293	199.19
1689.517	200.82
1692.74	200.16
1695.963	200.9
1699.185	203.29
1702.408	203.26
1705.63	204.11
1708.852	204.28
1712.073	204.71
1715.294	205.26
1718.515	206.87
1721.736	206.56
1724.956	207.06
1728.176	207.05
1731.396	209.15
1734.616	208.07
1737.835	209.18
1741.054	207.84
1744.272	208.28
1747.491	209.84
1750.709	210.26
1753.927	209.88
1757.144	209.57
1760.361	209.94
1763.578	210.48
1766.795	209.65
1770.011	211.58
1773.227	211.5
1776.443	214.14
1779.658	215.39
1782.874	214.57
1786.089	215.59
1789.303	216.35
1792.518	219
1795.732	219.14
1798.945	221.69
1802.159	221.87
1805.372	222.08
1808.585	225.71
1811.797	226.63
1815.01	226.79
1818.222	229.07
1821.434	230.82
1824.645	231.52
1827.856	235.53
1831.067	237.52
1834.278	236.42
1837.488	238.65
1840.698	240.56
1843.908	238.7
1847.117	239.57
1850.326	241.26
1853.535	241.3
1856.744	244.86
1859.952	244.63
1863.16	243.4
1866.368	241.21
1869.575	244.49
1872.782	240.89
1875.989	240.66
1879.196	239.94
1882.402	238.91
1885.608	239.84
1888.814	240.11
1892.019	240.24
1895.224	240.3
1898.429	238.76
1901.634	241.22
1904.838	241.33
1908.042	244.15
1911.246	244.87
1914.449	246.76
1917.652	247.23
1920.855	246.77
1924.058	246.58
1927.26	244.9
1930.462	246.06
1933.664	248.23
1936.865	246.85
1940.066	246.39
1943.267	244.93
1946.467	244.68
1949.668	246.46
1952.868	248.91
1956.067	248.99
1959.267	249.61
1962.466	250.48
1965.665	249.19
1968.863	250.59
1972.061	254.35
1975.259	255.95
1978.457	258.14
1981.654	260.37
1984.852	260.62
1988.048	260.17
1991.245	262.37
1994.441	265.84
1997.637	267.16
2000.833	272.82
2004.028	275.64
2007.223	275.07
2010.418	278.5
2013.613	283.59
2016.807	286.46
2020.001	288.43
2023.194	292.65
2026.388	299.29
2029.581	305.05
2032.774	308.31
2035.966	313.18
2039.158	314.02
2042.35	321.07
2045.542	324.04
2048.733	328.32
2051.924	332.95
2055.115	339.03
2058.306	339.77
2061.496	343.28
2064.686	343.03
2067.875	349.57
2071.065	350.52
2074.254	349.7
2077.442	353.08
2080.631	354.54
2083.819	358.11
2087.007	358.41
2090.195	362.82
2093.382	366.01
2096.569	363.4
2099.756	368.33
2102.942	368.25
2106.128	372.45
2109.314	380.3
2112.5	379.72
2115.685	388.05
2118.87	388.52
2122.055	397.71
2125.239	400.19
2128.424	404.02
2131.608	408.62
2134.791	414.52
2137.974	416.14
2141.157	416.66
2144.34	418.3
2147.523	424.08
2150.705	420.44
2153.887	424.09
2157.068	422.91
2160.25	418.83
2163.431	422.96
2166.611	425.59
2169.792	434.06
2172.972	438.65
2176.152	442.26
2179.331	447.93
2182.511	455.45
2185.69	460.86
2188.868	470.63
2192.047	471.54
2195.225	485.9
2198.403	495.89
2201.58	507.09
2204.758	517.88
2207.935	528.42
2211.111	537.59
2214.288	543.07
2217.464	544.9
2220.64	553.14
2223.815	560.1
2226.991	582.72
2230.166	584.09
2233.34	595.24
2236.515	603.74
2239.689	601.84
2242.863	605.87
2246.036	624.13
2249.209	618.81
2252.382	629.63
2255.555	648.51
2258.727	651.4
2261.9	654.64
2265.071	661.05
2268.243	669.83
2271.414	678.39
2274.585	694.36
2277.756	703.19
2280.926	706.05
2284.096	724.47
2287.266	740.85
2290.436	744.72
2293.605	762.01
2296.774	785.71
2299.942	811.46
2303.111	816.86
2306.279	834.47
2309.447	847.49
2312.614	868.23
2315.781	891.68
2318.948	935.61
2322.115	921.92
2325.281	974.14
2328.447	951.77
2331.613	993.54
2334.779	980.56
2337.944	1023.94
2341.109	1034.62
2344.274	1056.86
2347.438	1097.09
2350.602	1098.73
2353.766	1128.92
2356.929	1143.68
2360.092	1133.55
2363.255	1220.97
2366.418	1213.47
2369.58	1237.43
2372.742	1316.21
2375.904	1347.97
2379.066	1344.96
2382.227	1314.73
2385.388	1428.31
2388.548	1428.63
2391.709	1446.55
2394.869	1616.19
2398.029	1543.41
2401.188	1589.65
2404.347	1578
2407.506	1548.25
2410.665	1596.38
2413.823	1691.36
2416.981	1790.19
2420.139	1731.12
2423.296	1712.63
2426.453	1790.79
2429.61	1718.24
2432.767	1799.27
2435.923	1775.74
2439.079	1949.58
2442.235	1978.78
2445.391	1956.26
2448.546	1945.22
2451.701	1886.11
2454.855	1883.57
2458.009	2000.66
2461.163	2081.28
2464.317	2161.83
2467.471	2215.65
2470.624	2216.44
2473.777	2156.66
2476.929	2099.79
2480.082	2041.88
2483.234	2014.04
2486.385	2129.05
2489.537	2137.21
2492.688	2216.5
2495.839	2156.75
2498.989	2106.06
2502.14	2119.54
2505.29	2144.61
2508.439	2176.74
2511.589	2169.23
2514.738	2366.82
2517.887	2319.16
2521.035	2438.04
2524.183	2467.7
2527.331	2481.13
2530.479	2469.87
2533.627	2491.64
