Data from N_2_DIV_WI_4N_Splice17_13-19-40-506.txt Node
Date: Sat Mar 07 13:19:40 EST 2020
User: sa697716
Spectrometer: NQ5500242
Trigger mode: 0
Integration Time (sec): 1.450000E-1
Scans to average: 20
Nonlinearity correction enabled: false
Boxcar width: 5
Storing dark spectrum: false
XAxis mode: Wavelengths
Number of Pixels in Spectrum: 512
>>>>>Begin Spectral Data<<<<<
187.83	83.47
188.298	112.6
188.766	113.73
189.233	94.52
189.701	96.44
190.169	119
190.636	158.28
191.104	251.97
191.571	241.58
192.039	235.48
192.506	154.89
192.974	73.33
193.441	311.41
193.908	196.07
194.375	111.65
194.842	82.93
195.31	126.89
195.777	320.92
196.244	53.58
196.711	39.78
197.177	42.06
197.644	41.14
198.111	39.71
198.578	39.04
199.045	39.28
199.511	39.54
199.978	39.85
200.445	40.13
200.911	39.92
201.378	39.99
201.844	39.91
202.31	39.66
202.777	39.72
203.243	39.89
203.709	39.9
204.176	39.59
204.642	39.16
205.108	38.88
205.574	38.65
206.04	38.38
206.506	37.87
206.972	37.87
207.438	37.12
207.903	36.47
208.369	35.85
208.835	35.07
209.301	34.49
209.766	33.69
210.232	32.88
210.697	31.94
211.163	31.39
211.628	30.81
212.094	29.98
212.559	29.6
213.024	29.17
213.49	28.61
213.955	28.08
214.42	27.4
214.885	26.81
215.35	25.9
215.815	24.83
216.28	23.37
216.745	21.7
217.21	20.11
217.675	18.6
218.14	17.29
218.604	16.22
219.069	15.34
219.534	14.67
219.998	14.06
220.463	13.57
220.927	13.1
221.392	12.75
221.856	12.47
222.32	12.21
222.785	12.03
223.249	11.84
223.713	11.64
224.177	11.48
224.642	11.31
225.106	11.14
225.57	10.98
226.034	10.86
226.497	10.72
226.961	10.58
227.425	10.46
227.889	10.33
228.353	10.21
228.816	10.09
229.28	9.99
229.744	9.88
230.207	9.76
230.671	9.66
231.134	9.55
231.597	9.46
232.061	9.38
232.524	9.29
232.987	9.21
233.45	9.14
233.914	9.05
234.377	8.97
234.84	8.88
235.303	8.81
235.766	8.75
236.229	8.68
236.691	8.62
237.154	8.54
237.617	8.48
238.08	8.41
238.542	8.34
239.005	8.3
239.468	8.23
239.93	8.19
240.393	8.13
240.855	8.06
241.317	8
241.78	7.93
242.242	7.87
242.704	7.82
243.166	7.76
243.629	7.72
244.091	7.65
244.553	7.6
245.015	7.55
245.477	7.5
245.939	7.45
246.4	7.41
246.862	7.37
247.324	7.33
247.786	7.28
248.247	7.24
248.709	7.19
249.17	7.13
249.632	7.11
250.093	7.07
250.555	7.04
251.016	7
251.477	6.96
251.939	6.93
252.4	6.9
252.861	6.87
253.322	6.83
253.783	6.8
254.244	6.79
254.705	6.75
255.166	6.71
255.627	6.67
256.088	6.64
256.549	6.62
257.009	6.57
257.47	6.53
257.931	6.49
258.391	6.44
258.852	6.4
259.312	6.36
259.773	6.33
260.233	6.29
260.694	6.26
261.154	6.22
261.614	6.18
262.074	6.16
262.534	6.12
262.994	6.1
263.455	6.07
263.915	6.04
264.374	6.01
264.834	5.98
265.294	5.96
265.754	5.94
266.214	5.93
266.673	5.91
267.133	5.89
267.593	5.87
268.052	5.86
268.512	5.85
268.971	5.83
269.431	5.82
269.89	5.8
270.349	5.78
270.809	5.76
271.268	5.74
271.727	5.72
272.186	5.7
272.645	5.68
273.104	5.65
273.563	5.64
274.022	5.62
274.481	5.61
274.94	5.59
275.399	5.58
275.857	5.56
276.316	5.54
276.775	5.53
277.233	5.51
277.692	5.5
278.15	5.48
278.609	5.47
279.067	5.45
279.525	5.44
279.984	5.42
280.442	5.39
280.9	5.38
281.358	5.36
281.816	5.35
282.274	5.33
282.732	5.3
283.19	5.28
283.648	5.26
284.106	5.23
284.564	5.21
285.021	5.2
285.479	5.19
285.937	5.16
286.394	5.15
286.852	5.13
287.309	5.11
287.767	5.09
288.224	5.07
288.682	5.05
289.139	5.03
289.596	5.01
290.053	4.98
290.511	4.96
290.968	4.94
291.425	4.92
291.882	4.91
292.339	4.9
292.796	4.89
293.252	4.87
293.709	4.86
294.166	4.86
294.623	4.85
295.079	4.84
295.536	4.83
295.992	4.82
296.449	4.81
296.905	4.8
297.362	4.78
297.818	4.77
298.274	4.77
298.731	4.75
299.187	4.74
299.643	4.72
300.099	4.71
300.555	4.7
301.011	4.69
301.467	4.68
301.923	4.66
302.379	4.65
302.835	4.64
303.291	4.63
303.746	4.62
304.202	4.61
304.658	4.61
305.113	4.6
305.569	4.61
306.024	4.6
306.479	4.59
306.935	4.58
307.39	4.58
307.845	4.57
308.301	4.57
308.756	4.57
309.211	4.56
309.666	4.57
310.121	4.56
310.576	4.55
311.031	4.54
311.486	4.54
311.94	4.54
312.395	4.53
312.85	4.53
313.305	4.52
313.759	4.51
314.214	4.5
314.668	4.48
315.123	4.48
315.577	4.49
316.032	4.48
316.486	4.48
316.94	4.47
317.394	4.47
317.849	4.45
318.303	4.44
318.757	4.43
319.211	4.42
319.665	4.41
320.119	4.39
320.572	4.37
321.026	4.36
321.48	4.34
321.934	4.33
322.387	4.32
322.841	4.31
323.295	4.31
323.748	4.3
324.202	4.3
324.655	4.3
325.108	4.3
325.562	4.3
326.015	4.3
326.468	4.31
326.921	4.3
327.374	4.3
327.827	4.3
328.28	4.29
328.733	4.3
329.186	4.29
329.639	4.29
330.092	4.28
330.545	4.28
330.997	4.28
331.45	4.27
331.903	4.28
332.355	4.28
332.808	4.28
333.26	4.27
333.713	4.26
334.165	4.25
334.617	4.24
335.069	4.24
335.522	4.24
335.974	4.24
336.426	4.23
336.878	4.22
337.33	4.21
337.782	4.21
338.234	4.21
338.686	4.2
339.137	4.21
339.589	4.2
340.041	4.19
340.493	4.17
340.944	4.16
341.396	4.16
341.847	4.15
342.299	4.13
342.75	4.12
343.201	4.1
343.653	4.09
344.104	4.06
344.555	4.05
345.006	4.05
345.457	4.04
345.908	4.03
346.359	4.02
346.81	4.02
347.261	4.01
347.712	4.01
348.163	4
348.613	4
349.064	4.01
349.515	4.01
349.965	4
350.416	3.99
350.866	3.99
351.317	3.98
351.767	3.98
352.217	3.98
352.668	3.98
353.118	3.98
353.568	3.97
354.018	3.97
354.468	3.97
354.918	3.96
355.368	3.96
355.818	3.96
356.268	3.96
356.718	3.96
357.168	3.95
357.617	3.94
358.067	3.94
358.517	3.94
358.966	3.94
359.416	3.95
359.865	3.94
360.315	3.94
360.764	3.94
361.213	3.93
361.663	3.91
362.112	3.92
362.561	3.93
363.01	3.93
363.459	3.91
363.908	3.89
364.357	3.88
364.806	3.88
365.255	3.88
365.703	3.88
366.152	3.88
366.601	3.88
367.05	3.88
367.498	3.86
367.947	3.86
368.395	3.87
368.844	3.87
369.292	3.88
369.74	3.88
370.189	3.88
370.637	3.87
371.085	3.86
371.533	3.85
371.981	3.85
372.429	3.85
372.877	3.84
373.325	3.83
373.773	3.82
374.221	3.81
374.669	3.8
375.116	3.79
375.564	3.79
376.012	3.78
376.459	3.78
376.907	3.78
377.354	3.76
377.801	3.76
378.249	3.76
378.696	3.76
379.143	3.76
379.591	3.76
380.038	3.76
380.485	3.76
380.932	3.75
381.379	3.74
381.826	3.74
382.273	3.74
382.72	3.72
383.166	3.71
383.613	3.69
384.06	3.67
384.506	3.66
384.953	3.66
385.4	3.66
385.846	3.67
386.292	3.66
386.739	3.65
387.185	3.64
387.631	3.65
388.078	3.65
388.524	3.64
388.97	3.64
389.416	3.65
389.862	3.65
390.308	3.65
390.754	3.65
391.2	3.65
391.645	3.65
392.091	3.68
392.537	3.67
392.983	3.68
393.428	3.68
393.874	3.68
394.319	3.68
394.765	3.67
395.21	3.67
395.655	3.66
396.101	3.68
396.546	3.68
396.991	3.68
397.436	3.68
397.881	3.7
398.326	3.71
398.771	3.72
399.216	3.72
399.661	3.74
400.106	3.75
400.551	3.75
400.995	3.75
401.44	3.75
401.885	3.75
402.329	3.76
402.774	3.76
403.218	3.78
403.663	3.78
404.107	3.8
404.551	3.8
404.995	3.81
405.44	3.81
405.884	3.82
406.328	3.82
406.772	3.82
407.216	3.83
407.66	3.83
408.104	3.82
408.547	3.82
408.991	3.83
409.435	3.83
409.879	3.83
410.322	3.85
410.766	3.86
411.209	3.88
411.653	3.91
412.096	3.92
412.54	3.93
412.983	3.94
413.426	3.98
413.869	3.99
414.312	4.01
414.756	4.02
415.199	4.03
415.642	4.03
416.085	4.04
416.527	4.03
416.97	4.01
417.413	4.01
417.856	4
418.298	3.98
418.741	3.98
419.184	3.98
419.626	3.98
420.069	3.97
420.511	3.98
420.953	3.98
421.396	4
421.838	4.01
422.28	4.01
422.722	4.03
423.164	4.03
423.606	4.04
424.048	4.05
424.49	4.06
424.932	4.06
425.374	4.05
425.816	4.02
426.258	4.01
426.699	4
427.141	4.01
427.582	4.02
428.024	4.02
428.465	4.02
428.907	4.01
429.348	3.99
429.789	3.98
430.231	4.01
430.672	4.02
431.113	4.04
431.554	4.05
431.995	4.05
432.436	4.04
432.877	4.05
433.318	4.07
433.759	4.08
434.2	4.09
434.64	4.11
435.081	4.13
435.522	4.14
435.962	4.15
436.403	4.17
436.843	4.18
437.284	4.18
437.724	4.17
438.164	4.15
438.604	4.17
439.045	4.17
439.485	4.17
439.925	4.16
440.365	4.16
440.805	4.15
441.245	4.16
441.685	4.17
442.125	4.18
442.564	4.19
443.004	4.2
443.444	4.2
443.883	4.21
444.323	4.2
444.762	4.21
445.202	4.22
445.641	4.22
446.081	4.21
446.52	4.2
446.959	4.22
447.398	4.23
447.837	4.22
448.276	4.23
448.716	4.23
449.154	4.24
449.593	4.25
450.032	4.24
450.471	4.23
450.91	4.23
451.349	4.24
451.787	4.22
452.226	4.2
452.664	4.21
453.103	4.19
453.541	4.18
453.98	4.17
454.418	4.15
454.856	4.15
455.295	4.14
455.733	4.13
456.171	4.12
456.609	4.11
457.047	4.09
457.485	4.08
457.923	4.08
458.361	4.08
458.798	4.08
459.236	4.08
459.674	4.07
460.111	4.07
460.549	4.07
460.987	4.06
461.424	4.07
461.862	4.08
462.299	4.08
462.736	4.08
463.173	4.09
463.611	4.09
464.048	4.1
464.485	4.11
464.922	4.11
465.359	4.13
465.796	4.14
466.233	4.14
466.67	4.15
467.106	4.16
467.543	4.16
467.98	4.13
468.416	4.11
468.853	4.1
469.29	4.1
469.726	4.09
470.162	4.08
470.599	4.08
471.035	4.07
471.471	4.05
471.907	4.04
472.344	4.03
472.78	4.05
473.216	4.05
473.652	4.05
474.088	4.03
474.523	4.03
474.959	4.01
475.395	3.99
475.831	3.98
476.266	3.98
476.702	3.97
477.138	3.97
477.573	3.94
478.008	3.94
478.444	3.91
478.879	3.92
479.314	3.9
479.75	3.9
480.185	3.88
480.62	3.87
481.055	3.86
481.49	3.85
481.925	3.84
482.36	3.84
482.795	3.82
483.229	3.82
483.664	3.82
484.099	3.81
484.534	3.8
484.968	3.81
485.403	3.82
485.837	3.82
486.271	3.82
486.706	3.83
487.14	3.82
487.574	3.84
488.009	3.85
488.443	3.85
488.877	3.86
489.311	3.88
489.745	3.9
490.179	3.92
490.613	3.95
491.046	3.96
491.48	3.97
491.914	4
492.348	4.02
492.781	4.04
493.215	4.08
493.648	4.1
494.082	4.12
494.515	4.15
494.948	4.18
495.382	4.2
495.815	4.23
496.248	4.27
496.681	4.31
497.114	4.35
497.547	4.39
497.98	4.44
498.413	4.48
498.846	4.54
499.279	4.59
499.711	4.64
500.144	4.71
500.577	4.77
501.009	4.83
501.442	4.9
501.874	4.99
502.306	5.06
502.739	5.15
503.171	5.24
503.603	5.31
504.036	5.42
504.468	5.51
504.9	5.61
505.332	5.71
505.764	5.83
506.196	5.94
506.627	6.06
507.059	6.19
507.491	6.31
507.923	6.45
508.354	6.61
508.786	6.76
509.217	6.91
509.649	7.08
510.08	7.25
510.512	7.42
510.943	7.6
511.374	7.78
511.805	7.97
512.237	8.16
512.668	8.35
513.099	8.54
513.53	8.74
513.961	8.95
514.391	9.16
514.822	9.37
515.253	9.58
515.684	9.8
516.114	10.02
516.545	10.24
516.975	10.47
517.406	10.68
517.836	10.91
518.267	11.15
518.697	11.37
519.127	11.59
519.558	11.83
519.988	12.05
520.418	12.26
520.848	12.49
521.278	12.7
521.708	12.98
522.138	13.2
522.567	13.4
522.997	13.61
523.427	13.82
523.857	14.02
524.286	14.19
524.716	14.38
525.145	14.56
525.575	14.73
526.004	14.91
526.433	15.02
526.863	15.18
527.292	15.33
527.721	15.47
528.15	15.59
528.579	15.74
529.008	15.88
529.437	16
529.866	16.11
530.295	16.22
530.724	16.32
531.152	16.41
531.581	16.52
532.01	16.61
532.438	16.71
532.867	16.79
533.295	16.87
533.723	16.94
534.152	17.01
534.58	17.09
535.008	17.15
535.436	17.22
535.865	17.27
536.293	17.31
536.721	17.35
537.149	17.39
537.576	17.43
538.004	17.48
538.432	17.52
538.86	17.55
539.287	17.57
539.715	17.61
540.143	17.64
540.57	17.67
540.998	17.69
541.425	17.72
541.852	17.74
542.28	17.77
542.707	17.78
543.134	17.78
543.561	17.82
543.988	17.84
544.415	17.85
544.842	17.86
545.269	17.89
545.696	17.91
546.123	17.93
546.549	17.96
546.976	17.98
547.403	18
547.829	18.02
548.256	18.04
548.682	18.06
549.108	18.07
549.535	18.09
549.961	18.09
550.387	18.08
550.813	18.08
551.24	18.06
551.666	18.07
552.092	18.05
552.518	18.04
552.943	18.02
553.369	18
553.795	17.99
554.221	17.96
554.646	17.93
555.072	17.9
555.498	17.86
555.923	17.82
556.349	17.76
556.774	17.71
557.199	17.65
557.625	17.58
558.05	17.51
558.475	17.44
558.9	17.37
559.325	17.3
559.75	17.23
560.175	17.16
560.6	17.06
561.025	16.98
561.449	16.88
561.874	16.79
562.299	16.7
562.723	16.59
563.148	16.47
563.572	16.35
563.997	16.24
564.421	16.11
564.846	15.99
565.27	15.87
565.694	15.74
566.118	15.62
566.542	15.5
566.966	15.37
567.39	15.26
567.814	15.15
568.238	15.02
568.662	14.89
569.086	14.77
569.509	14.66
569.933	14.54
570.357	14.42
570.78	14.29
571.204	14.17
571.627	14.06
572.05	13.93
572.474	13.82
572.897	13.71
573.32	13.59
573.743	13.49
574.166	13.37
574.589	13.26
575.012	13.16
575.435	13.08
575.858	12.99
576.281	12.89
576.704	12.81
577.126	12.72
577.549	12.64
577.972	12.55
578.394	12.47
578.817	12.4
579.239	12.33
579.661	12.27
580.084	12.19
580.506	12.12
580.928	12.06
581.35	11.99
581.772	11.92
582.194	11.86
582.616	11.8
583.038	11.73
583.46	11.66
583.882	11.61
584.303	11.53
584.725	11.47
585.147	11.42
585.568	11.36
585.99	11.31
586.411	11.26
586.833	11.21
587.254	11.16
587.675	11.12
588.096	11.08
588.518	11.03
588.939	11
589.36	10.97
589.781	10.91
590.202	10.88
590.623	10.85
591.043	10.81
591.464	10.79
591.885	10.75
592.305	10.72
592.726	10.69
593.147	10.67
593.567	10.63
593.987	10.6
594.408	10.58
594.828	10.54
595.248	10.53
595.669	10.5
596.089	10.46
596.509	10.43
596.929	10.42
597.349	10.39
597.769	10.37
598.189	10.34
598.608	10.31
599.028	10.29
599.448	10.26
599.867	10.22
600.287	10.19
600.706	10.16
601.126	10.13
601.545	10.09
601.965	10.06
602.384	10.01
602.803	9.97
603.222	9.93
603.641	9.88
604.061	9.85
604.48	9.8
604.898	9.76
605.317	9.72
605.736	9.67
606.155	9.62
606.574	9.57
606.992	9.51
607.411	9.46
607.829	9.38
608.248	9.31
608.666	9.25
609.085	9.19
609.503	9.13
609.921	9.07
610.339	9.02
610.758	8.96
611.176	8.91
611.594	8.85
612.012	8.79
612.43	8.76
612.847	8.7
613.265	8.65
613.683	8.59
614.101	8.53
614.518	8.47
614.936	8.42
615.353	8.35
615.771	8.3
616.188	8.25
616.606	8.21
617.023	8.16
617.44	8.12
617.857	8.08
618.274	8.04
618.691	8.01
619.108	7.97
619.525	7.93
619.942	7.9
620.359	7.88
620.776	7.85
621.192	7.83
621.609	7.81
622.026	7.77
622.442	7.75
622.859	7.73
623.275	7.71
623.691	7.69
624.108	7.67
624.524	7.65
624.94	7.64
625.356	7.63
625.772	7.62
626.188	7.6
626.604	7.61
627.02	7.59
627.436	7.59
627.852	7.58
628.268	7.57
628.683	7.56
629.099	7.55
629.514	7.54
629.93	7.51
630.345	7.5
630.761	7.49
631.176	7.46
631.591	7.44
632.007	7.4
632.422	7.37
632.837	7.34
633.252	7.3
633.667	7.26
634.082	7.21
634.497	7.16
634.911	7.12
635.326	7.06
635.741	7.02
636.155	6.96
636.57	6.91
636.984	6.85
637.399	6.8
637.813	6.73
638.228	6.65
638.642	6.59
639.056	6.51
639.47	6.43
639.884	6.36
640.298	6.27
640.712	6.19
641.126	6.11
641.54	6.03
641.954	5.95
642.368	5.88
642.781	5.82
643.195	5.75
643.609	5.7
644.022	5.63
644.436	5.57
644.849	5.51
645.262	5.45
645.676	5.39
646.089	5.35
646.502	5.31
646.915	5.26
647.328	5.22
647.741	5.17
648.154	5.12
648.567	5.1
648.98	5.07
649.393	5.05
649.805	5.02
650.218	5
650.631	4.97
651.043	4.95
651.456	4.92
651.868	4.9
652.28	4.89
652.693	4.87
653.105	4.84
653.517	4.81
653.929	4.78
654.341	4.76
654.753	4.72
655.165	4.68
655.577	4.65
655.989	4.63
656.401	4.58
656.813	4.55
657.224	4.51
657.636	4.46
658.047	4.43
658.459	4.38
658.87	4.34
659.282	4.3
659.693	4.27
660.104	4.2
660.515	4.15
660.926	4.11
661.338	4.06
661.749	4.03
662.159	4
662.57	3.97
662.981	3.93
663.392	3.9
663.803	3.86
664.213	3.83
664.624	3.82
665.035	3.8
665.445	3.79
665.855	3.77
666.266	3.75
666.676	3.74
667.086	3.72
667.497	3.7
667.907	3.7
668.317	3.7
668.727	3.7
669.137	3.7
669.547	3.71
669.956	3.7
670.366	3.71
670.776	3.71
671.186	3.72
671.595	3.72
672.005	3.73
672.414	3.73
672.824	3.74
673.233	3.76
673.642	3.77
674.052	3.78
674.461	3.8
674.87	3.81
675.279	3.83
675.688	3.86
676.097	3.88
676.506	3.91
676.915	3.93
677.323	3.96
677.732	3.98
678.141	4.02
678.549	4.04
678.958	4.08
679.366	4.11
679.775	4.14
680.183	4.18
680.592	4.22
681	4.25
681.408	4.3
681.816	4.35
682.224	4.4
682.632	4.45
683.04	4.51
683.448	4.58
683.856	4.66
684.264	4.75
684.671	4.84
685.079	4.95
685.487	5.07
685.894	5.21
686.302	5.36
686.709	5.53
687.116	5.72
687.524	5.93
687.931	6.16
688.338	6.4
688.745	6.65
689.152	6.93
689.559	7.23
689.966	7.55
690.373	7.9
690.78	8.25
691.187	8.62
691.593	9
692	9.4
692.407	9.81
692.813	10.25
693.22	10.68
693.626	11.14
694.032	11.6
694.439	12.06
694.845	12.53
695.251	13
695.657	13.47
696.063	13.94
696.469	14.42
696.875	14.91
697.281	15.38
697.687	15.87
698.093	16.33
698.498	16.79
698.904	17.26
699.31	17.72
699.715	18.2
700.12	18.66
700.526	19.12
700.931	19.57
701.337	20.01
701.742	20.43
702.147	20.86
702.552	21.29
702.957	21.71
703.362	22.12
703.767	22.53
704.172	22.92
704.577	23.31
704.981	23.71
705.386	24.08
705.791	24.45
706.195	24.83
706.6	25.2
707.004	25.56
707.408	25.9
707.813	26.25
708.217	26.6
708.621	26.94
709.025	27.27
709.43	27.6
709.834	27.93
710.237	28.26
710.641	28.58
711.045	28.9
711.449	29.21
711.853	29.55
712.256	29.85
712.66	30.14
713.064	30.42
713.467	30.71
713.87	30.99
714.274	31.25
714.677	31.53
715.08	31.79
715.484	32.05
715.887	32.33
716.29	32.55
716.693	32.81
717.096	33.06
717.499	33.33
717.901	33.56
718.304	33.79
718.707	34.04
719.109	34.26
719.512	34.5
719.915	34.71
720.317	34.9
720.719	35.08
721.122	35.29
721.524	35.48
721.926	35.66
722.328	35.85
722.731	36.03
723.133	36.21
723.535	36.38
723.937	36.53
724.338	36.69
724.74	36.85
725.142	37.1
725.544	37.23
725.945	37.41
726.347	37.5
726.748	37.63
727.15	37.74
727.551	37.89
727.952	37.98
728.354	38.1
728.755	38.21
729.156	38.31
729.557	38.35
729.958	38.44
730.359	38.53
730.76	38.65
731.161	38.76
731.562	38.86
731.962	38.93
732.363	39.03
732.763	39.11
733.164	39.17
733.564	39.27
733.965	39.33
734.365	39.41
734.766	39.46
735.166	39.52
735.566	39.56
735.966	39.63
736.366	39.68
736.766	39.76
737.166	39.81
737.566	39.87
737.966	39.91
738.365	39.96
738.765	40
739.165	40.06
739.564	40.13
739.964	40.18
740.363	40.21
740.763	40.26
741.162	40.3
741.561	40.33
741.96	40.35
742.36	40.41
742.759	40.44
743.158	40.44
743.557	40.44
743.955	40.46
744.354	40.49
744.753	40.53
745.152	40.56
745.55	40.58
745.949	40.63
746.348	40.66
746.746	40.65
747.144	40.67
747.543	40.72
747.941	40.77
748.339	40.76
748.737	40.77
749.136	40.76
749.534	40.74
749.932	40.75
750.33	40.73
750.727	40.76
751.125	40.78
751.523	40.78
751.921	40.78
752.318	40.79
752.716	40.8
753.113	40.81
753.511	40.83
753.908	40.87
754.305	40.88
754.703	40.88
755.1	40.85
755.497	40.84
755.894	40.83
756.291	40.81
756.688	40.79
757.085	40.78
757.482	40.76
757.878	40.76
758.275	40.74
758.672	40.74
759.068	40.76
759.465	40.76
759.861	40.77
760.258	40.79
760.654	40.81
761.05	40.82
761.447	40.84
761.843	40.85
762.239	40.84
762.635	40.86
763.031	40.85
763.427	40.84
763.822	40.85
764.218	40.89
764.614	40.91
765.01	40.91
765.405	40.91
765.801	40.91
766.196	40.91
766.592	40.94
766.987	40.9
767.382	40.91
767.778	40.92
768.173	40.93
768.568	40.91
768.963	40.89
769.358	40.9
769.753	40.87
770.148	40.86
770.542	40.87
770.937	40.86
771.332	40.86
771.726	40.87
772.121	40.88
772.515	40.87
772.91	40.86
773.304	40.87
773.699	40.87
774.093	40.88
774.487	40.89
774.881	40.89
775.275	40.88
775.669	40.87
776.063	40.85
776.457	40.86
776.851	40.85
777.245	40.84
777.638	40.81
778.032	40.81
778.425	40.82
778.819	40.82
779.212	40.86
779.606	40.88
779.999	40.88
780.392	40.9
780.786	40.89
781.179	40.89
781.572	40.9
781.965	40.93
782.358	40.92
782.751	40.93
783.143	40.91
783.536	40.88
783.929	40.86
784.322	40.88
784.714	40.88
785.107	40.89
785.499	40.89
785.891	40.89
786.284	40.87
786.676	40.88
787.068	40.86
787.46	40.86
787.852	40.88
788.245	40.88
788.636	40.86
789.028	40.85
789.42	40.84
789.812	40.85
790.204	40.85
790.595	40.87
790.987	40.9
791.378	40.91
791.77	40.92
792.161	40.91
792.553	40.92
792.944	40.93
793.335	40.92
793.726	40.92
794.117	40.93
794.508	40.92
794.899	40.89
795.29	40.87
795.681	40.84
796.072	40.83
796.463	40.85
796.853	40.84
797.244	40.85
797.634	40.87
798.025	40.9
798.415	40.88
798.806	40.89
799.196	40.89
799.586	40.92
799.976	40.96
800.366	40.97
800.756	40.95
801.146	40.96
801.536	40.96
801.926	40.96
802.316	40.95
802.706	40.98
803.095	40.98
803.485	41
803.874	40.97
804.264	40.95
804.653	40.96
805.043	40.96
805.432	40.95
805.821	40.95
806.21	40.94
806.599	40.95
806.988	40.93
807.377	40.92
807.766	40.91
808.155	40.89
808.544	40.9
808.933	40.88
809.321	40.88
809.71	40.87
810.098	40.84
810.487	40.81
810.875	40.8
811.264	40.8
811.652	40.81
812.04	40.8
812.428	40.84
812.816	40.83
813.204	40.83
813.592	40.81
813.98	40.82
814.368	40.85
814.756	40.88
815.144	40.86
815.531	40.86
815.919	40.87
816.306	40.89
816.694	40.86
817.081	40.88
817.469	40.91
817.856	40.91
818.243	40.89
818.63	40.88
819.017	40.87
819.404	40.86
819.791	40.87
820.178	40.87
820.565	40.84
820.952	40.85
821.339	40.81
821.725	40.8
822.112	40.8
822.498	40.81
822.885	40.83
823.271	40.84
823.657	40.82
824.044	40.82
824.43	40.79
824.816	40.8
825.202	40.76
825.588	40.78
825.974	40.76
826.36	40.76
826.746	40.76
827.132	40.75
827.517	40.74
827.903	40.77
828.289	40.78
828.674	40.79
829.06	40.78
829.445	40.8
829.83	40.79
830.216	40.79
830.601	40.79
830.986	40.78
831.371	40.78
831.756	40.77
832.141	40.77
832.526	40.75
832.911	40.75
833.295	40.74
833.68	40.76
834.065	40.77
834.449	40.77
834.834	40.76
835.218	40.77
835.603	40.74
835.987	40.73
836.371	40.73
836.755	40.73
837.139	40.73
837.524	40.74
837.908	40.74
838.291	40.74
838.675	40.74
839.059	40.75
839.443	40.74
839.827	40.74
840.21	40.72
840.594	40.71
840.977	40.71
841.361	40.71
841.744	40.69
842.127	40.66
842.511	40.66
842.894	40.65
843.277	40.66
843.66	40.65
844.043	40.67
844.426	40.69
844.809	40.71
845.191	40.71
845.574	40.7
845.957	40.71
846.339	40.72
846.722	40.73
847.104	40.74
847.487	40.73
847.869	40.74
848.252	40.75
848.634	40.75
849.016	40.74
849.398	40.74
849.78	40.75
850.162	40.74
850.544	40.75
850.926	40.73
851.307	40.72
851.689	40.73
852.071	40.72
852.452	40.72
852.834	40.72
853.215	40.7
853.597	40.7
853.978	40.68
854.359	40.67
854.741	40.67
855.122	40.65
855.503	40.64
855.884	40.63
856.265	40.63
856.646	40.61
857.026	40.61
857.407	40.62
857.788	40.6
858.169	40.64
858.549	40.65
858.93	40.65
859.31	40.67
859.69	40.69
860.071	40.72
860.451	40.7
860.831	40.71
861.211	40.7
861.591	40.69
861.971	40.69
862.351	40.68
862.731	40.68
863.111	40.66
863.491	40.68
863.87	40.67
864.25	40.64
864.629	40.68
865.009	40.67
865.388	40.68
865.768	40.68
866.147	40.7
866.526	40.68
866.905	40.67
867.284	40.68
867.663	40.66
868.042	40.67
868.421	40.68
868.8	40.67
869.179	40.66
869.558	40.65
869.936	40.65
870.315	40.66
870.693	40.66
871.072	40.68
871.45	40.68
871.828	40.68
872.207	40.67
872.585	40.66
872.963	40.66
873.341	40.67
873.719	40.68
874.097	40.66
874.475	40.66
874.853	40.67
875.23	40.67
875.608	40.67
875.986	40.71
876.363	40.72
876.741	40.73
877.118	40.74
877.495	40.76
877.873	40.77
878.25	40.8
878.627	40.81
879.004	40.81
879.381	40.8
879.758	40.78
880.135	40.75
880.512	40.73
880.889	40.73
881.265	40.72
881.642	40.7
882.019	40.69
882.395	40.66
882.772	40.64
883.148	40.63
883.524	40.63
883.901	40.63
884.277	40.62
884.653	40.61
885.029	40.59
885.405	40.6
885.781	40.6
886.157	40.59
886.532	40.59
886.908	40.59
887.284	40.59
887.659	40.57
888.035	40.56
888.411	40.57
888.786	40.58
889.161	40.59
889.537	40.58
889.912	40.56
890.287	40.57
890.662	40.56
891.037	40.58
891.412	40.57
891.787	40.56
892.162	40.55
892.536	40.53
892.911	40.53
893.286	40.52
893.66	40.52
894.035	40.54
894.409	40.51
894.784	40.52
895.158	40.48
895.532	40.5
895.906	40.5
896.281	40.5
896.655	40.51
897.029	40.52
897.402	40.51
897.776	40.49
898.15	40.47
898.524	40.49
898.898	40.47
899.271	40.47
899.645	40.49
900.018	40.51
900.392	40.5
900.765	40.5
901.138	40.5
901.511	40.51
901.884	40.5
902.258	40.52
902.631	40.52
903.003	40.53
903.376	40.55
903.749	40.55
904.122	40.55
904.495	40.56
904.867	40.55
905.24	40.57
905.612	40.6
905.985	40.6
906.357	40.59
906.729	40.6
907.102	40.59
907.474	40.61
907.846	40.58
908.218	40.57
908.59	40.56
908.962	40.56
909.334	40.55
909.705	40.52
910.077	40.51
910.449	40.53
910.82	40.52
911.192	40.52
911.563	40.49
911.935	40.47
912.306	40.46
912.677	40.46
913.048	40.46
913.419	40.45
913.79	40.45
914.161	40.46
914.532	40.45
914.903	40.44
915.274	40.43
915.645	40.42
916.015	40.4
916.386	40.41
916.756	40.4
917.127	40.42
917.497	40.42
917.868	40.43
918.238	40.41
918.608	40.44
918.978	40.44
919.348	40.44
919.718	40.48
920.088	40.52
920.458	40.54
920.828	40.5
921.198	40.49
921.567	40.5
921.937	40.51
922.306	40.54
922.676	40.49
923.045	40.49
923.415	40.49
923.784	40.45
924.153	40.48
924.522	40.48
924.891	40.51
925.26	40.51
925.629	40.5
925.998	40.51
926.367	40.52
926.736	40.53
927.104	40.54
927.473	40.53
927.842	40.53
928.21	40.51
928.578	40.49
928.947	40.5
929.315	40.5
929.683	40.48
930.051	40.43
930.42	40.4
930.788	40.4
931.156	40.39
931.523	40.39
931.891	40.43
932.259	40.45
932.627	40.46
932.994	40.45
933.362	40.42
933.729	40.43
934.097	40.48
934.464	40.49
934.831	40.46
935.199	40.46
935.566	40.46
935.933	40.39
936.3	40.35
936.667	40.32
937.034	40.37
937.401	40.42
937.767	40.45
938.134	40.39
938.501	40.4
938.867	40.45
939.234	40.44
939.6	40.46
939.967	40.49
940.333	40.5
940.699	40.51
941.065	40.39
941.431	40.38
941.798	40.33
942.163	40.32
942.529	40.3
942.895	40.24
943.261	40.26
943.627	40.22
943.992	40.24
944.358	40.22
944.723	40.22
945.089	40.24
945.454	40.25
945.82	40.21
946.185	40.24
946.55	40.2
946.915	40.24
947.28	40.2
947.645	40.18
948.01	40.13
948.375	40.08
948.74	40.03
949.104	40.09
949.469	40.03
949.834	40
950.198	39.98
950.562	39.94
950.927	39.89
951.291	39.87
951.655	39.8
952.02	39.77
952.384	39.7
952.748	39.68
953.112	39.61
953.476	39.61
953.839	39.58
954.203	39.54
954.567	39.55
954.931	39.5
955.294	39.45
955.658	39.56
956.021	39.54
956.385	39.58
956.748	39.59
957.111	39.58
957.474	39.58
957.837	39.54
958.2	39.53
958.563	39.47
958.926	39.52
959.289	39.53
959.652	39.46
960.015	39.47
960.377	39.47
960.74	39.45
961.102	39.48
961.465	39.47
961.827	39.56
962.189	39.56
962.552	39.56
962.914	39.55
963.276	39.59
963.638	39.56
964	39.55
964.362	39.56
964.724	39.56
965.085	39.48
965.447	39.43
965.809	39.38
966.17	39.35
966.532	39.37
966.893	39.36
967.255	39.31
967.616	39.31
967.977	39.33
968.338	39.29
968.699	39.29
969.061	39.3
969.421	39.33
969.782	39.38
970.143	39.41
970.504	39.43
970.865	39.43
971.225	39.43
971.586	39.45
971.946	39.4
972.307	39.4
972.667	39.4
973.027	39.41
973.388	39.42
973.748	39.38
974.108	39.42
974.468	39.4
974.828	39.46
975.188	39.54
975.548	39.52
975.907	39.56
976.267	39.57
976.627	39.57
976.986	39.53
977.346	39.51
977.705	39.53
978.064	39.52
978.424	39.57
978.783	39.46
979.142	39.43
979.501	39.45
979.86	39.47
980.219	39.46
980.578	39.53
980.937	39.69
981.296	39.69
981.654	39.71
982.013	39.71
982.371	39.64
982.73	39.74
983.088	39.72
983.447	39.74
983.805	39.75
984.163	39.73
984.521	39.67
984.879	39.5
985.237	39.57
985.595	39.58
985.953	39.55
986.311	39.57
986.669	39.53
987.026	39.51
987.384	39.57
987.741	39.47
988.099	39.57
988.456	39.59
988.814	39.64
989.171	39.57
989.528	39.55
989.885	39.51
990.242	39.5
990.599	39.47
990.956	39.49
991.313	39.43
991.67	39.5
992.027	39.59
992.383	39.58
992.74	39.62
993.096	39.64
993.453	39.66
993.809	39.75
994.165	39.79
994.522	39.97
994.878	39.98
995.234	39.92
995.59	39.92
995.946	39.76
996.302	39.8
996.658	39.79
997.013	39.82
997.369	39.92
997.725	39.91
998.08	40.02
998.436	39.91
998.791	40.02
999.147	40.06
999.502	40.11
999.857	40.11
1000.212	40.02
1000.567	40.05
1000.922	40.06
1001.277	39.97
1001.632	39.95
1001.987	39.85
1002.342	39.72
1002.696	39.59
1003.051	39.7
1003.406	39.73
1003.76	39.67
1004.114	39.73
1004.469	39.78
1004.823	40
1005.177	39.96
1005.531	40.01
1005.885	40.05
1006.239	40.23
1006.593	40.3
1006.947	40.19
1007.301	39.99
1007.655	40.13
1008.008	40.19
1008.362	40.13
1008.715	39.89
1009.069	40.05
1009.422	40.05
1009.776	39.99
1010.129	39.96
1010.482	39.95
1010.835	40
1011.188	40.27
1011.541	40.31
1011.894	40.47
1012.247	40.58
1012.6	40.51
1012.952	40.28
1013.305	40.36
1013.657	40.43
1014.01	40.56
1014.362	40.61
1014.715	40.73
1015.067	40.67
1015.419	40.82
1015.771	40.59
1016.123	40.55
1016.475	40.79
1016.827	41.06
1017.179	41.12
1017.531	41.1
1017.883	41.08
1018.234	41.3
1018.586	41.32
1018.938	41.44
1019.289	41.27
1019.64	41.41
1019.992	41.42
1020.343	41.3
1020.694	41.3
1021.045	41.24
1021.396	41.27
1021.747	41.19
1022.098	41.09
1022.449	41.04
1022.8	41.04
1023.151	41.16
1023.501	41.24
1023.852	41.55
1024.202	41.51
1024.553	41.4
1024.903	41.53
1025.253	41.75
1025.604	41.87
1025.954	41.73
1026.304	41.6
1026.654	41.66
1027.004	41.68
1027.354	41.51
1027.703	41.04
1028.053	41.13
1028.403	41.16
1028.753	40.77
1029.102	40.72
1029.452	40.82
1029.801	41.05
1030.15	41.2
1030.499	41.02
897.758	1355.07
901.051	1365.65
904.343	1357.18
907.636	1382.67
910.928	1343.39
914.22	1346.04
917.511	1325.2
920.803	1271.65
924.094	1262.11
927.384	1229.29
930.675	1185.15
933.965	1176.49
937.255	1103
940.544	1061.47
943.834	1008.08
947.123	1000.78
950.411	938.93
953.7	920.49
956.988	869.89
960.276	835.74
963.563	823.84
966.851	792.53
970.138	785.39
973.424	762.18
976.711	766.2
979.997	730.22
983.283	726.16
986.568	711.33
989.853	690.45
993.138	677.64
996.423	652.53
999.708	632.23
1002.992	625.57
1006.275	597.05
1009.559	592.18
1012.842	570.68
1016.125	553.59
1019.408	542.27
1022.69	535.59
1025.972	524.39
1029.254	510.67
1032.536	502.11
1035.817	492.08
1039.098	484.31
1042.379	475.2
1045.659	469.09
1048.939	456.89
1052.219	448.51
1055.498	442.47
1058.778	431.12
1062.057	421.29
1065.335	417.79
1068.614	412.28
1071.892	407.46
1075.17	395.46
1078.447	387.75
1081.724	384.9
1085.001	382.19
1088.278	375
1091.554	367
1094.83	367.45
1098.106	365.27
1101.382	361.75
1104.657	359.84
1107.932	353.73
1111.206	355.06
1114.481	345.54
1117.755	342.49
1121.029	340.2
1124.302	338.68
1127.575	332.11
1130.848	328.26
1134.121	323.82
1137.393	321.85
1140.665	314.13
1143.937	312.21
1147.208	310.64
1150.48	310.03
1153.75	306.05
1157.021	301.56
1160.291	301.65
1163.561	298.52
1166.831	299.4
1170.101	297.32
1173.37	296.05
1176.639	297.28
1179.907	294.75
1183.176	291.08
1186.444	291.18
1189.711	290.57
1192.979	289.99
1196.246	287.64
1199.513	288.76
1202.78	285.08
1206.046	285.48
1209.312	282.96
1212.578	283.3
1215.843	286.06
1219.108	283.99
1222.373	289.89
1225.638	291.88
1228.902	295.26
1232.166	296.41
1235.43	298.45
1238.693	303.13
1241.956	304.43
1245.219	309.82
1248.482	309.05
1251.744	308.49
1255.006	310.21
1258.268	301.84
1261.529	298.77
1264.79	297.66
1268.051	295.34
1271.312	292.28
1274.572	288.14
1277.832	286.29
1281.092	281.12
1284.351	279.38
1287.61	279.04
1290.869	275.1
1294.128	273.88
1297.386	273.43
1300.644	269.13
1303.902	270.34
1307.159	269.08
1310.416	269.75
1313.673	268.53
1316.93	271.68
1320.186	271.92
1323.442	272.44
1326.697	277.56
1329.953	278.04
1333.208	279.82
1336.463	283.24
1339.717	283.95
1342.972	287.33
1346.226	290.15
1349.479	290.7
1352.733	292.62
1355.986	293.91
1359.238	294.36
1362.491	295.56
1365.743	298.83
1368.995	298.29
1372.247	297.73
1375.498	297.48
1378.749	300.05
1382	296.15
1385.251	297.06
1388.501	294.64
1391.751	295.57
1395	294.21
1398.25	291.45
1401.499	290.01
1404.748	290.02
1407.996	288.57
1411.244	287.27
1414.492	284.9
1417.74	282.8
1420.987	279.03
1424.234	279.11
1427.481	275.13
1430.728	274.67
1433.974	271.42
1437.22	269.66
1440.465	268.41
1443.711	265.92
1446.956	264.12
1450.201	261.34
1453.445	258.65
1456.689	257.35
1459.933	252.75
1463.177	251.11
1466.42	246.89
1469.663	245.21
1472.906	243.1
1476.148	236.47
1479.391	233.8
1482.633	231.88
1485.874	228.04
1489.115	226.72
1492.356	223.76
1495.597	223.44
1498.838	219.89
1502.078	218.9
1505.318	217.36
1508.557	217.19
1511.797	217.71
1515.036	215.89
1518.274	214.86
1521.513	212.72
1524.751	212.42
1527.989	212.3
1531.227	210.75
1534.464	211.39
1537.701	209.37
1540.938	208.93
1544.174	206.48
1547.41	205.56
1550.646	204.51
1553.882	204.25
1557.117	202.21
1560.352	200.32
1563.587	199.72
1566.821	198.55
1570.055	196.53
1573.289	195.46
1576.523	194.69
1579.756	193.21
1582.989	192.56
1586.222	192.05
1589.454	191.02
1592.686	192.49
1595.918	192.08
1599.15	191.3
1602.381	191.39
1605.612	191.17
1608.843	191.88
1612.073	192.21
1615.303	193.16
1618.533	192.54
1621.762	193.02
1624.992	192.92
1628.221	192.87
1631.449	192.58
1634.678	191.7
1637.906	192.97
1641.134	192.8
1644.361	192.34
1647.588	192.97
1650.815	191.95
1654.042	191.91
1657.269	193
1660.495	193.28
1663.72	192.23
1666.946	193.25
1670.171	194.11
1673.396	193.01
1676.621	193.69
1679.845	194.36
1683.069	193.23
1686.293	194.84
1689.517	196.11
1692.74	195.41
1695.963	195.77
1699.185	198.11
1702.408	197.88
1705.63	198.62
1708.852	199.31
1712.073	199.61
1715.294	199.6
1718.515	201.19
1721.736	200.59
1724.956	200.86
1728.176	201.14
1731.396	203.54
1734.616	202.19
1737.835	203.17
1741.054	202.04
1744.272	203.07
1747.491	204.68
1750.709	204.81
1753.927	205.18
1757.144	204.66
1760.361	205.48
1763.578	206.12
1766.795	204.92
1770.011	206.73
1773.227	206.41
1776.443	208.84
1779.658	209.9
1782.874	209.53
1786.089	210.45
1789.303	211.17
1792.518	213.48
1795.732	213.74
1798.945	215.38
1802.159	215.77
1805.372	216.32
1808.585	220.46
1811.797	220.98
1815.01	221.09
1818.222	222.75
1821.434	224.53
1824.645	225.29
1827.856	229.09
1831.067	230.8
1834.278	230.11
1837.488	232.37
1840.698	233.87
1843.908	231.44
1847.117	233.42
1850.326	234.96
1853.535	234.66
1856.744	238.12
1859.952	238.26
1863.16	236.85
1866.368	234.96
1869.575	238.46
1872.782	234.01
1875.989	233.94
1879.196	233.52
1882.402	231.48
1885.608	232.28
1888.814	232.27
1892.019	232.17
1895.224	231.46
1898.429	230.53
1901.634	232.45
1904.838	232.06
1908.042	235.41
1911.246	235.99
1914.449	237.47
1917.652	238.03
1920.855	237.8
1924.058	237.91
1927.26	236.4
1930.462	237.33
1933.664	240.52
1936.865	238.35
1940.066	237.74
1943.267	236.66
1946.467	236.36
1949.668	237.66
1952.868	240.4
1956.067	240.56
1959.267	240.34
1962.466	241.19
1965.665	240.25
1968.863	240.33
1972.061	243.99
1975.259	246.74
1978.457	248.63
1981.654	250.44
1984.852	251.08
1988.048	250.18
1991.245	252.74
1994.441	255.81
1997.637	258.11
2000.833	262.87
2004.028	267.08
2007.223	267.22
2010.418	269.92
2013.613	274.07
2016.807	277.22
2020.001	279.38
2023.194	283.51
2026.388	288.9
2029.581	296.06
2032.774	298.18
2035.966	304.06
2039.158	303.37
2042.35	310.96
2045.542	312.44
2048.733	317.55
2051.924	322.06
2055.115	327.17
2058.306	327.84
2061.496	331.54
2064.686	331.47
2067.875	337.14
2071.065	338
2074.254	336.98
2077.442	340.47
2080.631	341.8
2083.819	345.28
2087.007	345.28
2090.195	349.87
2093.382	352.97
2096.569	350.45
2099.756	355.02
2102.942	355.73
2106.128	359.64
2109.314	368.01
2112.5	366.55
2115.685	375.4
2118.87	375.5
2122.055	383.27
2125.239	386.49
2128.424	390.92
2131.608	394.23
2134.791	401.52
2137.974	403.88
2141.157	404.1
2144.34	404.61
2147.523	410.89
2150.705	407.91
2153.887	411.44
2157.068	412.39
2160.25	407.94
2163.431	410.2
2166.611	415.76
2169.792	421.76
2172.972	425.9
2176.152	428.33
2179.331	435.19
2182.511	442.65
2185.69	447.57
2188.868	457.75
2192.047	458.73
2195.225	472.32
2198.403	484.19
2201.58	493.02
2204.758	502.12
2207.935	512.55
2211.111	522.48
2214.288	526.59
2217.464	527.89
2220.64	535.96
2223.815	542.37
2226.991	563.04
2230.166	564.09
2233.34	574.8
2236.515	581.2
2239.689	582.85
2242.863	585.29
2246.036	602.52
2249.209	599.89
2252.382	610.89
2255.555	628.92
2258.727	631.25
2261.9	637.23
2265.071	643.48
2268.243	654.07
2271.414	662.94
2274.585	677.19
2277.756	685.33
2280.926	692.28
2284.096	706.25
2287.266	721.03
2290.436	727.11
2293.605	744.37
2296.774	765.77
2299.942	788.74
2303.111	792.21
2306.279	809.85
2309.447	820.11
2312.614	840.47
2315.781	859.92
2318.948	904.88
2322.115	890.7
2325.281	938.47
2328.447	916.94
2331.613	955.09
2334.779	945.1
2337.944	984.84
2341.109	995.94
2344.274	1024.1
2347.438	1060.26
2350.602	1061.35
2353.766	1091.08
2356.929	1107.68
2360.092	1100.73
2363.255	1184.36
2366.418	1179.23
2369.58	1204.24
2372.742	1279.93
2375.904	1312.82
2379.066	1305.39
2382.227	1284.27
2385.388	1392.07
2388.548	1389.61
2391.709	1409.84
2394.869	1571.46
2398.029	1501.98
2401.188	1543.24
2404.347	1530.81
2407.506	1505.44
2410.665	1546.5
2413.823	1643.33
2416.981	1736.49
2420.139	1680.43
2423.296	1665.66
2426.453	1734.11
2429.61	1670.11
2432.767	1746.71
2435.923	1732.13
2439.079	1897.59
2442.235	1917.79
2445.391	1903.65
2448.546	1888.09
2451.701	1833.29
2454.855	1831.94
2458.009	1939.28
2461.163	2023.95
2464.317	2095.15
2467.471	2149.11
2470.624	2150.32
2473.777	2093.06
2476.929	2048.59
2480.082	1984.74
2483.234	1960.13
2486.385	2057.74
2489.537	2068.77
2492.688	2151.5
2495.839	2088.3
2498.989	2043.93
2502.14	2056.95
2505.29	2079.53
2508.439	2107.95
2511.589	2098.4
2514.738	2289.98
2517.887	2239.77
2521.035	2370.25
2524.183	2389.06
2527.331	2404.98
2530.479	2395.36
2533.627	2411.06
