Data from N_2_DIV_WI_4N_Splice17_13-19-07-848.txt Node
Date: Sat Mar 07 13:19:07 EST 2020
User: sa697716
Spectrometer: NQ5500242
Trigger mode: 0
Integration Time (sec): 1.450000E-1
Scans to average: 20
Nonlinearity correction enabled: false
Boxcar width: 5
Storing dark spectrum: false
XAxis mode: Wavelengths
Number of Pixels in Spectrum: 512
>>>>>Begin Spectral Data<<<<<
187.83	110.33
188.298	110.55
188.766	100.62
189.233	79.23
189.701	84.65
190.169	97.7
190.636	78.46
191.104	62.96
191.571	-71.57
192.039	15.68
192.506	-10.01
192.974	73.49
193.441	65.6
193.908	31.95
194.375	5.62
194.842	-21.79
195.31	-3.59
195.777	-44.66
196.244	40.61
196.711	44.73
197.177	46.21
197.644	44.86
198.111	44.02
198.578	44.42
199.045	44.89
199.511	45.08
199.978	45.15
200.445	45.35
200.911	45.33
201.378	45.51
201.844	45.7
202.31	45.36
202.777	45.6
203.243	45.75
203.709	45.5
204.176	44.95
204.642	44.6
205.108	44.37
205.574	44.15
206.04	43.61
206.506	43.14
206.972	42.84
207.438	42.5
207.903	42.22
208.369	41.44
208.835	40.61
209.301	39.86
209.766	38.91
210.232	38.25
210.697	37.18
211.163	36.39
211.628	35.55
212.094	34.4
212.559	33.73
213.024	32.98
213.49	32.43
213.955	31.76
214.42	31.3
214.885	30.71
215.35	29.79
215.815	28.68
216.28	27.16
216.745	25.36
217.21	23.68
217.675	22.04
218.14	20.6
218.604	19.32
219.069	18.29
219.534	17.44
219.998	16.68
220.463	16.06
220.927	15.5
221.392	15.09
221.856	14.74
222.32	14.44
222.785	14.18
223.249	13.9
223.713	13.67
224.177	13.49
224.642	13.25
225.106	13.01
225.57	12.77
226.034	12.59
226.497	12.41
226.961	12.23
227.425	12.04
227.889	11.88
228.353	11.72
228.816	11.57
229.28	11.41
229.744	11.27
230.207	11.15
230.671	11.01
231.134	10.87
231.597	10.76
232.061	10.63
232.524	10.51
232.987	10.36
233.45	10.27
233.914	10.13
234.377	10.01
234.84	9.89
235.303	9.8
235.766	9.71
236.229	9.61
236.691	9.5
237.154	9.43
237.617	9.34
238.08	9.26
238.542	9.17
239.005	9.1
239.468	9.02
239.93	8.95
240.393	8.87
240.855	8.78
241.317	8.7
241.78	8.61
242.242	8.52
242.704	8.45
243.166	8.38
243.629	8.31
244.091	8.23
244.553	8.15
245.015	8.07
245.477	8
245.939	7.94
246.4	7.87
246.862	7.81
247.324	7.74
247.786	7.67
248.247	7.61
248.709	7.53
249.17	7.47
249.632	7.42
250.093	7.37
250.555	7.31
251.016	7.25
251.477	7.19
251.939	7.13
252.4	7.08
252.861	7.04
253.322	6.99
253.783	6.94
254.244	6.9
254.705	6.84
255.166	6.8
255.627	6.75
256.088	6.71
256.549	6.67
257.009	6.62
257.47	6.58
257.931	6.52
258.391	6.48
258.852	6.43
259.312	6.39
259.773	6.34
260.233	6.31
260.694	6.26
261.154	6.22
261.614	6.18
262.074	6.14
262.534	6.11
262.994	6.08
263.455	6.05
263.915	6.02
264.374	5.98
264.834	5.96
265.294	5.93
265.754	5.91
266.214	5.89
266.673	5.86
267.133	5.84
267.593	5.81
268.052	5.79
268.512	5.77
268.971	5.75
269.431	5.73
269.89	5.71
270.349	5.69
270.809	5.67
271.268	5.65
271.727	5.63
272.186	5.61
272.645	5.6
273.104	5.58
273.563	5.56
274.022	5.53
274.481	5.52
274.94	5.5
275.399	5.48
275.857	5.46
276.316	5.44
276.775	5.42
277.233	5.4
277.692	5.38
278.15	5.36
278.609	5.35
279.067	5.34
279.525	5.32
279.984	5.31
280.442	5.29
280.9	5.27
281.358	5.26
281.816	5.24
282.274	5.23
282.732	5.21
283.19	5.19
283.648	5.17
284.106	5.15
284.564	5.12
285.021	5.11
285.479	5.09
285.937	5.08
286.394	5.07
286.852	5.05
287.309	5.03
287.767	5.01
288.224	4.99
288.682	4.96
289.139	4.94
289.596	4.92
290.053	4.89
290.511	4.87
290.968	4.84
291.425	4.81
291.882	4.8
292.339	4.78
292.796	4.76
293.252	4.74
293.709	4.73
294.166	4.72
294.623	4.71
295.079	4.69
295.536	4.68
295.992	4.67
296.449	4.65
296.905	4.64
297.362	4.63
297.818	4.61
298.274	4.6
298.731	4.58
299.187	4.55
299.643	4.54
300.099	4.53
300.555	4.51
301.011	4.49
301.467	4.48
301.923	4.46
302.379	4.45
302.835	4.44
303.291	4.43
303.746	4.43
304.202	4.43
304.658	4.42
305.113	4.4
305.569	4.4
306.024	4.39
306.479	4.38
306.935	4.37
307.39	4.37
307.845	4.36
308.301	4.36
308.756	4.35
309.211	4.34
309.666	4.34
310.121	4.34
310.576	4.32
311.031	4.32
311.486	4.32
311.94	4.31
312.395	4.3
312.85	4.29
313.305	4.28
313.759	4.28
314.214	4.26
314.668	4.25
315.123	4.24
315.577	4.24
316.032	4.22
316.486	4.21
316.94	4.2
317.394	4.19
317.849	4.18
318.303	4.17
318.757	4.15
319.211	4.15
319.665	4.13
320.119	4.12
320.572	4.1
321.026	4.09
321.48	4.08
321.934	4.07
322.387	4.05
322.841	4.04
323.295	4.03
323.748	4.03
324.202	4.02
324.655	4.01
325.108	4.01
325.562	4.01
326.015	4.01
326.468	4.01
326.921	4
327.374	3.99
327.827	3.99
328.28	3.98
328.733	3.98
329.186	3.97
329.639	3.97
330.092	3.96
330.545	3.96
330.997	3.96
331.45	3.95
331.903	3.95
332.355	3.95
332.808	3.95
333.26	3.95
333.713	3.94
334.165	3.93
334.617	3.94
335.069	3.93
335.522	3.93
335.974	3.94
336.426	3.93
336.878	3.92
337.33	3.92
337.782	3.92
338.234	3.92
338.686	3.92
339.137	3.92
339.589	3.9
340.041	3.9
340.493	3.89
340.944	3.87
341.396	3.86
341.847	3.86
342.299	3.84
342.75	3.83
343.201	3.81
343.653	3.8
344.104	3.78
344.555	3.77
345.006	3.75
345.457	3.73
345.908	3.72
346.359	3.72
346.81	3.71
347.261	3.69
347.712	3.69
348.163	3.69
348.613	3.68
349.064	3.67
349.515	3.67
349.965	3.66
350.416	3.65
350.866	3.65
351.317	3.64
351.767	3.63
352.217	3.63
352.668	3.62
353.118	3.62
353.568	3.61
354.018	3.61
354.468	3.62
354.918	3.62
355.368	3.63
355.818	3.63
356.268	3.63
356.718	3.63
357.168	3.63
357.617	3.62
358.067	3.61
358.517	3.63
358.966	3.63
359.416	3.62
359.865	3.62
360.315	3.62
360.764	3.62
361.213	3.61
361.663	3.6
362.112	3.61
362.561	3.62
363.01	3.61
363.459	3.59
363.908	3.58
364.357	3.57
364.806	3.56
365.255	3.55
365.703	3.55
366.152	3.55
366.601	3.56
367.05	3.56
367.498	3.55
367.947	3.55
368.395	3.55
368.844	3.55
369.292	3.55
369.74	3.56
370.189	3.55
370.637	3.54
371.085	3.53
371.533	3.51
371.981	3.51
372.429	3.5
372.877	3.49
373.325	3.49
373.773	3.48
374.221	3.47
374.669	3.47
375.116	3.46
375.564	3.45
376.012	3.45
376.459	3.44
376.907	3.44
377.354	3.43
377.801	3.43
378.249	3.43
378.696	3.43
379.143	3.42
379.591	3.42
380.038	3.42
380.485	3.41
380.932	3.41
381.379	3.42
381.826	3.41
382.273	3.41
382.72	3.39
383.166	3.38
383.613	3.37
384.06	3.36
384.506	3.35
384.953	3.35
385.4	3.34
385.846	3.33
386.292	3.32
386.739	3.31
387.185	3.3
387.631	3.3
388.078	3.29
388.524	3.29
388.97	3.28
389.416	3.28
389.862	3.29
390.308	3.29
390.754	3.3
391.2	3.3
391.645	3.3
392.091	3.31
392.537	3.32
392.983	3.32
393.428	3.33
393.874	3.34
394.319	3.34
394.765	3.34
395.21	3.33
395.655	3.33
396.101	3.34
396.546	3.34
396.991	3.34
397.436	3.34
397.881	3.36
398.326	3.37
398.771	3.38
399.216	3.39
399.661	3.41
400.106	3.42
400.551	3.43
400.995	3.42
401.44	3.43
401.885	3.44
402.329	3.45
402.774	3.45
403.218	3.46
403.663	3.48
404.107	3.48
404.551	3.48
404.995	3.48
405.44	3.48
405.884	3.5
406.328	3.51
406.772	3.51
407.216	3.51
407.66	3.51
408.104	3.5
408.547	3.5
408.991	3.51
409.435	3.51
409.879	3.52
410.322	3.54
410.766	3.55
411.209	3.57
411.653	3.59
412.096	3.62
412.54	3.63
412.983	3.65
413.426	3.67
413.869	3.69
414.312	3.72
414.756	3.73
415.199	3.73
415.642	3.72
416.085	3.73
416.527	3.73
416.97	3.72
417.413	3.72
417.856	3.71
418.298	3.7
418.741	3.71
419.184	3.7
419.626	3.7
420.069	3.7
420.511	3.71
420.953	3.7
421.396	3.71
421.838	3.73
422.28	3.75
422.722	3.77
423.164	3.77
423.606	3.77
424.048	3.77
424.49	3.78
424.932	3.79
425.374	3.79
425.816	3.78
426.258	3.77
426.699	3.75
427.141	3.74
427.582	3.74
428.024	3.76
428.465	3.76
428.907	3.76
429.348	3.74
429.789	3.74
430.231	3.76
430.672	3.77
431.113	3.8
431.554	3.81
431.995	3.81
432.436	3.82
432.877	3.82
433.318	3.85
433.759	3.87
434.2	3.9
434.64	3.92
435.081	3.93
435.522	3.94
435.962	3.95
436.403	3.97
436.843	3.99
437.284	3.99
437.724	3.98
438.164	3.96
438.604	3.96
439.045	3.95
439.485	3.96
439.925	3.95
440.365	3.96
440.805	3.95
441.245	3.95
441.685	3.96
442.125	3.97
442.564	3.99
443.004	3.99
443.444	3.99
443.883	4
444.323	4
444.762	4
445.202	4
445.641	4.01
446.081	4.02
446.52	4.02
446.959	4.04
447.398	4.04
447.837	4.04
448.276	4.05
448.716	4.05
449.154	4.06
449.593	4.07
450.032	4.07
450.471	4.06
450.91	4.04
451.349	4.05
451.787	4.03
452.226	4.01
452.664	4
453.103	4
453.541	4
453.98	4
454.418	3.97
454.856	3.96
455.295	3.96
455.733	3.93
456.171	3.92
456.609	3.91
457.047	3.91
457.485	3.9
457.923	3.89
458.361	3.87
458.798	3.86
459.236	3.87
459.674	3.87
460.111	3.87
460.549	3.88
460.987	3.88
461.424	3.87
461.862	3.88
462.299	3.89
462.736	3.9
463.173	3.9
463.611	3.91
464.048	3.92
464.485	3.93
464.922	3.93
465.359	3.94
465.796	3.96
466.233	3.97
466.67	3.98
467.106	3.98
467.543	3.97
467.98	3.97
468.416	3.95
468.853	3.94
469.29	3.93
469.726	3.93
470.162	3.93
470.599	3.92
471.035	3.91
471.471	3.89
471.907	3.89
472.344	3.89
472.78	3.89
473.216	3.88
473.652	3.88
474.088	3.86
474.523	3.85
474.959	3.84
475.395	3.82
475.831	3.8
476.266	3.8
476.702	3.78
477.138	3.77
477.573	3.76
478.008	3.75
478.444	3.74
478.879	3.75
479.314	3.74
479.75	3.73
480.185	3.71
480.62	3.7
481.055	3.69
481.49	3.69
481.925	3.68
482.36	3.67
482.795	3.66
483.229	3.66
483.664	3.66
484.099	3.66
484.534	3.65
484.968	3.67
485.403	3.67
485.837	3.68
486.271	3.69
486.706	3.69
487.14	3.69
487.574	3.69
488.009	3.69
488.443	3.7
488.877	3.71
489.311	3.73
489.745	3.74
490.179	3.76
490.613	3.78
491.046	3.8
491.48	3.82
491.914	3.85
492.348	3.87
492.781	3.91
493.215	3.94
493.648	3.97
494.082	4
494.515	4.03
494.948	4.06
495.382	4.1
495.815	4.14
496.248	4.18
496.681	4.24
497.114	4.3
497.547	4.34
497.98	4.41
498.413	4.46
498.846	4.52
499.279	4.58
499.711	4.66
500.144	4.74
500.577	4.81
501.009	4.9
501.442	4.98
501.874	5.07
502.306	5.16
502.739	5.26
503.171	5.37
503.603	5.49
504.036	5.61
504.468	5.73
504.9	5.84
505.332	5.97
505.764	6.11
506.196	6.25
506.627	6.4
507.059	6.56
507.491	6.71
507.923	6.88
508.354	7.06
508.786	7.24
509.217	7.44
509.649	7.63
510.08	7.84
510.512	8.06
510.943	8.27
511.374	8.48
511.805	8.72
512.237	8.95
512.668	9.19
513.099	9.42
513.53	9.67
513.961	9.93
514.391	10.18
514.822	10.46
515.253	10.71
515.684	10.97
516.114	11.25
516.545	11.52
516.975	11.79
517.406	12.07
517.836	12.34
518.267	12.62
518.697	12.89
519.127	13.15
519.558	13.43
519.988	13.7
520.418	13.96
520.848	14.22
521.278	14.49
521.708	14.82
522.138	15.08
522.567	15.33
522.997	15.58
523.427	15.83
523.857	16.09
524.286	16.32
524.716	16.54
525.145	16.77
525.575	16.99
526.004	17.21
526.433	17.34
526.863	17.53
527.292	17.72
527.721	17.9
528.15	18.07
528.579	18.23
529.008	18.39
529.437	18.53
529.866	18.66
530.295	18.8
530.724	18.93
531.152	19.05
531.581	19.16
532.01	19.28
532.438	19.39
532.867	19.49
533.295	19.58
533.723	19.67
534.152	19.76
534.58	19.85
535.008	19.92
535.436	20
535.865	20.07
536.293	20.14
536.721	20.19
537.149	20.24
537.576	20.29
538.004	20.34
538.432	20.38
538.86	20.44
539.287	20.47
539.715	20.52
540.143	20.54
540.57	20.58
540.998	20.6
541.425	20.65
541.852	20.68
542.28	20.7
542.707	20.73
543.134	20.77
543.561	20.79
543.988	20.82
544.415	20.85
544.842	20.87
545.269	20.89
545.696	20.94
546.123	20.96
546.549	20.97
546.976	21.01
547.403	21.02
547.829	21.03
548.256	21.04
548.682	21.06
549.108	21.09
549.535	21.12
549.961	21.12
550.387	21.11
550.813	21.1
551.24	21.09
551.666	21.07
552.092	21.06
552.518	21.06
552.943	21.04
553.369	21.01
553.795	20.96
554.221	20.93
554.646	20.89
555.072	20.85
555.498	20.8
555.923	20.75
556.349	20.69
556.774	20.62
557.199	20.55
557.625	20.48
558.05	20.41
558.475	20.32
558.9	20.24
559.325	20.15
559.75	20.06
560.175	19.96
560.6	19.86
561.025	19.76
561.449	19.65
561.874	19.54
562.299	19.43
562.723	19.3
563.148	19.18
563.572	19.04
563.997	18.9
564.421	18.76
564.846	18.62
565.27	18.48
565.694	18.33
566.118	18.19
566.542	18.03
566.966	17.87
567.39	17.71
567.814	17.55
568.238	17.39
568.662	17.24
569.086	17.08
569.509	16.94
569.933	16.8
570.357	16.65
570.78	16.5
571.204	16.36
571.627	16.22
572.05	16.08
572.474	15.96
572.897	15.83
573.32	15.71
573.743	15.58
574.166	15.45
574.589	15.32
575.012	15.19
575.435	15.07
575.858	14.95
576.281	14.85
576.704	14.75
577.126	14.63
577.549	14.52
577.972	14.42
578.394	14.32
578.817	14.22
579.239	14.13
579.661	14.05
580.084	13.96
580.506	13.89
580.928	13.8
581.35	13.71
581.772	13.63
582.194	13.55
582.616	13.47
583.038	13.4
583.46	13.32
583.882	13.25
584.303	13.18
584.725	13.11
585.147	13.06
585.568	12.99
585.99	12.92
586.411	12.86
586.833	12.79
587.254	12.72
587.675	12.66
588.096	12.6
588.518	12.54
588.939	12.49
589.36	12.43
589.781	12.37
590.202	12.33
590.623	12.3
591.043	12.26
591.464	12.24
591.885	12.2
592.305	12.17
592.726	12.15
593.147	12.12
593.567	12.09
593.987	12.05
594.408	12.01
594.828	11.98
595.248	11.95
595.669	11.92
596.089	11.89
596.509	11.86
596.929	11.83
597.349	11.8
597.769	11.76
598.189	11.72
598.608	11.68
599.028	11.65
599.448	11.61
599.867	11.56
600.287	11.51
600.706	11.47
601.126	11.44
601.545	11.39
601.965	11.34
602.384	11.3
602.803	11.26
603.222	11.21
603.641	11.16
604.061	11.12
604.48	11.06
604.898	11
605.317	10.93
605.736	10.87
606.155	10.8
606.574	10.73
606.992	10.65
607.411	10.58
607.829	10.48
608.248	10.41
608.666	10.32
609.085	10.26
609.503	10.19
609.921	10.13
610.339	10.05
610.758	9.98
611.176	9.91
611.594	9.85
612.012	9.77
612.43	9.72
612.847	9.65
613.265	9.59
613.683	9.53
614.101	9.46
614.518	9.38
614.936	9.31
615.353	9.25
615.771	9.19
616.188	9.12
616.606	9.08
617.023	9.03
617.44	8.98
617.857	8.93
618.274	8.87
618.691	8.83
619.108	8.79
619.525	8.75
619.942	8.72
620.359	8.68
620.776	8.65
621.192	8.61
621.609	8.59
622.026	8.56
622.442	8.53
622.859	8.52
623.275	8.48
623.691	8.47
624.108	8.46
624.524	8.44
624.94	8.43
625.356	8.42
625.772	8.41
626.188	8.39
626.604	8.38
627.02	8.37
627.436	8.36
627.852	8.35
628.268	8.34
628.683	8.33
629.099	8.32
629.514	8.29
629.93	8.27
630.345	8.25
630.761	8.22
631.176	8.19
631.591	8.14
632.007	8.11
632.422	8.07
632.837	8.02
633.252	7.97
633.667	7.91
634.082	7.86
634.497	7.8
634.911	7.74
635.326	7.69
635.741	7.62
636.155	7.55
636.57	7.47
636.984	7.4
637.399	7.32
637.813	7.23
638.228	7.14
638.642	7.04
639.056	6.95
639.47	6.86
639.884	6.77
640.298	6.68
640.712	6.58
641.126	6.49
641.54	6.39
641.954	6.3
642.368	6.21
642.781	6.14
643.195	6.06
643.609	5.98
644.022	5.9
644.436	5.83
644.849	5.75
645.262	5.69
645.676	5.62
646.089	5.56
646.502	5.5
646.915	5.45
647.328	5.4
647.741	5.35
648.154	5.3
648.567	5.27
648.98	5.22
649.393	5.18
649.805	5.14
650.218	5.11
650.631	5.07
651.043	5.05
651.456	5.01
651.868	4.98
652.28	4.95
652.693	4.93
653.105	4.9
653.517	4.87
653.929	4.84
654.341	4.8
654.753	4.76
655.165	4.72
655.577	4.67
655.989	4.63
656.401	4.59
656.813	4.55
657.224	4.49
657.636	4.42
658.047	4.37
658.459	4.32
658.87	4.27
659.282	4.21
659.693	4.16
660.104	4.1
660.515	4.05
660.926	4
661.338	3.94
661.749	3.9
662.159	3.86
662.57	3.82
662.981	3.78
663.392	3.75
663.803	3.72
664.213	3.68
664.624	3.65
665.035	3.63
665.445	3.61
665.855	3.59
666.266	3.57
666.676	3.56
667.086	3.54
667.497	3.52
667.907	3.51
668.317	3.49
668.727	3.5
669.137	3.5
669.547	3.49
669.956	3.49
670.366	3.5
670.776	3.5
671.186	3.5
671.595	3.5
672.005	3.51
672.414	3.53
672.824	3.55
673.233	3.56
673.642	3.57
674.052	3.58
674.461	3.59
674.87	3.6
675.279	3.62
675.688	3.64
676.097	3.67
676.506	3.7
676.915	3.72
677.323	3.74
677.732	3.77
678.141	3.79
678.549	3.82
678.958	3.85
679.366	3.89
679.775	3.93
680.183	3.97
680.592	4.01
681	4.06
681.408	4.11
681.816	4.16
682.224	4.23
682.632	4.3
683.04	4.39
683.448	4.48
683.856	4.56
684.264	4.67
684.671	4.79
685.079	4.92
685.487	5.07
685.894	5.25
686.302	5.45
686.709	5.66
687.116	5.88
687.524	6.13
687.931	6.42
688.338	6.73
688.745	7.06
689.152	7.42
689.559	7.8
689.966	8.2
690.373	8.62
690.78	9.06
691.187	9.52
691.593	10.01
692	10.51
692.407	11.02
692.813	11.55
693.22	12.08
693.626	12.63
694.032	13.18
694.439	13.74
694.845	14.32
695.251	14.89
695.657	15.47
696.063	16.05
696.469	16.64
696.875	17.21
697.281	17.8
697.687	18.38
698.093	18.95
698.498	19.52
698.904	20.09
699.31	20.65
699.715	21.22
700.12	21.76
700.526	22.32
700.931	22.86
701.337	23.38
701.742	23.89
702.147	24.42
702.552	24.94
702.957	25.45
703.362	25.94
703.767	26.42
704.172	26.92
704.577	27.39
704.981	27.86
705.386	28.31
705.791	28.78
706.195	29.25
706.6	29.69
707.004	30.13
707.408	30.57
707.813	31
708.217	31.43
708.621	31.84
709.025	32.26
709.43	32.64
709.834	33.05
710.237	33.44
710.641	33.83
711.045	34.22
711.449	34.6
711.853	34.99
712.256	35.35
712.66	35.71
713.064	36.06
713.467	36.41
713.87	36.78
714.274	37.12
714.677	37.46
715.08	37.75
715.484	38.07
715.887	38.37
716.29	38.66
716.693	38.98
717.096	39.27
717.499	39.56
717.901	39.84
718.304	40.1
718.707	40.38
719.109	40.65
719.512	40.92
719.915	41.18
720.317	41.43
720.719	41.65
721.122	41.9
721.524	42.11
721.926	42.33
722.328	42.56
722.731	42.77
723.133	42.96
723.535	43.17
723.937	43.36
724.338	43.55
724.74	43.75
725.142	44.04
725.544	44.19
725.945	44.41
726.347	44.56
726.748	44.72
727.15	44.87
727.551	45.03
727.952	45.16
728.354	45.31
728.755	45.43
729.156	45.54
729.557	45.57
729.958	45.7
730.359	45.8
730.76	45.95
731.161	46.06
731.562	46.19
731.962	46.27
732.363	46.4
732.763	46.51
733.164	46.64
733.564	46.74
733.965	46.82
734.365	46.91
734.766	47.01
735.166	47.06
735.566	47.13
735.966	47.22
736.366	47.32
736.766	47.34
737.166	47.43
737.566	47.47
737.966	47.53
738.365	47.59
738.765	47.68
739.165	47.71
739.564	47.78
739.964	47.84
740.363	47.87
740.763	47.89
741.162	47.97
741.561	48.01
741.96	48.03
742.36	48.06
742.759	48.1
743.158	48.11
743.557	48.13
743.955	48.16
744.354	48.19
744.753	48.24
745.152	48.3
745.55	48.33
745.949	48.37
746.348	48.42
746.746	48.45
747.144	48.51
747.543	48.54
747.941	48.58
748.339	48.56
748.737	48.58
749.136	48.58
749.534	48.57
749.932	48.58
750.33	48.57
750.727	48.58
751.125	48.61
751.523	48.58
751.921	48.58
752.318	48.6
752.716	48.63
753.113	48.66
753.511	48.69
753.908	48.71
754.305	48.72
754.703	48.72
755.1	48.72
755.497	48.72
755.894	48.72
756.291	48.73
756.688	48.73
757.085	48.76
757.482	48.72
757.878	48.72
758.275	48.72
758.672	48.72
759.068	48.75
759.465	48.76
759.861	48.76
760.258	48.78
760.654	48.81
761.05	48.79
761.447	48.8
761.843	48.78
762.239	48.77
762.635	48.75
763.031	48.77
763.427	48.77
763.822	48.77
764.218	48.78
764.614	48.78
765.01	48.75
765.405	48.77
765.801	48.74
766.196	48.79
766.592	48.79
766.987	48.81
767.382	48.8
767.778	48.8
768.173	48.8
768.568	48.78
768.963	48.77
769.358	48.8
769.753	48.78
770.148	48.8
770.542	48.78
770.937	48.8
771.332	48.78
771.726	48.78
772.121	48.79
772.515	48.78
772.91	48.79
773.304	48.8
773.699	48.78
774.093	48.78
774.487	48.77
774.881	48.77
775.275	48.74
775.669	48.75
776.063	48.73
776.457	48.69
776.851	48.67
777.245	48.64
777.638	48.62
778.032	48.62
778.425	48.64
778.819	48.62
779.212	48.62
779.606	48.66
779.999	48.66
780.392	48.7
780.786	48.72
781.179	48.74
781.572	48.78
781.965	48.8
782.358	48.79
782.751	48.79
783.143	48.81
783.536	48.82
783.929	48.8
784.322	48.79
784.714	48.79
785.107	48.81
785.499	48.82
785.891	48.8
786.284	48.81
786.676	48.81
787.068	48.8
787.46	48.81
787.852	48.82
788.245	48.85
788.636	48.85
789.028	48.84
789.42	48.84
789.812	48.85
790.204	48.87
790.595	48.86
790.987	48.86
791.378	48.89
791.77	48.88
792.161	48.84
792.553	48.82
792.944	48.81
793.335	48.79
793.726	48.78
794.117	48.75
794.508	48.73
794.899	48.72
795.29	48.73
795.681	48.7
796.072	48.69
796.463	48.73
796.853	48.73
797.244	48.75
797.634	48.76
798.025	48.77
798.415	48.81
798.806	48.82
799.196	48.85
799.586	48.85
799.976	48.88
800.366	48.87
800.756	48.86
801.146	48.88
801.536	48.89
801.926	48.89
802.316	48.88
802.706	48.86
803.095	48.87
803.485	48.83
803.874	48.81
804.264	48.78
804.653	48.81
805.043	48.84
805.432	48.82
805.821	48.83
806.21	48.84
806.599	48.84
806.988	48.84
807.377	48.83
807.766	48.85
808.155	48.85
808.544	48.87
808.933	48.87
809.321	48.84
809.71	48.84
810.098	48.8
810.487	48.78
810.875	48.8
811.264	48.8
811.652	48.81
812.04	48.79
812.428	48.83
812.816	48.8
813.204	48.8
813.592	48.79
813.98	48.83
814.368	48.85
814.756	48.85
815.144	48.83
815.531	48.81
815.919	48.77
816.306	48.77
816.694	48.74
817.081	48.78
817.469	48.78
817.856	48.78
818.243	48.73
818.63	48.74
819.017	48.74
819.404	48.75
819.791	48.76
820.178	48.79
820.565	48.78
820.952	48.78
821.339	48.77
821.725	48.78
822.112	48.79
822.498	48.81
822.885	48.83
823.271	48.82
823.657	48.8
824.044	48.81
824.43	48.82
824.816	48.84
825.202	48.82
825.588	48.82
825.974	48.8
826.36	48.8
826.746	48.79
827.132	48.77
827.517	48.78
827.903	48.81
828.289	48.83
828.674	48.81
829.06	48.81
829.445	48.82
829.83	48.82
830.216	48.82
830.601	48.81
830.986	48.83
831.371	48.82
831.756	48.82
832.141	48.8
832.526	48.78
832.911	48.77
833.295	48.77
833.68	48.78
834.065	48.79
834.449	48.82
834.834	48.83
835.218	48.81
835.603	48.81
835.987	48.8
836.371	48.8
836.755	48.81
837.139	48.81
837.524	48.81
837.908	48.82
838.291	48.82
838.675	48.79
839.059	48.78
839.443	48.78
839.827	48.76
840.21	48.77
840.594	48.8
840.977	48.76
841.361	48.77
841.744	48.75
842.127	48.72
842.511	48.68
842.894	48.68
843.277	48.68
843.66	48.66
844.043	48.68
844.426	48.68
844.809	48.68
845.191	48.7
845.574	48.71
845.957	48.72
846.339	48.75
846.722	48.77
847.104	48.79
847.487	48.79
847.869	48.8
848.252	48.79
848.634	48.77
849.016	48.75
849.398	48.75
849.78	48.74
850.162	48.72
850.544	48.69
850.926	48.68
851.307	48.66
851.689	48.67
852.071	48.69
852.452	48.68
852.834	48.68
853.215	48.7
853.597	48.69
853.978	48.69
854.359	48.7
854.741	48.73
855.122	48.75
855.503	48.75
855.884	48.72
856.265	48.7
856.646	48.68
857.026	48.7
857.407	48.69
857.788	48.69
858.169	48.71
858.549	48.71
858.93	48.69
859.31	48.68
859.69	48.69
860.071	48.7
860.451	48.71
860.831	48.7
861.211	48.68
861.591	48.67
861.971	48.65
862.351	48.64
862.731	48.63
863.111	48.63
863.491	48.61
863.87	48.6
864.25	48.59
864.629	48.59
865.009	48.62
865.388	48.61
865.768	48.63
866.147	48.64
866.526	48.65
866.905	48.66
867.284	48.67
867.663	48.68
868.042	48.68
868.421	48.69
868.8	48.69
869.179	48.7
869.558	48.7
869.936	48.67
870.315	48.65
870.693	48.65
871.072	48.66
871.45	48.65
871.828	48.66
872.207	48.69
872.585	48.69
872.963	48.69
873.341	48.65
873.719	48.67
874.097	48.66
874.475	48.68
874.853	48.65
875.23	48.65
875.608	48.65
875.986	48.66
876.363	48.63
876.741	48.62
877.118	48.63
877.495	48.66
877.873	48.66
878.25	48.68
878.627	48.68
879.004	48.71
879.381	48.71
879.758	48.7
880.135	48.7
880.512	48.69
880.889	48.7
881.265	48.67
881.642	48.66
882.019	48.65
882.395	48.64
882.772	48.64
883.148	48.6
883.524	48.58
883.901	48.58
884.277	48.56
884.653	48.56
885.029	48.54
885.405	48.56
885.781	48.54
886.157	48.52
886.532	48.53
886.908	48.51
887.284	48.52
887.659	48.47
888.035	48.45
888.411	48.43
888.786	48.43
889.161	48.42
889.537	48.4
889.912	48.39
890.287	48.39
890.662	48.36
891.037	48.39
891.412	48.37
891.787	48.38
892.162	48.37
892.536	48.38
892.911	48.37
893.286	48.38
893.66	48.38
894.035	48.41
894.409	48.4
894.784	48.41
895.158	48.39
895.532	48.4
895.906	48.41
896.281	48.45
896.655	48.45
897.029	48.47
897.402	48.47
897.776	48.49
898.15	48.47
898.524	48.49
898.898	48.49
899.271	48.49
899.645	48.5
900.018	48.52
900.392	48.49
900.765	48.5
901.138	48.51
901.511	48.51
901.884	48.5
902.258	48.5
902.631	48.48
903.003	48.5
903.376	48.5
903.749	48.49
904.122	48.48
904.495	48.5
904.867	48.48
905.24	48.48
905.612	48.49
905.985	48.46
906.357	48.47
906.729	48.5
907.102	48.48
907.474	48.5
907.846	48.52
908.218	48.52
908.59	48.52
908.962	48.52
909.334	48.51
909.705	48.48
910.077	48.5
910.449	48.48
910.82	48.46
911.192	48.48
911.563	48.44
911.935	48.39
912.306	48.39
912.677	48.39
913.048	48.41
913.419	48.4
913.79	48.41
914.161	48.42
914.532	48.44
914.903	48.45
915.274	48.44
915.645	48.45
916.015	48.48
916.386	48.48
916.756	48.52
917.127	48.52
917.497	48.55
917.868	48.57
918.238	48.55
918.608	48.56
918.978	48.57
919.348	48.59
919.718	48.6
920.088	48.6
920.458	48.59
920.828	48.53
921.198	48.51
921.567	48.49
921.937	48.51
922.306	48.47
922.676	48.43
923.045	48.43
923.415	48.42
923.784	48.42
924.153	48.41
924.522	48.45
924.891	48.46
925.26	48.43
925.629	48.44
925.998	48.41
926.367	48.41
926.736	48.44
927.104	48.43
927.473	48.4
927.842	48.36
928.21	48.35
928.578	48.3
928.947	48.29
929.315	48.3
929.683	48.28
930.051	48.25
930.42	48.25
930.788	48.22
931.156	48.18
931.523	48.2
931.891	48.24
932.259	48.22
932.627	48.26
932.994	48.26
933.362	48.24
933.729	48.25
934.097	48.27
934.464	48.31
934.831	48.29
935.199	48.33
935.566	48.33
935.933	48.31
936.3	48.32
936.667	48.3
937.034	48.34
937.401	48.39
937.767	48.33
938.134	48.31
938.501	48.31
938.867	48.36
939.234	48.34
939.6	48.34
939.967	48.31
940.333	48.28
940.699	48.28
941.065	48.2
941.431	48.16
941.798	48.16
942.163	48.18
942.529	48.11
942.895	48.09
943.261	48.06
943.627	48
943.992	48.01
944.358	47.98
944.723	47.95
945.089	47.9
945.454	47.92
945.82	47.95
946.185	47.94
946.55	47.92
946.915	47.86
947.28	47.82
947.645	47.87
948.01	47.85
948.375	47.85
948.74	47.82
949.104	47.87
949.469	47.83
949.834	47.79
950.198	47.75
950.562	47.75
950.927	47.72
951.291	47.68
951.655	47.55
952.02	47.52
952.384	47.47
952.748	47.47
953.112	47.48
953.476	47.43
953.839	47.38
954.203	47.36
954.567	47.31
954.931	47.3
955.294	47.26
955.658	47.38
956.021	47.38
956.385	47.36
956.748	47.3
957.111	47.2
957.474	47.25
957.837	47.2
958.2	47.13
958.563	47.16
958.926	47.17
959.289	47.15
959.652	47.08
960.015	47.07
960.377	47.06
960.74	47.07
961.102	47.11
961.465	47.1
961.827	47.17
962.189	47.24
962.552	47.24
962.914	47.23
963.276	47.3
963.638	47.27
964	47.26
964.362	47.28
964.724	47.27
965.085	47.23
965.447	47.23
965.809	47.24
966.17	47.23
966.532	47.22
966.893	47.21
967.255	47.19
967.616	47.25
967.977	47.27
968.338	47.24
968.699	47.24
969.061	47.23
969.421	47.16
969.782	47.17
970.143	47.13
970.504	47.14
970.865	47.15
971.225	47.11
971.586	47.04
971.946	47.01
972.307	46.99
972.667	47.03
973.027	47.1
973.388	47.1
973.748	47.07
974.108	47.14
974.468	47.11
974.828	47.1
975.188	47.09
975.548	47.1
975.907	47.12
976.267	47.13
976.627	47.12
976.986	47.06
977.346	47.05
977.705	47.09
978.064	47.05
978.424	47.06
978.783	47.05
979.142	47.06
979.501	47.15
979.86	47.22
980.219	47.26
980.578	47.28
980.937	47.34
981.296	47.35
981.654	47.3
982.013	47.32
982.371	47.34
982.73	47.34
983.088	47.36
983.447	47.27
983.805	47.23
984.163	47.16
984.521	47.1
984.879	47
985.237	47.02
985.595	47.12
985.953	47.11
986.311	47.08
986.669	47.14
987.026	47.19
987.384	47.25
987.741	47.18
988.099	47.2
988.456	47.26
988.814	47.31
989.171	47.32
989.528	47.24
989.885	47.24
990.242	47.28
990.599	47.25
990.956	47.18
991.313	47.17
991.67	47.22
992.027	47.37
992.383	47.4
992.74	47.42
993.096	47.47
993.453	47.4
993.809	47.4
994.165	47.44
994.522	47.46
994.878	47.5
995.234	47.5
995.59	47.5
995.946	47.37
996.302	47.35
996.658	47.4
997.013	47.38
997.369	47.42
997.725	47.53
998.08	47.47
998.436	47.49
998.791	47.54
999.147	47.51
999.502	47.46
999.857	47.39
1000.212	47.33
1000.567	47.31
1000.922	47.24
1001.277	47.31
1001.632	47.23
1001.987	47.28
1002.342	47.2
1002.696	47.07
1003.051	47.25
1003.406	47.53
1003.76	47.64
1004.114	47.57
1004.469	47.61
1004.823	47.95
1005.177	47.78
1005.531	47.75
1005.885	47.75
1006.239	47.73
1006.593	47.89
1006.947	47.76
1007.301	47.53
1007.655	47.51
1008.008	47.59
1008.362	47.77
1008.715	47.62
1009.069	47.83
1009.422	47.85
1009.776	47.75
1010.129	47.86
1010.482	47.86
1010.835	47.81
1011.188	47.87
1011.541	47.95
1011.894	48.11
1012.247	47.89
1012.6	47.84
1012.952	47.69
1013.305	47.74
1013.657	47.82
1014.01	47.76
1014.362	47.64
1014.715	47.79
1015.067	47.85
1015.419	47.91
1015.771	47.85
1016.123	47.97
1016.475	47.99
1016.827	48.24
1017.179	48.43
1017.531	48.43
1017.883	48.53
1018.234	48.76
1018.586	48.68
1018.938	48.8
1019.289	48.72
1019.64	48.62
1019.992	48.59
1020.343	48.64
1020.694	48.42
1021.045	48.27
1021.396	48.32
1021.747	48.5
1022.098	48.4
1022.449	48.39
1022.8	48.45
1023.151	48.39
1023.501	48.61
1023.852	48.55
1024.202	48.24
1024.553	48.4
1024.903	48.43
1025.253	48.66
1025.604	48.53
1025.954	48.39
1026.304	48.5
1026.654	48.56
1027.004	48.56
1027.354	48.53
1027.703	48.55
1028.053	48.9
1028.403	48.86
1028.753	48.63
1029.102	48.58
1029.452	48.72
1029.801	49.01
1030.15	49
1030.499	48.64
897.758	1340.23
901.051	1356.27
904.343	1349.29
907.636	1373.78
910.928	1334.1
914.22	1337.85
917.511	1317.52
920.803	1260.87
924.094	1252.29
927.384	1224.49
930.675	1177.76
933.965	1172.83
937.255	1100.27
940.544	1058.37
943.834	1006.4
947.123	999
950.411	938.62
953.7	920.52
956.988	871.13
960.276	836.1
963.563	822.44
966.851	793.61
970.138	786.26
973.424	762.26
976.711	763.81
979.997	729.81
983.283	725.81
986.568	710.25
989.853	688.82
993.138	676.64
996.423	651.38
999.708	633.37
1002.992	625.63
1006.275	598.09
1009.559	592.12
1012.842	570.91
1016.125	554.45
1019.408	543.83
1022.69	536.29
1025.972	525.41
1029.254	512.6
1032.536	504.57
1035.817	493.67
1039.098	487.07
1042.379	476.45
1045.659	472.12
1048.939	461.49
1052.219	451.65
1055.498	444.72
1058.778	434.6
1062.057	424.68
1065.335	420.44
1068.614	415.07
1071.892	410.5
1075.17	397.62
1078.447	390.58
1081.724	387.11
1085.001	384.28
1088.278	376.57
1091.554	369.11
1094.83	369.41
1098.106	366.95
1101.382	363.86
1104.657	362.11
1107.932	356.08
1111.206	358.08
1114.481	349.43
1117.755	345.62
1121.029	343.28
1124.302	343.14
1127.575	336.84
1130.848	332.7
1134.121	329.02
1137.393	326.34
1140.665	319.51
1143.937	317.35
1147.208	315.26
1150.48	314.62
1153.75	310.87
1157.021	305.89
1160.291	306.04
1163.561	303.09
1166.831	303.22
1170.101	300.9
1173.37	299.83
1176.639	300.03
1179.907	298
1183.176	294.48
1186.444	294.23
1189.711	293.79
1192.979	293.67
1196.246	291.13
1199.513	292.17
1202.78	289.64
1206.046	290.14
1209.312	287.79
1212.578	288.11
1215.843	290.73
1219.108	288.47
1222.373	294.35
1225.638	296.76
1228.902	300.52
1232.166	300.63
1235.43	303.31
1238.693	307.11
1241.956	307.92
1245.219	314.02
1248.482	313.12
1251.744	312.5
1255.006	314.29
1258.268	306.37
1261.529	303.2
1264.79	301.4
1268.051	299.45
1271.312	295.93
1274.572	292.58
1277.832	290.35
1281.092	285.2
1284.351	283.75
1287.61	283.22
1290.869	279.06
1294.128	277.34
1297.386	277.28
1300.644	273.23
1303.902	274.18
1307.159	273.52
1310.416	274.08
1313.673	272.89
1316.93	275.59
1320.186	275.67
1323.442	276.66
1326.697	281.78
1329.953	282.37
1333.208	283.62
1336.463	287.1
1339.717	288.14
1342.972	290.06
1346.226	292.61
1349.479	293.67
1352.733	295.05
1355.986	295.96
1359.238	296.09
1362.491	297.27
1365.743	300.42
1368.995	300.6
1372.247	299.41
1375.498	299.25
1378.749	302.5
1382	298.69
1385.251	299.35
1388.501	297.3
1391.751	298.65
1395	296.83
1398.25	294.06
1401.499	292.48
1404.748	291.38
1407.996	289.52
1411.244	288.13
1414.492	285.85
1417.74	283.1
1420.987	278.67
1424.234	278.48
1427.481	274.56
1430.728	274.33
1433.974	271.91
1437.22	269.44
1440.465	268.76
1443.711	266.94
1446.956	264.95
1450.201	261.83
1453.445	259.07
1456.689	258.69
1459.933	253.71
1463.177	252.42
1466.42	247.84
1469.663	245.49
1472.906	243.72
1476.148	237.73
1479.391	234.49
1482.633	232.57
1485.874	228.89
1489.115	227.82
1492.356	224.83
1495.597	224.64
1498.838	221.12
1502.078	220.32
1505.318	218.84
1508.557	218.91
1511.797	218.99
1515.036	217.55
1518.274	216.92
1521.513	214.77
1524.751	214.78
1527.989	214.59
1531.227	213.39
1534.464	214.18
1537.701	212.02
1540.938	211.51
1544.174	208.94
1547.41	208.17
1550.646	207.33
1553.882	207.1
1557.117	205.26
1560.352	203.27
1563.587	202.67
1566.821	201.62
1570.055	199.51
1573.289	198.45
1576.523	198.04
1579.756	196.73
1582.989	195.85
1586.222	195.53
1589.454	194.05
1592.686	195.5
1595.918	195.07
1599.15	194.66
1602.381	194.09
1605.612	193.82
1608.843	194.77
1612.073	194.92
1615.303	195.83
1618.533	195.57
1621.762	196.04
1624.992	196.21
1628.221	196.01
1631.449	195.66
1634.678	194.29
1637.906	196.37
1641.134	196.09
1644.361	195.41
1647.588	196.35
1650.815	195.37
1654.042	194.59
1657.269	195.54
1660.495	195.76
1663.72	194.52
1666.946	195.89
1670.171	197.14
1673.396	195.78
1676.621	196.08
1679.845	196.56
1683.069	195.21
1686.293	196.98
1689.517	198.42
1692.74	197.61
1695.963	198.94
1699.185	201.31
1702.408	200.34
1705.63	201.1
1708.852	201.69
1712.073	202.13
1715.294	202.58
1718.515	204.22
1721.736	203.43
1724.956	203.78
1728.176	204.33
1731.396	205.48
1734.616	204.42
1737.835	205.75
1741.054	204.14
1744.272	205.49
1747.491	207.24
1750.709	207.53
1753.927	207.55
1757.144	206.96
1760.361	207.87
1763.578	208.01
1766.795	207.48
1770.011	209.28
1773.227	208.89
1776.443	211.8
1779.658	212.45
1782.874	211.53
1786.089	212.57
1789.303	213.28
1792.518	216.36
1795.732	216.41
1798.945	218.43
1802.159	218.36
1805.372	218.74
1808.585	223.23
1811.797	223.57
1815.01	223.07
1818.222	225.31
1821.434	226.77
1824.645	227.8
1827.856	230.91
1831.067	232.5
1834.278	231.61
1837.488	233.89
1840.698	235.61
1843.908	232.9
1847.117	234.74
1850.326	236.7
1853.535	236.29
1856.744	239.91
1859.952	239.6
1863.16	237.95
1866.368	236.32
1869.575	239.31
1872.782	235.14
1875.989	234.19
1879.196	233.71
1882.402	231.44
1885.608	232.05
1888.814	232.21
1892.019	231.71
1895.224	231.06
1898.429	229.68
1901.634	231.4
1904.838	231.43
1908.042	234.07
1911.246	234.81
1914.449	236.12
1917.652	236.77
1920.855	236.59
1924.058	235.85
1927.26	234.07
1930.462	235.42
1933.664	238.48
1936.865	236.26
1940.066	236.1
1943.267	234.42
1946.467	234.74
1949.668	235.98
1952.868	238.64
1956.067	239.03
1959.267	239.57
1962.466	240.29
1965.665	238.57
1968.863	239.07
1972.061	243.34
1975.259	244.72
1978.457	247.65
1981.654	248.75
1984.852	249.42
1988.048	248.47
1991.245	251.25
1994.441	254.15
1997.637	256.23
2000.833	261.14
2004.028	264.78
2007.223	265.48
2010.418	269.18
2013.613	273.05
2016.807	276.81
2020.001	278.47
2023.194	283.13
2026.388	288.55
2029.581	294.9
2032.774	297.98
2035.966	303.54
2039.158	303.99
2042.35	310.32
2045.542	311.1
2048.733	315.79
2051.924	320.18
2055.115	326.58
2058.306	326.55
2061.496	329.99
2064.686	330.36
2067.875	335.33
2071.065	336.62
2074.254	335.53
2077.442	338.57
2080.631	341.03
2083.819	344.65
2087.007	343.93
2090.195	347.18
2093.382	351.05
2096.569	348.48
2099.756	353.58
2102.942	354.22
2106.128	358.23
2109.314	365.67
2112.5	364.32
2115.685	372.3
2118.87	372.48
2122.055	381.08
2125.239	384.74
2128.424	388.89
2131.608	392.79
2134.791	399.01
2137.974	400.75
2141.157	400.2
2144.34	402.13
2147.523	407.27
2150.705	404.44
2153.887	408.73
2157.068	409.4
2160.25	404.84
2163.431	406.55
2166.611	410.88
2169.792	418.09
2172.972	422.52
2176.152	426.38
2179.331	431.96
2182.511	440.32
2185.69	445.29
2188.868	454.84
2192.047	455.38
2195.225	469.02
2198.403	481.36
2201.58	489.92
2204.758	499.07
2207.935	509.28
2211.111	518.08
2214.288	523.65
2217.464	525.12
2220.64	532.52
2223.815	538.86
2226.991	561.41
2230.166	562.71
2233.34	572.4
2236.515	580.9
2239.689	581.3
2242.863	584.76
2246.036	602.16
2249.209	596.38
2252.382	608.1
2255.555	627.74
2258.727	630.14
2261.9	633.77
2265.071	640.37
2268.243	649.45
2271.414	658.12
2274.585	674.01
2277.756	681.52
2280.926	686.2
2284.096	702.19
2287.266	716.57
2290.436	721.14
2293.605	738.08
2296.774	758.99
2299.942	781.44
2303.111	786.78
2306.279	803.09
2309.447	811.86
2312.614	831.67
2315.781	854.3
2318.948	898.38
2322.115	884.21
2325.281	931.13
2328.447	910.84
2331.613	949.52
2334.779	938.66
2337.944	980.46
2341.109	990.75
2344.274	1019.84
2347.438	1052.78
2350.602	1055.46
2353.766	1081.63
2356.929	1098.39
2360.092	1093.12
2363.255	1173.4
2366.418	1169.16
2369.58	1197.86
2372.742	1266.46
2375.904	1298.84
2379.066	1290.56
2382.227	1273.33
2385.388	1379.16
2388.548	1384.19
2391.709	1399.73
2394.869	1559.24
2398.029	1488.65
2401.188	1529.31
2404.347	1516.2
2407.506	1495.51
2410.665	1538.09
2413.823	1633.21
2416.981	1727.48
2420.139	1669.13
2423.296	1649.83
2426.453	1719.75
2429.61	1652.33
2432.767	1729.74
2435.923	1716.39
2439.079	1875.75
2442.235	1894
2445.391	1881.19
2448.546	1863.53
2451.701	1814.38
2454.855	1810.44
2458.009	1922.13
2461.163	2004.91
2464.317	2080.17
2467.471	2137.86
2470.624	2137.8
2473.777	2082.31
2476.929	2038.21
2480.082	1975.82
2483.234	1953.69
2486.385	2053.53
2489.537	2065.52
2492.688	2143.76
2495.839	2078.76
2498.989	2034.53
2502.14	2047.14
2505.29	2067.73
2508.439	2098.13
2511.589	2091.51
2514.738	2283.96
2517.887	2231.56
2521.035	2355.95
2524.183	2375.14
2527.331	2390
2530.479	2387.07
2533.627	2403.3
