Data from N_2_DEC_ON_6N_Splice17_13-15-10-410.txt Node
Date: Sat Mar 07 13:15:10 EST 2020
User: sa697716
Spectrometer: NQ5500242
Trigger mode: 0
Integration Time (sec): 1.450000E-1
Scans to average: 20
Nonlinearity correction enabled: false
Boxcar width: 5
Storing dark spectrum: false
XAxis mode: Wavelengths
Number of Pixels in Spectrum: 512
>>>>>Begin Spectral Data<<<<<
187.83	137.01
188.298	158.33
188.766	152.07
189.233	121.61
189.701	117.52
190.169	145.22
190.636	163.24
191.104	231.25
191.571	124.96
192.039	221.91
192.506	482.22
192.974	-66.78
193.441	-60.82
193.908	62.81
194.375	26.21
194.842	-21.18
195.31	0.54
195.777	-30.08
196.244	42.85
196.711	41.23
197.177	44.48
197.644	44.58
198.111	43.95
198.578	44.93
199.045	44.08
199.511	44
199.978	44.1
200.445	44.56
200.911	44.67
201.378	44.56
201.844	44.71
202.31	44.34
202.777	44.34
203.243	44.29
203.709	43.57
204.176	43.58
204.642	43.39
205.108	43.2
205.574	42.63
206.04	42.07
206.506	41.58
206.972	41.4
207.438	41.17
207.903	40.74
208.369	39.99
208.835	39.66
209.301	38.84
209.766	38.22
210.232	37.54
210.697	36.68
211.163	36.4
211.628	36.13
212.094	35.64
212.559	35.16
213.024	34.54
213.49	34.18
213.955	33.67
214.42	33.34
214.885	32.9
215.35	32.2
215.815	31.59
216.28	30.4
216.745	29.14
217.21	28
217.675	27.01
218.14	26.14
218.604	25.41
219.069	24.8
219.534	24.27
219.998	23.77
220.463	23.39
220.927	22.99
221.392	22.72
221.856	22.51
222.32	22.26
222.785	22.05
223.249	21.87
223.713	21.68
224.177	21.51
224.642	21.33
225.106	21.12
225.57	20.88
226.034	20.7
226.497	20.51
226.961	20.33
227.425	20.18
227.889	19.99
228.353	19.78
228.816	19.57
229.28	19.38
229.744	19.21
230.207	19.04
230.671	18.89
231.134	18.73
231.597	18.59
232.061	18.43
232.524	18.27
232.987	18.12
233.45	17.99
233.914	17.85
234.377	17.7
234.84	17.55
235.303	17.42
235.766	17.3
236.229	17.16
236.691	17
237.154	16.87
237.617	16.75
238.08	16.61
238.542	16.48
239.005	16.37
239.468	16.24
239.93	16.13
240.393	16.02
240.855	15.91
241.317	15.79
241.78	15.69
242.242	15.57
242.704	15.47
243.166	15.39
243.629	15.28
244.091	15.18
244.553	15.08
245.015	14.99
245.477	14.88
245.939	14.79
246.4	14.7
246.862	14.6
247.324	14.51
247.786	14.41
248.247	14.31
248.709	14.21
249.17	14.1
249.632	14.04
250.093	13.95
250.555	13.87
251.016	13.79
251.477	13.71
251.939	13.64
252.4	13.55
252.861	13.47
253.322	13.4
253.783	13.34
254.244	13.27
254.705	13.18
255.166	13.1
255.627	13.01
256.088	12.93
256.549	12.86
257.009	12.77
257.47	12.7
257.931	12.61
258.391	12.53
258.852	12.44
259.312	12.38
259.773	12.3
260.233	12.24
260.694	12.17
261.154	12.1
261.614	12.03
262.074	11.97
262.534	11.9
262.994	11.86
263.455	11.81
263.915	11.76
264.374	11.71
264.834	11.68
265.294	11.63
265.754	11.6
266.214	11.57
266.673	11.54
267.133	11.51
267.593	11.49
268.052	11.45
268.512	11.42
268.971	11.38
269.431	11.34
269.89	11.3
270.349	11.27
270.809	11.23
271.268	11.18
271.727	11.14
272.186	11.1
272.645	11.06
273.104	11.03
273.563	10.99
274.022	10.96
274.481	10.92
274.94	10.88
275.399	10.84
275.857	10.8
276.316	10.76
276.775	10.72
277.233	10.69
277.692	10.65
278.15	10.62
278.609	10.58
279.067	10.54
279.525	10.52
279.984	10.49
280.442	10.45
280.9	10.43
281.358	10.4
281.816	10.38
282.274	10.35
282.732	10.31
283.19	10.27
283.648	10.23
284.106	10.19
284.564	10.16
285.021	10.13
285.479	10.11
285.937	10.08
286.394	10.05
286.852	10.02
287.309	9.99
287.767	9.97
288.224	9.96
288.682	9.93
289.139	9.91
289.596	9.88
290.053	9.85
290.511	9.82
290.968	9.79
291.425	9.77
291.882	9.75
292.339	9.73
292.796	9.72
293.252	9.7
293.709	9.68
294.166	9.66
294.623	9.65
295.079	9.63
295.536	9.61
295.992	9.59
296.449	9.57
296.905	9.56
297.362	9.54
297.818	9.52
298.274	9.51
298.731	9.5
299.187	9.48
299.643	9.46
300.099	9.46
300.555	9.45
301.011	9.44
301.467	9.43
301.923	9.41
302.379	9.39
302.835	9.38
303.291	9.35
303.746	9.35
304.202	9.34
304.658	9.33
305.113	9.31
305.569	9.3
306.024	9.29
306.479	9.28
306.935	9.27
307.39	9.26
307.845	9.26
308.301	9.27
308.756	9.27
309.211	9.27
309.666	9.27
310.121	9.27
310.576	9.27
311.031	9.27
311.486	9.27
311.94	9.28
312.395	9.28
312.85	9.28
313.305	9.27
313.759	9.26
314.214	9.26
314.668	9.26
315.123	9.25
315.577	9.24
316.032	9.24
316.486	9.23
316.94	9.21
317.394	9.19
317.849	9.18
318.303	9.17
318.757	9.15
319.211	9.14
319.665	9.13
320.119	9.13
320.572	9.12
321.026	9.12
321.48	9.11
321.934	9.1
322.387	9.09
322.841	9.08
323.295	9.06
323.748	9.05
324.202	9.04
324.655	9.02
325.108	9
325.562	8.98
326.015	8.97
326.468	8.96
326.921	8.95
327.374	8.95
327.827	8.95
328.28	8.94
328.733	8.94
329.186	8.93
329.639	8.92
330.092	8.92
330.545	8.91
330.997	8.91
331.45	8.9
331.903	8.9
332.355	8.91
332.808	8.88
333.26	8.87
333.713	8.86
334.165	8.86
334.617	8.87
335.069	8.87
335.522	8.88
335.974	8.86
336.426	8.86
336.878	8.85
337.33	8.83
337.782	8.84
338.234	8.85
338.686	8.85
339.137	8.85
339.589	8.83
340.041	8.84
340.493	8.82
340.944	8.82
341.396	8.81
341.847	8.81
342.299	8.8
342.75	8.79
343.201	8.77
343.653	8.76
344.104	8.75
344.555	8.74
345.006	8.74
345.457	8.73
345.908	8.73
346.359	8.73
346.81	8.72
347.261	8.72
347.712	8.71
348.163	8.7
348.613	8.7
349.064	8.7
349.515	8.69
349.965	8.68
350.416	8.67
350.866	8.67
351.317	8.65
351.767	8.65
352.217	8.65
352.668	8.66
353.118	8.67
353.568	8.66
354.018	8.68
354.468	8.7
354.918	8.72
355.368	8.73
355.818	8.74
356.268	8.75
356.718	8.76
357.168	8.76
357.617	8.77
358.067	8.77
358.517	8.79
358.966	8.79
359.416	8.78
359.865	8.79
360.315	8.8
360.764	8.81
361.213	8.82
361.663	8.83
362.112	8.83
362.561	8.85
363.01	8.85
363.459	8.84
363.908	8.85
364.357	8.86
364.806	8.86
365.255	8.87
365.703	8.87
366.152	8.87
366.601	8.88
367.05	8.89
367.498	8.88
367.947	8.89
368.395	8.9
368.844	8.91
369.292	8.92
369.74	8.92
370.189	8.93
370.637	8.95
371.085	8.96
371.533	8.98
371.981	8.99
372.429	9.02
372.877	9.03
373.325	9.05
373.773	9.06
374.221	9.07
374.669	9.09
375.116	9.11
375.564	9.13
376.012	9.14
376.459	9.16
376.907	9.18
377.354	9.18
377.801	9.2
378.249	9.21
378.696	9.24
379.143	9.26
379.591	9.27
380.038	9.28
380.485	9.3
380.932	9.31
381.379	9.34
381.826	9.36
382.273	9.38
382.72	9.39
383.166	9.42
383.613	9.43
384.06	9.44
384.506	9.48
384.953	9.51
385.4	9.53
385.846	9.57
386.292	9.57
386.739	9.6
387.185	9.63
387.631	9.67
388.078	9.69
388.524	9.72
388.97	9.75
389.416	9.77
389.862	9.8
390.308	9.83
390.754	9.87
391.2	9.91
391.645	9.93
392.091	9.97
392.537	10
392.983	10.01
393.428	10.04
393.874	10.07
394.319	10.09
394.765	10.12
395.21	10.14
395.655	10.17
396.101	10.2
396.546	10.22
396.991	10.25
397.436	10.27
397.881	10.32
398.326	10.35
398.771	10.38
399.216	10.41
399.661	10.43
400.106	10.46
400.551	10.47
400.995	10.47
401.44	10.49
401.885	10.49
402.329	10.5
402.774	10.51
403.218	10.54
403.663	10.55
404.107	10.57
404.551	10.59
404.995	10.58
405.44	10.59
405.884	10.62
406.328	10.64
406.772	10.64
407.216	10.66
407.66	10.68
408.104	10.67
408.547	10.68
408.991	10.69
409.435	10.68
409.879	10.71
410.322	10.73
410.766	10.73
411.209	10.73
411.653	10.76
412.096	10.78
412.54	10.78
412.983	10.79
413.426	10.81
413.869	10.82
414.312	10.85
414.756	10.87
415.199	10.86
415.642	10.87
416.085	10.87
416.527	10.86
416.97	10.84
417.413	10.82
417.856	10.83
418.298	10.83
418.741	10.83
419.184	10.82
419.626	10.8
420.069	10.82
420.511	10.83
420.953	10.85
421.396	10.86
421.838	10.88
422.28	10.9
422.722	10.91
423.164	10.91
423.606	10.91
424.048	10.91
424.49	10.92
424.932	10.92
425.374	10.89
425.816	10.86
426.258	10.86
426.699	10.85
427.141	10.84
427.582	10.84
428.024	10.85
428.465	10.83
428.907	10.83
429.348	10.81
429.789	10.81
430.231	10.84
430.672	10.84
431.113	10.85
431.554	10.85
431.995	10.86
432.436	10.85
432.877	10.84
433.318	10.87
433.759	10.88
434.2	10.9
434.64	10.9
435.081	10.91
435.522	10.92
435.962	10.94
436.403	10.96
436.843	10.97
437.284	10.96
437.724	10.97
438.164	10.94
438.604	10.95
439.045	10.96
439.485	10.97
439.925	10.96
440.365	10.97
440.805	10.94
441.245	10.97
441.685	10.99
442.125	11.02
442.564	11.05
443.004	11.07
443.444	11.09
443.883	11.11
444.323	11.12
444.762	11.14
445.202	11.17
445.641	11.21
446.081	11.22
446.52	11.24
446.959	11.28
447.398	11.3
447.837	11.34
448.276	11.35
448.716	11.4
449.154	11.43
449.593	11.47
450.032	11.5
450.471	11.51
450.91	11.52
451.349	11.55
451.787	11.55
452.226	11.56
452.664	11.57
453.103	11.57
453.541	11.56
453.98	11.56
454.418	11.55
454.856	11.55
455.295	11.55
455.733	11.53
456.171	11.53
456.609	11.54
457.047	11.54
457.485	11.55
457.923	11.56
458.361	11.58
458.798	11.58
459.236	11.57
459.674	11.57
460.111	11.58
460.549	11.6
460.987	11.59
461.424	11.59
461.862	11.59
462.299	11.58
462.736	11.58
463.173	11.55
463.611	11.54
464.048	11.54
464.485	11.55
464.922	11.55
465.359	11.55
465.796	11.55
466.233	11.55
466.67	11.55
467.106	11.57
467.543	11.56
467.98	11.57
468.416	11.57
468.853	11.57
469.29	11.56
469.726	11.56
470.162	11.56
470.599	11.55
471.035	11.54
471.471	11.54
471.907	11.52
472.344	11.53
472.78	11.54
473.216	11.53
473.652	11.54
474.088	11.55
474.523	11.56
474.959	11.55
475.395	11.54
475.831	11.53
476.266	11.53
476.702	11.53
477.138	11.53
477.573	11.53
478.008	11.53
478.444	11.52
478.879	11.52
479.314	11.51
479.75	11.5
480.185	11.5
480.62	11.5
481.055	11.52
481.49	11.51
481.925	11.51
482.36	11.52
482.795	11.52
483.229	11.52
483.664	11.52
484.099	11.53
484.534	11.55
484.968	11.57
485.403	11.58
485.837	11.59
486.271	11.62
486.706	11.64
487.14	11.66
487.574	11.67
488.009	11.7
488.443	11.72
488.877	11.75
489.311	11.77
489.745	11.8
490.179	11.84
490.613	11.89
491.046	11.91
491.48	11.95
491.914	11.99
492.348	12.04
492.781	12.1
493.215	12.17
493.648	12.24
494.082	12.3
494.515	12.36
494.948	12.42
495.382	12.48
495.815	12.55
496.248	12.63
496.681	12.7
497.114	12.77
497.547	12.84
497.98	12.92
498.413	13
498.846	13.09
499.279	13.18
499.711	13.27
500.144	13.37
500.577	13.48
501.009	13.57
501.442	13.69
501.874	13.81
502.306	13.93
502.739	14.07
503.171	14.21
503.603	14.33
504.036	14.48
504.468	14.62
504.9	14.75
505.332	14.9
505.764	15.07
506.196	15.23
506.627	15.4
507.059	15.58
507.491	15.73
507.923	15.91
508.354	16.11
508.786	16.28
509.217	16.5
509.649	16.72
510.08	16.92
510.512	17.14
510.943	17.34
511.374	17.55
511.805	17.76
512.237	17.97
512.668	18.19
513.099	18.4
513.53	18.63
513.961	18.85
514.391	19.07
514.822	19.31
515.253	19.55
515.684	19.78
516.114	20.02
516.545	20.26
516.975	20.49
517.406	20.73
517.836	20.95
518.267	21.19
518.697	21.41
519.127	21.62
519.558	21.84
519.988	22.05
520.418	22.27
520.848	22.46
521.278	22.66
521.708	22.94
522.138	23.13
522.567	23.33
522.997	23.52
523.427	23.7
523.857	23.89
524.286	24.05
524.716	24.23
525.145	24.4
525.575	24.56
526.004	24.71
526.433	24.8
526.863	24.95
527.292	25.09
527.721	25.21
528.15	25.32
528.579	25.43
529.008	25.55
529.437	25.64
529.866	25.73
530.295	25.83
530.724	25.93
531.152	26
531.581	26.08
532.01	26.16
532.438	26.24
532.867	26.33
533.295	26.38
533.723	26.46
534.152	26.54
534.58	26.61
535.008	26.66
535.436	26.72
535.865	26.75
536.293	26.79
536.721	26.83
537.149	26.87
537.576	26.9
538.004	26.97
538.432	26.98
538.86	27
539.287	27
539.715	27.04
540.143	27.06
540.57	27.09
540.998	27.11
541.425	27.14
541.852	27.17
542.28	27.18
542.707	27.18
543.134	27.19
543.561	27.21
543.988	27.23
544.415	27.22
544.842	27.23
545.269	27.25
545.696	27.27
546.123	27.26
546.549	27.27
546.976	27.3
547.403	27.3
547.829	27.31
548.256	27.33
548.682	27.34
549.108	27.37
549.535	27.39
549.961	27.39
550.387	27.4
550.813	27.42
551.24	27.4
551.666	27.39
552.092	27.39
552.518	27.38
552.943	27.35
553.369	27.34
553.795	27.32
554.221	27.3
554.646	27.27
555.072	27.23
555.498	27.19
555.923	27.17
556.349	27.13
556.774	27.09
557.199	27.03
557.625	26.99
558.05	26.94
558.475	26.89
558.9	26.82
559.325	26.77
559.75	26.71
560.175	26.64
560.6	26.57
561.025	26.51
561.449	26.45
561.874	26.36
562.299	26.28
562.723	26.2
563.148	26.11
563.572	26.02
563.997	25.92
564.421	25.8
564.846	25.7
565.27	25.61
565.694	25.5
566.118	25.38
566.542	25.29
566.966	25.18
567.39	25.08
567.814	24.97
568.238	24.87
568.662	24.77
569.086	24.67
569.509	24.57
569.933	24.44
570.357	24.33
570.78	24.23
571.204	24.11
571.627	24.01
572.05	23.9
572.474	23.8
572.897	23.7
573.32	23.6
573.743	23.48
574.166	23.39
574.589	23.29
575.012	23.2
575.435	23.11
575.858	23.03
576.281	22.93
576.704	22.84
577.126	22.74
577.549	22.65
577.972	22.58
578.394	22.49
578.817	22.41
579.239	22.34
579.661	22.27
580.084	22.19
580.506	22.12
580.928	22.06
581.35	21.99
581.772	21.92
582.194	21.86
582.616	21.78
583.038	21.72
583.46	21.65
583.882	21.57
584.303	21.51
584.725	21.46
585.147	21.41
585.568	21.34
585.99	21.28
586.411	21.24
586.833	21.18
587.254	21.13
587.675	21.08
588.096	21.05
588.518	21
588.939	20.97
589.36	20.92
589.781	20.88
590.202	20.86
590.623	20.83
591.043	20.79
591.464	20.77
591.885	20.73
592.305	20.72
592.726	20.69
593.147	20.66
593.567	20.63
593.987	20.6
594.408	20.57
594.828	20.54
595.248	20.53
595.669	20.51
596.089	20.47
596.509	20.47
596.929	20.44
597.349	20.41
597.769	20.39
598.189	20.35
598.608	20.34
599.028	20.32
599.448	20.3
599.867	20.25
600.287	20.21
600.706	20.2
601.126	20.17
601.545	20.14
601.965	20.12
602.384	20.09
602.803	20.05
603.222	20.01
603.641	19.95
604.061	19.89
604.48	19.83
604.898	19.77
605.317	19.7
605.736	19.64
606.155	19.59
606.574	19.51
606.992	19.43
607.411	19.38
607.829	19.28
608.248	19.23
608.666	19.16
609.085	19.1
609.503	19.05
609.921	18.98
610.339	18.91
610.758	18.84
611.176	18.77
611.594	18.71
612.012	18.63
612.43	18.6
612.847	18.53
613.265	18.46
613.683	18.4
614.101	18.35
614.518	18.3
614.936	18.23
615.353	18.16
615.771	18.11
616.188	18.05
616.606	18.01
617.023	17.96
617.44	17.92
617.857	17.86
618.274	17.81
618.691	17.75
619.108	17.7
619.525	17.66
619.942	17.63
620.359	17.6
620.776	17.57
621.192	17.53
621.609	17.51
622.026	17.48
622.442	17.45
622.859	17.44
623.275	17.43
623.691	17.41
624.108	17.38
624.524	17.38
624.94	17.36
625.356	17.35
625.772	17.33
626.188	17.32
626.604	17.3
627.02	17.31
627.436	17.29
627.852	17.28
628.268	17.25
628.683	17.25
629.099	17.24
629.514	17.21
629.93	17.2
630.345	17.17
630.761	17.14
631.176	17.13
631.591	17.08
632.007	17.05
632.422	17.01
632.837	16.97
633.252	16.92
633.667	16.85
634.082	16.8
634.497	16.75
634.911	16.7
635.326	16.63
635.741	16.56
636.155	16.49
636.57	16.44
636.984	16.36
637.399	16.28
637.813	16.2
638.228	16.12
638.642	16.02
639.056	15.92
639.47	15.83
639.884	15.74
640.298	15.63
640.712	15.54
641.126	15.42
641.54	15.31
641.954	15.21
642.368	15.11
642.781	15.03
643.195	14.94
643.609	14.84
644.022	14.75
644.436	14.67
644.849	14.59
645.262	14.49
645.676	14.42
646.089	14.36
646.502	14.29
646.915	14.24
647.328	14.16
647.741	14.11
648.154	14.05
648.567	14
648.98	13.93
649.393	13.88
649.805	13.84
650.218	13.8
650.631	13.76
651.043	13.73
651.456	13.68
651.868	13.64
652.28	13.61
652.693	13.58
653.105	13.53
653.517	13.49
653.929	13.45
654.341	13.39
654.753	13.33
655.165	13.28
655.577	13.23
655.989	13.16
656.401	13.1
656.813	13.03
657.224	12.95
657.636	12.86
658.047	12.79
658.459	12.71
658.87	12.63
659.282	12.54
659.693	12.46
660.104	12.35
660.515	12.26
660.926	12.16
661.338	12.08
661.749	11.99
662.159	11.92
662.57	11.84
662.981	11.76
663.392	11.69
663.803	11.63
664.213	11.57
664.624	11.5
665.035	11.44
665.445	11.39
665.855	11.33
666.266	11.29
666.676	11.26
667.086	11.21
667.497	11.17
667.907	11.14
668.317	11.1
668.727	11.07
669.137	11.05
669.547	11.03
669.956	11.01
670.366	11
670.776	10.97
671.186	10.96
671.595	10.93
672.005	10.92
672.414	10.9
672.824	10.9
673.233	10.9
673.642	10.91
674.052	10.9
674.461	10.9
674.87	10.91
675.279	10.93
675.688	10.94
676.097	10.97
676.506	11
676.915	11.03
677.323	11.06
677.732	11.09
678.141	11.12
678.549	11.16
678.958	11.2
679.366	11.25
679.775	11.31
680.183	11.38
680.592	11.47
681	11.55
681.408	11.65
681.816	11.75
682.224	11.87
682.632	12
683.04	12.13
683.448	12.29
683.856	12.45
684.264	12.62
684.671	12.81
685.079	13
685.487	13.22
685.894	13.45
686.302	13.72
686.709	13.98
687.116	14.27
687.524	14.59
687.931	14.91
688.338	15.25
688.745	15.61
689.152	15.97
689.559	16.38
689.966	16.79
690.373	17.19
690.78	17.61
691.187	18.03
691.593	18.48
692	18.91
692.407	19.33
692.813	19.79
693.22	20.23
693.626	20.67
694.032	21.11
694.439	21.55
694.845	21.99
695.251	22.44
695.657	22.9
696.063	23.33
696.469	23.77
696.875	24.2
697.281	24.62
697.687	25.06
698.093	25.47
698.498	25.89
698.904	26.29
699.31	26.68
699.715	27.07
700.12	27.44
700.526	27.84
700.931	28.19
701.337	28.57
701.742	28.91
702.147	29.24
702.552	29.59
702.957	29.9
703.362	30.21
703.767	30.52
704.172	30.81
704.577	31.1
704.981	31.38
705.386	31.66
705.791	31.93
706.195	32.23
706.6	32.52
707.004	32.76
707.408	33.02
707.813	33.3
708.217	33.54
708.621	33.8
709.025	34.03
709.43	34.25
709.834	34.51
710.237	34.74
710.641	34.94
711.045	35.16
711.449	35.39
711.853	35.63
712.256	35.81
712.66	36
713.064	36.19
713.467	36.4
713.87	36.6
714.274	36.77
714.677	36.95
715.08	37.16
715.484	37.33
715.887	37.52
716.29	37.7
716.693	37.88
717.096	38.07
717.499	38.24
717.901	38.41
718.304	38.56
718.707	38.72
719.109	38.88
719.512	39.03
719.915	39.18
720.317	39.3
720.719	39.39
721.122	39.52
721.524	39.63
721.926	39.77
722.328	39.89
722.731	40
723.133	40.11
723.535	40.2
723.937	40.29
724.338	40.38
724.74	40.48
725.142	40.69
725.544	40.77
725.945	40.91
726.347	40.95
726.748	41.04
727.15	41.11
727.551	41.2
727.952	41.27
728.354	41.33
728.755	41.4
729.156	41.47
729.557	41.42
729.958	41.48
730.359	41.52
730.76	41.58
731.161	41.63
731.562	41.69
731.962	41.74
732.363	41.81
732.763	41.87
733.164	41.92
733.564	41.98
733.965	42.03
734.365	42.09
734.766	42.14
735.166	42.19
735.566	42.22
735.966	42.26
736.366	42.29
736.766	42.3
737.166	42.34
737.566	42.36
737.966	42.36
738.365	42.37
738.765	42.39
739.165	42.4
739.564	42.42
739.964	42.44
740.363	42.45
740.763	42.47
741.162	42.51
741.561	42.49
741.96	42.5
742.36	42.53
742.759	42.59
743.158	42.59
743.557	42.6
743.955	42.62
744.354	42.64
744.753	42.67
745.152	42.7
745.55	42.72
745.949	42.74
746.348	42.77
746.746	42.78
747.144	42.77
747.543	42.77
747.941	42.78
748.339	42.78
748.737	42.76
749.136	42.76
749.534	42.74
749.932	42.74
750.33	42.76
750.727	42.76
751.125	42.75
751.523	42.75
751.921	42.77
752.318	42.8
752.716	42.82
753.113	42.86
753.511	42.87
753.908	42.89
754.305	42.9
754.703	42.88
755.1	42.89
755.497	42.91
755.894	42.91
756.291	42.91
756.688	42.88
757.085	42.89
757.482	42.87
757.878	42.88
758.275	42.86
758.672	42.84
759.068	42.87
759.465	42.86
759.861	42.85
760.258	42.88
760.654	42.9
761.05	42.91
761.447	42.91
761.843	42.91
762.239	42.89
762.635	42.91
763.031	42.94
763.427	42.92
763.822	42.93
764.218	42.92
764.614	42.89
765.01	42.89
765.405	42.87
765.801	42.86
766.196	42.86
766.592	42.86
766.987	42.85
767.382	42.84
767.778	42.84
768.173	42.83
768.568	42.82
768.963	42.81
769.358	42.8
769.753	42.82
770.148	42.82
770.542	42.83
770.937	42.83
771.332	42.82
771.726	42.82
772.121	42.83
772.515	42.83
772.91	42.83
773.304	42.86
773.699	42.87
774.093	42.85
774.487	42.84
774.881	42.85
775.275	42.84
775.669	42.82
776.063	42.82
776.457	42.8
776.851	42.79
777.245	42.78
777.638	42.75
778.032	42.76
778.425	42.77
778.819	42.76
779.212	42.75
779.606	42.76
779.999	42.76
780.392	42.77
780.786	42.76
781.179	42.78
781.572	42.81
781.965	42.82
782.358	42.78
782.751	42.76
783.143	42.77
783.536	42.76
783.929	42.74
784.322	42.77
784.714	42.75
785.107	42.77
785.499	42.75
785.891	42.73
786.284	42.73
786.676	42.76
787.068	42.76
787.46	42.75
787.852	42.76
788.245	42.77
788.636	42.75
789.028	42.78
789.42	42.76
789.812	42.78
790.204	42.77
790.595	42.79
790.987	42.78
791.378	42.81
791.77	42.8
792.161	42.81
792.553	42.8
792.944	42.78
793.335	42.78
793.726	42.79
794.117	42.77
794.508	42.77
794.899	42.78
795.29	42.76
795.681	42.74
796.072	42.75
796.463	42.78
796.853	42.78
797.244	42.81
797.634	42.81
798.025	42.83
798.415	42.82
798.806	42.81
799.196	42.79
799.586	42.8
799.976	42.82
800.366	42.8
800.756	42.77
801.146	42.78
801.536	42.78
801.926	42.77
802.316	42.78
802.706	42.79
803.095	42.79
803.485	42.78
803.874	42.78
804.264	42.77
804.653	42.77
805.043	42.76
805.432	42.75
805.821	42.75
806.21	42.75
806.599	42.75
806.988	42.75
807.377	42.77
807.766	42.78
808.155	42.75
808.544	42.75
808.933	42.74
809.321	42.73
809.71	42.72
810.098	42.7
810.487	42.7
810.875	42.68
811.264	42.66
811.652	42.64
812.04	42.64
812.428	42.67
812.816	42.65
813.204	42.64
813.592	42.62
813.98	42.61
814.368	42.61
814.756	42.59
815.144	42.57
815.531	42.57
815.919	42.58
816.306	42.59
816.694	42.55
817.081	42.57
817.469	42.59
817.856	42.58
818.243	42.6
818.63	42.58
819.017	42.57
819.404	42.58
819.791	42.57
820.178	42.55
820.565	42.51
820.952	42.54
821.339	42.54
821.725	42.55
822.112	42.57
822.498	42.55
822.885	42.57
823.271	42.57
823.657	42.54
824.044	42.54
824.43	42.56
824.816	42.58
825.202	42.57
825.588	42.56
825.974	42.55
826.36	42.55
826.746	42.55
827.132	42.55
827.517	42.56
827.903	42.58
828.289	42.59
828.674	42.59
829.06	42.59
829.445	42.58
829.83	42.57
830.216	42.57
830.601	42.55
830.986	42.57
831.371	42.53
831.756	42.55
832.141	42.57
832.526	42.58
832.911	42.57
833.295	42.57
833.68	42.58
834.065	42.59
834.449	42.56
834.834	42.55
835.218	42.55
835.603	42.58
835.987	42.56
836.371	42.52
836.755	42.48
837.139	42.47
837.524	42.46
837.908	42.47
838.291	42.48
838.675	42.5
839.059	42.51
839.443	42.51
839.827	42.5
840.21	42.5
840.594	42.52
840.977	42.53
841.361	42.53
841.744	42.52
842.127	42.5
842.511	42.49
842.894	42.48
843.277	42.48
843.66	42.45
844.043	42.47
844.426	42.46
844.809	42.48
845.191	42.5
845.574	42.5
845.957	42.51
846.339	42.51
846.722	42.52
847.104	42.54
847.487	42.54
847.869	42.54
848.252	42.51
848.634	42.5
849.016	42.48
849.398	42.48
849.78	42.49
850.162	42.48
850.544	42.48
850.926	42.47
851.307	42.45
851.689	42.45
852.071	42.46
852.452	42.46
852.834	42.48
853.215	42.49
853.597	42.47
853.978	42.46
854.359	42.48
854.741	42.47
855.122	42.46
855.503	42.46
855.884	42.44
856.265	42.42
856.646	42.43
857.026	42.42
857.407	42.39
857.788	42.38
858.169	42.4
858.549	42.4
858.93	42.42
859.31	42.4
859.69	42.41
860.071	42.43
860.451	42.43
860.831	42.43
861.211	42.39
861.591	42.41
861.971	42.44
862.351	42.41
862.731	42.41
863.111	42.4
863.491	42.42
863.87	42.41
864.25	42.41
864.629	42.42
865.009	42.42
865.388	42.44
865.768	42.44
866.147	42.43
866.526	42.46
866.905	42.46
867.284	42.46
867.663	42.47
868.042	42.48
868.421	42.5
868.8	42.5
869.179	42.51
869.558	42.51
869.936	42.49
870.315	42.47
870.693	42.46
871.072	42.45
871.45	42.45
871.828	42.44
872.207	42.42
872.585	42.41
872.963	42.4
873.341	42.41
873.719	42.4
874.097	42.4
874.475	42.42
874.853	42.4
875.23	42.45
875.608	42.44
875.986	42.45
876.363	42.47
876.741	42.47
877.118	42.48
877.495	42.49
877.873	42.51
878.25	42.52
878.627	42.52
879.004	42.53
879.381	42.51
879.758	42.5
880.135	42.51
880.512	42.5
880.889	42.49
881.265	42.48
881.642	42.47
882.019	42.47
882.395	42.45
882.772	42.45
883.148	42.43
883.524	42.44
883.901	42.45
884.277	42.43
884.653	42.43
885.029	42.41
885.405	42.42
885.781	42.4
886.157	42.4
886.532	42.41
886.908	42.39
887.284	42.41
887.659	42.38
888.035	42.36
888.411	42.35
888.786	42.35
889.161	42.37
889.537	42.36
889.912	42.37
890.287	42.36
890.662	42.35
891.037	42.37
891.412	42.36
891.787	42.36
892.162	42.37
892.536	42.36
892.911	42.36
893.286	42.36
893.66	42.35
894.035	42.35
894.409	42.34
894.784	42.35
895.158	42.34
895.532	42.36
895.906	42.35
896.281	42.34
896.655	42.37
897.029	42.39
897.402	42.38
897.776	42.4
898.15	42.41
898.524	42.42
898.898	42.43
899.271	42.42
899.645	42.43
900.018	42.44
900.392	42.47
900.765	42.49
901.138	42.46
901.511	42.45
901.884	42.45
902.258	42.47
902.631	42.47
903.003	42.47
903.376	42.48
903.749	42.47
904.122	42.48
904.495	42.49
904.867	42.48
905.24	42.5
905.612	42.55
905.985	42.51
906.357	42.5
906.729	42.53
907.102	42.52
907.474	42.54
907.846	42.55
908.218	42.55
908.59	42.56
908.962	42.57
909.334	42.57
909.705	42.54
910.077	42.57
910.449	42.6
910.82	42.6
911.192	42.62
911.563	42.59
911.935	42.58
912.306	42.56
912.677	42.57
913.048	42.59
913.419	42.57
913.79	42.58
914.161	42.59
914.532	42.58
914.903	42.56
915.274	42.55
915.645	42.56
916.015	42.55
916.386	42.56
916.756	42.57
917.127	42.55
917.497	42.56
917.868	42.54
918.238	42.53
918.608	42.52
918.978	42.53
919.348	42.51
919.718	42.5
920.088	42.52
920.458	42.52
920.828	42.47
921.198	42.46
921.567	42.45
921.937	42.49
922.306	42.47
922.676	42.47
923.045	42.45
923.415	42.46
923.784	42.46
924.153	42.47
924.522	42.46
924.891	42.49
925.26	42.5
925.629	42.52
925.998	42.5
926.367	42.5
926.736	42.51
927.104	42.53
927.473	42.53
927.842	42.5
928.21	42.48
928.578	42.47
928.947	42.46
929.315	42.44
929.683	42.42
930.051	42.42
930.42	42.42
930.788	42.42
931.156	42.4
931.523	42.41
931.891	42.5
932.259	42.53
932.627	42.57
932.994	42.59
933.362	42.6
933.729	42.63
934.097	42.67
934.464	42.7
934.831	42.69
935.199	42.73
935.566	42.72
935.933	42.62
936.3	42.62
936.667	42.61
937.034	42.64
937.401	42.66
937.767	42.65
938.134	42.61
938.501	42.6
938.867	42.62
939.234	42.59
939.6	42.61
939.967	42.68
940.333	42.63
940.699	42.63
941.065	42.54
941.431	42.53
941.798	42.54
942.163	42.5
942.529	42.45
942.895	42.46
943.261	42.44
943.627	42.41
943.992	42.42
944.358	42.44
944.723	42.36
945.089	42.35
945.454	42.39
945.82	42.33
946.185	42.33
946.55	42.33
946.915	42.27
947.28	42.23
947.645	42.23
948.01	42.18
948.375	42.14
948.74	42.16
949.104	42.19
949.469	42.11
949.834	42.11
950.198	42.11
950.562	42.07
950.927	42.07
951.291	42.02
951.655	41.98
952.02	41.98
952.384	41.91
952.748	41.89
953.112	41.88
953.476	41.9
953.839	41.86
954.203	41.83
954.567	41.85
954.931	41.8
955.294	41.83
955.658	41.92
956.021	41.93
956.385	41.93
956.748	41.92
957.111	41.91
957.474	41.85
957.837	41.8
958.2	41.8
958.563	41.8
958.926	41.84
959.289	41.86
959.652	41.75
960.015	41.74
960.377	41.74
960.74	41.74
961.102	41.75
961.465	41.81
961.827	41.86
962.189	41.93
962.552	41.9
962.914	41.88
963.276	41.9
963.638	41.95
964	41.92
964.362	41.97
964.724	42
965.085	41.94
965.447	41.91
965.809	41.9
966.17	41.84
966.532	41.9
966.893	41.92
967.255	41.87
967.616	41.84
967.977	41.81
968.338	41.77
968.699	41.76
969.061	41.78
969.421	41.78
969.782	41.77
970.143	41.79
970.504	41.79
970.865	41.77
971.225	41.78
971.586	41.78
971.946	41.8
972.307	41.84
972.667	41.83
973.027	41.86
973.388	41.84
973.748	41.87
974.108	41.94
974.468	41.89
974.828	41.95
975.188	41.94
975.548	41.94
975.907	41.95
976.267	41.94
976.627	41.96
976.986	41.9
977.346	41.93
977.705	41.91
978.064	41.86
978.424	41.91
978.783	41.88
979.142	41.88
979.501	41.92
979.86	41.99
980.219	41.99
980.578	42
980.937	42.05
981.296	42.05
981.654	42.01
982.013	42.03
982.371	42.06
982.73	42.03
983.088	42.02
983.447	41.97
983.805	41.9
984.163	41.9
984.521	41.88
984.879	41.83
985.237	41.79
985.595	41.85
985.953	41.79
986.311	41.69
986.669	41.71
987.026	41.67
987.384	41.7
987.741	41.7
988.099	41.79
988.456	41.81
988.814	41.86
989.171	41.92
989.528	41.93
989.885	41.97
990.242	41.98
990.599	42
990.956	42.08
991.313	42.11
991.67	42.12
992.027	42.17
992.383	42.19
992.74	42.23
993.096	42.23
993.453	42.22
993.809	42.25
994.165	42.4
994.522	42.44
994.878	42.48
995.234	42.42
995.59	42.4
995.946	42.38
996.302	42.35
996.658	42.38
997.013	42.42
997.369	42.46
997.725	42.47
998.08	42.41
998.436	42.38
998.791	42.44
999.147	42.47
999.502	42.59
999.857	42.51
1000.212	42.46
1000.567	42.47
1000.922	42.41
1001.277	42.42
1001.632	42.35
1001.987	42.35
1002.342	42.32
1002.696	42.23
1003.051	42.36
1003.406	42.45
1003.76	42.45
1004.114	42.51
1004.469	42.5
1004.823	42.75
1005.177	42.67
1005.531	42.78
1005.885	42.77
1006.239	42.79
1006.593	43
1006.947	42.97
1007.301	42.89
1007.655	42.97
1008.008	43.01
1008.362	42.99
1008.715	42.9
1009.069	43
1009.422	43
1009.776	42.97
1010.129	43.1
1010.482	42.88
1010.835	42.93
1011.188	42.87
1011.541	42.92
1011.894	43.07
1012.247	43.08
1012.6	43.16
1012.952	43.24
1013.305	43.37
1013.657	43.52
1014.01	43.52
1014.362	43.56
1014.715	43.64
1015.067	43.88
1015.419	43.86
1015.771	43.68
1016.123	43.77
1016.475	43.57
1016.827	43.73
1017.179	43.68
1017.531	43.7
1017.883	43.66
1018.234	43.83
1018.586	43.84
1018.938	43.8
1019.289	43.92
1019.64	43.96
1019.992	43.93
1020.343	43.97
1020.694	43.86
1021.045	43.85
1021.396	43.87
1021.747	44
1022.098	43.92
1022.449	43.91
1022.8	43.71
1023.151	43.53
1023.501	43.74
1023.852	43.95
1024.202	43.76
1024.553	43.56
1024.903	43.63
1025.253	43.77
1025.604	43.85
1025.954	43.63
1026.304	43.54
1026.654	43.76
1027.004	43.87
1027.354	43.93
1027.703	43.67
1028.053	43.9
1028.403	44.03
1028.753	43.79
1029.102	43.7
1029.452	43.61
1029.801	44.03
1030.15	44.03
1030.499	43.94
897.758	1308.75
901.051	1320.05
904.343	1312.48
907.636	1339.56
910.928	1299.33
914.22	1298.97
917.511	1279.92
920.803	1225.32
924.094	1221.68
927.384	1191.96
930.675	1145.89
933.965	1138.75
937.255	1068.84
940.544	1028.13
943.834	976.24
947.123	970.8
950.411	912.24
953.7	893.59
956.988	846.11
960.276	810.55
963.563	797.65
966.851	768.15
970.138	763.33
973.424	739.46
976.711	742.53
979.997	707.72
983.283	704.87
986.568	691.01
989.853	668.16
993.138	657.1
996.423	632.31
999.708	615.54
1002.992	608.62
1006.275	580.24
1009.559	575.81
1012.842	555.36
1016.125	539.66
1019.408	528.21
1022.69	521.77
1025.972	512.48
1029.254	499.52
1032.536	491.41
1035.817	480.77
1039.098	474.69
1042.379	465.82
1045.659	460.56
1048.939	448.67
1052.219	439.63
1055.498	433.04
1058.778	423.17
1062.057	413.04
1065.335	409.03
1068.614	403.63
1071.892	399.57
1075.17	385.74
1078.447	378.35
1081.724	375.32
1085.001	373.76
1088.278	366.13
1091.554	358.78
1094.83	359.01
1098.106	356.85
1101.382	353.71
1104.657	351.61
1107.932	345.86
1111.206	348.81
1114.481	340.06
1117.755	336.82
1121.029	333.44
1124.302	332.69
1127.575	326.66
1130.848	322.64
1134.121	319
1137.393	316.75
1140.665	310.48
1143.937	308.29
1147.208	306.56
1150.48	305.57
1153.75	301.85
1157.021	297.68
1160.291	298.04
1163.561	295.28
1166.831	294.91
1170.101	292.75
1173.37	292.44
1176.639	293
1179.907	290.1
1183.176	285.97
1186.444	287.39
1189.711	285.82
1192.979	285.35
1196.246	283.76
1199.513	283.85
1202.78	282.34
1206.046	282.76
1209.312	279.24
1212.578	279.36
1215.843	281.99
1219.108	281.09
1222.373	285.62
1225.638	288.44
1228.902	291.83
1232.166	291.66
1235.43	295.18
1238.693	297.85
1241.956	299.42
1245.219	304.9
1248.482	304.94
1251.744	304.8
1255.006	305.45
1258.268	297.88
1261.529	295.41
1264.79	293.11
1268.051	292.44
1271.312	287.88
1274.572	285.27
1277.832	283.23
1281.092	277.9
1284.351	275.51
1287.61	275.43
1290.869	271.59
1294.128	269.72
1297.386	270.03
1300.644	267.28
1303.902	266.89
1307.159	266.98
1310.416	267.11
1313.673	266.13
1316.93	269.35
1320.186	268.91
1323.442	269.52
1326.697	273.81
1329.953	275.06
1333.208	275.55
1336.463	279.32
1339.717	280.14
1342.972	283.27
1346.226	286.27
1349.479	286.48
1352.733	287.87
1355.986	290.48
1359.238	290.57
1362.491	292.15
1365.743	294.06
1368.995	294.43
1372.247	293.7
1375.498	293.56
1378.749	295.56
1382	292.15
1385.251	292.78
1388.501	291.85
1391.751	292.46
1395	291.31
1398.25	289.43
1401.499	288.66
1404.748	288.35
1407.996	285.59
1411.244	284.48
1414.492	282.78
1417.74	280.27
1420.987	276.25
1424.234	276.31
1427.481	272.21
1430.728	272.05
1433.974	269.8
1437.22	267.11
1440.465	266.46
1443.711	264.82
1446.956	263.27
1450.201	260.04
1453.445	257.59
1456.689	257.49
1459.933	252
1463.177	250.91
1466.42	246.45
1469.663	243.84
1472.906	242.54
1476.148	236.13
1479.391	233.9
1482.633	231.75
1485.874	228.04
1489.115	226.52
1492.356	223.65
1495.597	224.11
1498.838	220.03
1502.078	219.15
1505.318	217.76
1508.557	217.44
1511.797	217.54
1515.036	215.3
1518.274	214.54
1521.513	213.12
1524.751	212.94
1527.989	212.5
1531.227	210.87
1534.464	211.93
1537.701	210.08
1540.938	209.57
1544.174	207.02
1547.41	206.58
1550.646	206.05
1553.882	205.91
1557.117	203.18
1560.352	202.02
1563.587	201.25
1566.821	199.9
1570.055	197.79
1573.289	196.45
1576.523	196.15
1579.756	195.46
1582.989	194.05
1586.222	193.49
1589.454	192.62
1592.686	194.27
1595.918	192.72
1599.15	192.37
1602.381	192.55
1605.612	192.45
1608.843	193.26
1612.073	193.09
1615.303	193.53
1618.533	193.59
1621.762	193.89
1624.992	193.75
1628.221	193.29
1631.449	193.88
1634.678	192.93
1637.906	194.23
1641.134	193.85
1644.361	193.49
1647.588	194.27
1650.815	193.21
1654.042	192.7
1657.269	193.76
1660.495	194.13
1663.72	193
1666.946	193.73
1670.171	194.48
1673.396	193.89
1676.621	194.08
1679.845	194.66
1683.069	193.75
1686.293	195.32
1689.517	196.89
1692.74	196.34
1695.963	196.63
1699.185	198.93
1702.408	198.61
1705.63	199.19
1708.852	199.51
1712.073	200.23
1715.294	200.47
1718.515	202.05
1721.736	201.52
1724.956	201.89
1728.176	202.04
1731.396	204.13
1734.616	203.21
1737.835	204.37
1741.054	203.18
1744.272	203.8
1747.491	205.71
1750.709	206.03
1753.927	206.1
1757.144	205.18
1760.361	205.89
1763.578	206.39
1766.795	205.66
1770.011	207.35
1773.227	206.71
1776.443	209.57
1779.658	210.75
1782.874	210.01
1786.089	210.62
1789.303	211.42
1792.518	214.7
1795.732	214.63
1798.945	216.41
1802.159	216.77
1805.372	217.36
1808.585	221.99
1811.797	221.67
1815.01	222.15
1818.222	224.27
1821.434	225.85
1824.645	226.51
1827.856	230.32
1831.067	231.78
1834.278	230.41
1837.488	232.64
1840.698	234.35
1843.908	231.5
1847.117	233.76
1850.326	234.38
1853.535	234.12
1856.744	237.62
1859.952	237.62
1863.16	235.29
1866.368	234.48
1869.575	238.26
1872.782	234.22
1875.989	233.02
1879.196	232.75
1882.402	230.9
1885.608	231.83
1888.814	232.01
1892.019	231.01
1895.224	230.41
1898.429	229.21
1901.634	230.41
1904.838	230.61
1908.042	233
1911.246	234.24
1914.449	235.59
1917.652	235.58
1920.855	235.85
1924.058	235.61
1927.26	234.48
1930.462	235.79
1933.664	238.65
1936.865	236.71
1940.066	235.98
1943.267	234.78
1946.467	234.04
1949.668	235.79
1952.868	238.74
1956.067	238.04
1959.267	238.37
1962.466	239.42
1965.665	238.31
1968.863	238.96
1972.061	242.42
1975.259	244.82
1978.457	246.69
1981.654	249.1
1984.852	249.13
1988.048	248.58
1991.245	250.98
1994.441	253.86
1997.637	255.88
2000.833	260.31
2004.028	264.13
2007.223	265.27
2010.418	267.66
2013.613	272.19
2016.807	275.58
2020.001	277.41
2023.194	281.59
2026.388	287.98
2029.581	295.14
2032.774	296.57
2035.966	302.75
2039.158	302.85
2042.35	309.24
2045.542	310.21
2048.733	315.46
2051.924	318.74
2055.115	324.75
2058.306	324.94
2061.496	328.61
2064.686	326.65
2067.875	334.02
2071.065	334.44
2074.254	333.26
2077.442	336.26
2080.631	339.06
2083.819	341.5
2087.007	341.63
2090.195	345.41
2093.382	349.04
2096.569	346.04
2099.756	351.66
2102.942	351.55
2106.128	354.93
2109.314	362.43
2112.5	360.79
2115.685	368.35
2118.87	368.86
2122.055	376.42
2125.239	378.52
2128.424	382.26
2131.608	385.25
2134.791	391
2137.974	393.2
2141.157	394.47
2144.34	395.63
2147.523	402.03
2150.705	399.26
2153.887	403.71
2157.068	404.8
2160.25	402.01
2163.431	404.43
2166.611	409.6
2169.792	416.26
2172.972	421.32
2176.152	423.44
2179.331	428.63
2182.511	436.34
2185.69	440.81
2188.868	448.77
2192.047	449.79
2195.225	462.07
2198.403	473.69
2201.58	482.04
2204.758	491.07
2207.935	499.4
2211.111	507.97
2214.288	514.11
2217.464	514.07
2220.64	523.11
2223.815	530.07
2226.991	552.84
2230.166	553.31
2233.34	562.62
2236.515	570.94
2239.689	572.98
2242.863	577.21
2246.036	594.13
2249.209	589.8
2252.382	600.83
2255.555	617.96
2258.727	620.07
2261.9	623.65
2265.071	630.13
2268.243	640.05
2271.414	646.73
2274.585	661.08
2277.756	666.48
2280.926	673.6
2284.096	690.56
2287.266	705.65
2290.436	709.89
2293.605	725.83
2296.774	745.33
2299.942	769.66
2303.111	772.03
2306.279	792.37
2309.447	802.69
2312.614	822.93
2315.781	842.09
2318.948	882.37
2322.115	868.24
2325.281	915.73
2328.447	897.98
2331.613	934.51
2334.779	922.86
2337.944	965.35
2341.109	972.91
2344.274	996.3
2347.438	1033.12
2350.602	1034
2353.766	1064.09
2356.929	1079.01
2360.092	1072.33
2363.255	1149.46
2366.418	1145.31
2369.58	1169.74
2372.742	1238.72
2375.904	1270.23
2379.066	1263.78
2382.227	1241.19
2385.388	1345.33
2388.548	1341.47
2391.709	1360.65
2394.869	1512.77
2398.029	1452.9
2401.188	1490.3
2404.347	1476.08
2407.506	1452.31
2410.665	1497.18
2413.823	1590.33
2416.981	1682.24
2420.139	1625.39
2423.296	1609.65
2426.453	1676.66
2429.61	1619.03
2432.767	1687.09
2435.923	1676.14
2439.079	1835.03
2442.235	1856.46
2445.391	1839.14
2448.546	1822.61
2451.701	1770.26
2454.855	1768.9
2458.009	1876.43
2461.163	1955.62
2464.317	2022.77
2467.471	2073.73
2470.624	2077.65
2473.777	2025.92
2476.929	1978.14
2480.082	1914.3
2483.234	1894.25
2486.385	1992.19
2489.537	2003.25
2492.688	2078.14
2495.839	2020.6
2498.989	1971.88
2502.14	1988.81
2505.29	2003.48
2508.439	2037.33
2511.589	2029.3
2514.738	2217.27
2517.887	2169.43
2521.035	2288.06
2524.183	2314.88
2527.331	2326.85
2530.479	2317.74
2533.627	2339.28
