Data from N_2_DEC_VA_2N_Splice17_13-07-18-500.txt Node
Date: Sat Mar 07 13:07:18 EST 2020
User: sa697716
Spectrometer: NQ5500242
Trigger mode: 0
Integration Time (sec): 1.450000E-1
Scans to average: 20
Nonlinearity correction enabled: false
Boxcar width: 5
Storing dark spectrum: false
XAxis mode: Wavelengths
Number of Pixels in Spectrum: 512
>>>>>Begin Spectral Data<<<<<
187.83	221.99
188.298	248.56
188.766	231.8
189.233	198.12
189.701	211.63
190.169	240.98
190.636	285.13
191.104	450.16
191.571	425.25
192.039	118.51
192.506	348.81
192.974	-75.29
193.441	38.18
193.908	79.21
194.375	109.67
194.842	56.23
195.31	67.59
195.777	15.15
196.244	39.46
196.711	36.57
197.177	37.11
197.644	37.82
198.111	37.39
198.578	37.95
199.045	37.78
199.511	37.85
199.978	38.17
200.445	38.74
200.911	39.03
201.378	39.07
201.844	39.25
202.31	39.22
202.777	39.46
203.243	39.52
203.709	39.22
204.176	39.03
204.642	38.66
205.108	38.76
205.574	38.52
206.04	38.13
206.506	37.62
206.972	37.49
207.438	37.08
207.903	36.28
208.369	35.85
208.835	35.27
209.301	34.4
209.766	33.47
210.232	32.51
210.697	31.42
211.163	30.72
211.628	30.04
212.094	29.15
212.559	28.64
213.024	28.14
213.49	27.35
213.955	26.6
214.42	26.13
214.885	25.43
215.35	24.46
215.815	23.3
216.28	21.67
216.745	19.89
217.21	18.26
217.675	16.61
218.14	15.2
218.604	14.09
219.069	13.17
219.534	12.37
219.998	11.68
220.463	11.13
220.927	10.56
221.392	10.17
221.856	9.86
222.32	9.55
222.785	9.35
223.249	9.13
223.713	8.9
224.177	8.72
224.642	8.53
225.106	8.36
225.57	8.18
226.034	8.06
226.497	7.94
226.961	7.81
227.425	7.68
227.889	7.55
228.353	7.42
228.816	7.3
229.28	7.16
229.744	7.07
230.207	6.95
230.671	6.84
231.134	6.76
231.597	6.67
232.061	6.57
232.524	6.49
232.987	6.4
233.45	6.33
233.914	6.26
234.377	6.19
234.84	6.11
235.303	6.06
235.766	6.01
236.229	5.94
236.691	5.86
237.154	5.81
237.617	5.75
238.08	5.7
238.542	5.64
239.005	5.6
239.468	5.55
239.93	5.5
240.393	5.45
240.855	5.38
241.317	5.33
241.78	5.27
242.242	5.22
242.704	5.17
243.166	5.11
243.629	5.08
244.091	5.02
244.553	4.97
245.015	4.92
245.477	4.87
245.939	4.83
246.4	4.78
246.862	4.75
247.324	4.71
247.786	4.67
248.247	4.63
248.709	4.57
249.17	4.52
249.632	4.5
250.093	4.47
250.555	4.44
251.016	4.41
251.477	4.37
251.939	4.35
252.4	4.33
252.861	4.3
253.322	4.28
253.783	4.26
254.244	4.25
254.705	4.21
255.166	4.19
255.627	4.16
256.088	4.15
256.549	4.14
257.009	4.1
257.47	4.07
257.931	4.02
258.391	3.99
258.852	3.96
259.312	3.92
259.773	3.91
260.233	3.89
260.694	3.86
261.154	3.82
261.614	3.8
262.074	3.77
262.534	3.75
262.994	3.74
263.455	3.73
263.915	3.7
264.374	3.69
264.834	3.68
265.294	3.65
265.754	3.64
266.214	3.63
266.673	3.62
267.133	3.6
267.593	3.6
268.052	3.6
268.512	3.59
268.971	3.58
269.431	3.57
269.89	3.56
270.349	3.56
270.809	3.54
271.268	3.54
271.727	3.53
272.186	3.53
272.645	3.52
273.104	3.51
273.563	3.5
274.022	3.49
274.481	3.49
274.94	3.49
275.399	3.47
275.857	3.47
276.316	3.46
276.775	3.46
277.233	3.45
277.692	3.45
278.15	3.44
278.609	3.44
279.067	3.43
279.525	3.42
279.984	3.42
280.442	3.42
280.9	3.42
281.358	3.42
281.816	3.43
282.274	3.42
282.732	3.41
283.19	3.4
283.648	3.4
284.106	3.39
284.564	3.38
285.021	3.37
285.479	3.36
285.937	3.34
286.394	3.34
286.852	3.32
287.309	3.31
287.767	3.3
288.224	3.29
288.682	3.27
289.139	3.26
289.596	3.25
290.053	3.23
290.511	3.22
290.968	3.21
291.425	3.18
291.882	3.17
292.339	3.16
292.796	3.15
293.252	3.15
293.709	3.14
294.166	3.13
294.623	3.12
295.079	3.11
295.536	3.11
295.992	3.1
296.449	3.1
296.905	3.1
297.362	3.09
297.818	3.08
298.274	3.07
298.731	3.06
299.187	3.06
299.643	3.05
300.099	3.05
300.555	3.05
301.011	3.04
301.467	3.03
301.923	3.02
302.379	3.02
302.835	3.02
303.291	3.01
303.746	3.01
304.202	3.01
304.658	3.01
305.113	3
305.569	3
306.024	3
306.479	2.99
306.935	2.99
307.39	2.99
307.845	2.98
308.301	2.98
308.756	2.98
309.211	2.97
309.666	2.98
310.121	2.97
310.576	2.97
311.031	2.97
311.486	2.98
311.94	2.98
312.395	2.97
312.85	2.97
313.305	2.97
313.759	2.97
314.214	2.97
314.668	2.95
315.123	2.95
315.577	2.95
316.032	2.95
316.486	2.94
316.94	2.94
317.394	2.93
317.849	2.93
318.303	2.92
318.757	2.9
319.211	2.9
319.665	2.89
320.119	2.88
320.572	2.87
321.026	2.86
321.48	2.84
321.934	2.82
322.387	2.81
322.841	2.81
323.295	2.81
323.748	2.8
324.202	2.8
324.655	2.79
325.108	2.8
325.562	2.8
326.015	2.79
326.468	2.8
326.921	2.8
327.374	2.8
327.827	2.8
328.28	2.8
328.733	2.8
329.186	2.8
329.639	2.81
330.092	2.8
330.545	2.79
330.997	2.79
331.45	2.79
331.903	2.8
332.355	2.8
332.808	2.8
333.26	2.79
333.713	2.79
334.165	2.78
334.617	2.79
335.069	2.78
335.522	2.79
335.974	2.8
336.426	2.79
336.878	2.79
337.33	2.79
337.782	2.79
338.234	2.8
338.686	2.8
339.137	2.8
339.589	2.79
340.041	2.79
340.493	2.77
340.944	2.75
341.396	2.75
341.847	2.75
342.299	2.74
342.75	2.72
343.201	2.71
343.653	2.69
344.104	2.68
344.555	2.68
345.006	2.67
345.457	2.66
345.908	2.66
346.359	2.66
346.81	2.65
347.261	2.64
347.712	2.64
348.163	2.63
348.613	2.64
349.064	2.65
349.515	2.64
349.965	2.64
350.416	2.63
350.866	2.63
351.317	2.62
351.767	2.62
352.217	2.62
352.668	2.62
353.118	2.62
353.568	2.61
354.018	2.62
354.468	2.62
354.918	2.62
355.368	2.63
355.818	2.64
356.268	2.64
356.718	2.65
357.168	2.65
357.617	2.64
358.067	2.64
358.517	2.65
358.966	2.64
359.416	2.65
359.865	2.64
360.315	2.64
360.764	2.64
361.213	2.64
361.663	2.63
362.112	2.64
362.561	2.64
363.01	2.64
363.459	2.63
363.908	2.63
364.357	2.63
364.806	2.63
365.255	2.63
365.703	2.64
366.152	2.64
366.601	2.65
367.05	2.65
367.498	2.65
367.947	2.67
368.395	2.68
368.844	2.69
369.292	2.69
369.74	2.71
370.189	2.71
370.637	2.72
371.085	2.72
371.533	2.73
371.981	2.74
372.429	2.75
372.877	2.76
373.325	2.77
373.773	2.79
374.221	2.8
374.669	2.81
375.116	2.83
375.564	2.85
376.012	2.88
376.459	2.91
376.907	2.94
377.354	2.97
377.801	3.01
378.249	3.05
378.696	3.08
379.143	3.13
379.591	3.17
380.038	3.22
380.485	3.27
380.932	3.33
381.379	3.38
381.826	3.44
382.273	3.5
382.72	3.55
383.166	3.61
383.613	3.68
384.06	3.73
384.506	3.8
384.953	3.88
385.4	3.95
385.846	4.01
386.292	4.08
386.739	4.15
387.185	4.22
387.631	4.3
388.078	4.37
388.524	4.44
388.97	4.53
389.416	4.6
389.862	4.68
390.308	4.76
390.754	4.83
391.2	4.91
391.645	4.99
392.091	5.07
392.537	5.15
392.983	5.22
393.428	5.29
393.874	5.36
394.319	5.43
394.765	5.48
395.21	5.54
395.655	5.6
396.101	5.67
396.546	5.71
396.991	5.76
397.436	5.81
397.881	5.87
398.326	5.92
398.771	5.96
399.216	6
399.661	6.03
400.106	6.06
400.551	6.07
400.995	6.08
401.44	6.09
401.885	6.09
402.329	6.1
402.774	6.1
403.218	6.12
403.663	6.12
404.107	6.11
404.551	6.11
404.995	6.11
405.44	6.1
405.884	6.1
406.328	6.09
406.772	6.07
407.216	6.05
407.66	6.03
408.104	5.98
408.547	5.97
408.991	5.97
409.435	5.95
409.879	5.93
410.322	5.92
410.766	5.91
411.209	5.9
411.653	5.9
412.096	5.9
412.54	5.89
412.983	5.89
413.426	5.9
413.869	5.88
414.312	5.89
414.756	5.89
415.199	5.87
415.642	5.85
416.085	5.83
416.527	5.81
416.97	5.78
417.413	5.77
417.856	5.75
418.298	5.72
418.741	5.7
419.184	5.68
419.626	5.66
420.069	5.66
420.511	5.66
420.953	5.64
421.396	5.63
421.838	5.62
422.28	5.61
422.722	5.6
423.164	5.58
423.606	5.56
424.048	5.54
424.49	5.51
424.932	5.45
425.374	5.4
425.816	5.36
426.258	5.32
426.699	5.29
427.141	5.27
427.582	5.25
428.024	5.23
428.465	5.19
428.907	5.16
429.348	5.13
429.789	5.13
430.231	5.15
430.672	5.15
431.113	5.17
431.554	5.17
431.995	5.15
432.436	5.14
432.877	5.14
433.318	5.16
433.759	5.17
434.2	5.2
434.64	5.2
435.081	5.19
435.522	5.21
435.962	5.21
436.403	5.23
436.843	5.26
437.284	5.27
437.724	5.29
438.164	5.31
438.604	5.35
439.045	5.36
439.485	5.4
439.925	5.43
440.365	5.47
440.805	5.51
441.245	5.56
441.685	5.62
442.125	5.68
442.564	5.74
443.004	5.78
443.444	5.83
443.883	5.91
444.323	5.96
444.762	6.03
445.202	6.1
445.641	6.17
446.081	6.26
446.52	6.31
446.959	6.4
447.398	6.48
447.837	6.57
448.276	6.65
448.716	6.71
449.154	6.79
449.593	6.88
450.032	6.94
450.471	6.98
450.91	7.01
451.349	7.08
451.787	7.1
452.226	7.13
452.664	7.17
453.103	7.19
453.541	7.23
453.98	7.25
454.418	7.26
454.856	7.29
455.295	7.3
455.733	7.3
456.171	7.3
456.609	7.34
457.047	7.34
457.485	7.35
457.923	7.37
458.361	7.38
458.798	7.4
459.236	7.4
459.674	7.39
460.111	7.4
460.549	7.44
460.987	7.45
461.424	7.45
461.862	7.45
462.299	7.46
462.736	7.45
463.173	7.45
463.611	7.45
464.048	7.47
464.485	7.47
464.922	7.48
465.359	7.47
465.796	7.49
466.233	7.49
466.67	7.49
467.106	7.51
467.543	7.5
467.98	7.5
468.416	7.5
468.853	7.5
469.29	7.51
469.726	7.53
470.162	7.53
470.599	7.53
471.035	7.53
471.471	7.53
471.907	7.52
472.344	7.55
472.78	7.56
473.216	7.56
473.652	7.57
474.088	7.56
474.523	7.58
474.959	7.58
475.395	7.57
475.831	7.58
476.266	7.6
476.702	7.6
477.138	7.61
477.573	7.61
478.008	7.62
478.444	7.62
478.879	7.65
479.314	7.66
479.75	7.68
480.185	7.69
480.62	7.7
481.055	7.7
481.49	7.71
481.925	7.74
482.36	7.77
482.795	7.8
483.229	7.83
483.664	7.86
484.099	7.88
484.534	7.92
484.968	7.97
485.403	8.02
485.837	8.08
486.271	8.15
486.706	8.22
487.14	8.28
487.574	8.36
488.009	8.44
488.443	8.52
488.877	8.62
489.311	8.72
489.745	8.82
490.179	8.94
490.613	9.07
491.046	9.19
491.48	9.32
491.914	9.46
492.348	9.6
492.781	9.74
493.215	9.9
493.648	10.06
494.082	10.23
494.515	10.39
494.948	10.55
495.382	10.73
495.815	10.91
496.248	11.1
496.681	11.29
497.114	11.49
497.547	11.69
497.98	11.89
498.413	12.11
498.846	12.33
499.279	12.58
499.711	12.81
500.144	13.07
500.577	13.32
501.009	13.57
501.442	13.84
501.874	14.12
502.306	14.41
502.739	14.7
503.171	14.99
503.603	15.29
504.036	15.58
504.468	15.89
504.9	16.18
505.332	16.49
505.764	16.82
506.196	17.14
506.627	17.47
507.059	17.8
507.491	18.12
507.923	18.46
508.354	18.81
508.786	19.17
509.217	19.53
509.649	19.9
510.08	20.26
510.512	20.62
510.943	20.98
511.374	21.34
511.805	21.7
512.237	22.05
512.668	22.41
513.099	22.75
513.53	23.1
513.961	23.45
514.391	23.79
514.822	24.14
515.253	24.49
515.684	24.83
516.114	25.18
516.545	25.51
516.975	25.84
517.406	26.16
517.836	26.49
518.267	26.82
518.697	27.11
519.127	27.4
519.558	27.69
519.988	27.97
520.418	28.23
520.848	28.49
521.278	28.74
521.708	29.08
522.138	29.32
522.567	29.55
522.997	29.77
523.427	30
523.857	30.22
524.286	30.42
524.716	30.63
525.145	30.83
525.575	31.01
526.004	31.21
526.433	31.28
526.863	31.45
527.292	31.61
527.721	31.76
528.15	31.89
528.579	32.02
529.008	32.16
529.437	32.27
529.866	32.37
530.295	32.49
530.724	32.59
531.152	32.72
531.581	32.83
532.01	32.92
532.438	33.02
532.867	33.12
533.295	33.2
533.723	33.29
534.152	33.36
534.58	33.43
535.008	33.49
535.436	33.55
535.865	33.58
536.293	33.63
536.721	33.67
537.149	33.72
537.576	33.76
538.004	33.81
538.432	33.84
538.86	33.87
539.287	33.89
539.715	33.93
540.143	33.96
540.57	34
540.998	34.03
541.425	34.06
541.852	34.07
542.28	34.1
542.707	34.12
543.134	34.14
543.561	34.18
543.988	34.21
544.415	34.22
544.842	34.22
545.269	34.24
545.696	34.25
546.123	34.26
546.549	34.28
546.976	34.29
547.403	34.3
547.829	34.31
548.256	34.3
548.682	34.29
549.108	34.29
549.535	34.33
549.961	34.32
550.387	34.32
550.813	34.33
551.24	34.31
551.666	34.3
552.092	34.29
552.518	34.3
552.943	34.28
553.369	34.27
553.795	34.28
554.221	34.23
554.646	34.23
555.072	34.19
555.498	34.14
555.923	34.11
556.349	34.06
556.774	34.02
557.199	33.96
557.625	33.91
558.05	33.85
558.475	33.8
558.9	33.76
559.325	33.69
559.75	33.64
560.175	33.58
560.6	33.51
561.025	33.44
561.449	33.36
561.874	33.29
562.299	33.21
562.723	33.12
563.148	33.01
563.572	32.9
563.997	32.8
564.421	32.68
564.846	32.58
565.27	32.46
565.694	32.37
566.118	32.24
566.542	32.13
566.966	32.02
567.39	31.92
567.814	31.81
568.238	31.69
568.662	31.58
569.086	31.47
569.509	31.35
569.933	31.25
570.357	31.13
570.78	31.03
571.204	30.92
571.627	30.81
572.05	30.68
572.474	30.59
572.897	30.49
573.32	30.39
573.743	30.29
574.166	30.2
574.589	30.07
575.012	29.95
575.435	29.85
575.858	29.75
576.281	29.63
576.704	29.53
577.126	29.41
577.549	29.32
577.972	29.22
578.394	29.1
578.817	29
579.239	28.93
579.661	28.85
580.084	28.76
580.506	28.68
580.928	28.61
581.35	28.53
581.772	28.46
582.194	28.37
582.616	28.29
583.038	28.23
583.46	28.14
583.882	28.06
584.303	27.96
584.725	27.88
585.147	27.81
585.568	27.74
585.99	27.67
586.411	27.6
586.833	27.53
587.254	27.45
587.675	27.38
588.096	27.33
588.518	27.28
588.939	27.26
589.36	27.2
589.781	27.14
590.202	27.1
590.623	27.06
591.043	27.01
591.464	26.97
591.885	26.95
592.305	26.92
592.726	26.88
593.147	26.83
593.567	26.78
593.987	26.74
594.408	26.69
594.828	26.64
595.248	26.6
595.669	26.58
596.089	26.53
596.509	26.48
596.929	26.45
597.349	26.41
597.769	26.37
598.189	26.32
598.608	26.29
599.028	26.26
599.448	26.23
599.867	26.18
600.287	26.13
600.706	26.1
601.126	26.05
601.545	25.99
601.965	25.96
602.384	25.9
602.803	25.85
603.222	25.8
603.641	25.74
604.061	25.69
604.48	25.62
604.898	25.53
605.317	25.46
605.736	25.39
606.155	25.32
606.574	25.24
606.992	25.16
607.411	25.09
607.829	24.97
608.248	24.9
608.666	24.81
609.085	24.74
609.503	24.7
609.921	24.62
610.339	24.54
610.758	24.45
611.176	24.34
611.594	24.26
612.012	24.17
612.43	24.1
612.847	24
613.265	23.91
613.683	23.81
614.101	23.7
614.518	23.59
614.936	23.5
615.353	23.4
615.771	23.34
616.188	23.26
616.606	23.17
617.023	23.09
617.44	23.03
617.857	22.96
618.274	22.89
618.691	22.82
619.108	22.76
619.525	22.71
619.942	22.65
620.359	22.59
620.776	22.53
621.192	22.49
621.609	22.46
622.026	22.41
622.442	22.37
622.859	22.34
623.275	22.3
623.691	22.29
624.108	22.27
624.524	22.25
624.94	22.24
625.356	22.24
625.772	22.21
626.188	22.19
626.604	22.18
627.02	22.16
627.436	22.15
627.852	22.16
628.268	22.14
628.683	22.11
629.099	22.09
629.514	22.06
629.93	22.02
630.345	22
630.761	21.94
631.176	21.9
631.591	21.85
632.007	21.8
632.422	21.72
632.837	21.65
633.252	21.58
633.667	21.48
634.082	21.38
634.497	21.28
634.911	21.16
635.326	21.05
635.741	20.93
636.155	20.79
636.57	20.65
636.984	20.5
637.399	20.33
637.813	20.18
638.228	20.01
638.642	19.84
639.056	19.67
639.47	19.49
639.884	19.3
640.298	19.1
640.712	18.9
641.126	18.71
641.54	18.5
641.954	18.3
642.368	18.11
642.781	17.93
643.195	17.73
643.609	17.53
644.022	17.35
644.436	17.16
644.849	16.99
645.262	16.83
645.676	16.66
646.089	16.51
646.502	16.37
646.915	16.23
647.328	16.09
647.741	15.96
648.154	15.86
648.567	15.76
648.98	15.66
649.393	15.56
649.805	15.47
650.218	15.39
650.631	15.31
651.043	15.22
651.456	15.15
651.868	15.06
652.28	14.99
652.693	14.9
653.105	14.82
653.517	14.73
653.929	14.63
654.341	14.52
654.753	14.39
655.165	14.26
655.577	14.14
655.989	13.99
656.401	13.84
656.813	13.68
657.224	13.51
657.636	13.31
658.047	13.14
658.459	12.94
658.87	12.75
659.282	12.55
659.693	12.35
660.104	12.14
660.515	11.93
660.926	11.71
661.338	11.5
661.749	11.28
662.159	11.07
662.57	10.87
662.981	10.67
663.392	10.47
663.803	10.29
664.213	10.1
664.624	9.92
665.035	9.75
665.445	9.6
665.855	9.43
666.266	9.3
666.676	9.16
667.086	9.01
667.497	8.89
667.907	8.76
668.317	8.65
668.727	8.55
669.137	8.46
669.547	8.37
669.956	8.28
670.366	8.21
670.776	8.14
671.186	8.09
671.595	8.04
672.005	8.01
672.414	7.98
672.824	7.95
673.233	7.93
673.642	7.92
674.052	7.91
674.461	7.91
674.87	7.9
675.279	7.91
675.688	7.93
676.097	7.96
676.506	7.99
676.915	8.04
677.323	8.11
677.732	8.17
678.141	8.25
678.549	8.34
678.958	8.46
679.366	8.61
679.775	8.76
680.183	8.94
680.592	9.14
681	9.37
681.408	9.62
681.816	9.9
682.224	10.21
682.632	10.56
683.04	10.93
683.448	11.32
683.856	11.74
684.264	12.2
684.671	12.7
685.079	13.21
685.487	13.76
685.894	14.34
686.302	14.93
686.709	15.54
687.116	16.15
687.524	16.81
687.931	17.47
688.338	18.15
688.745	18.83
689.152	19.51
689.559	20.22
689.966	20.91
690.373	21.6
690.78	22.31
691.187	23.02
691.593	23.72
692	24.38
692.407	25.04
692.813	25.7
693.22	26.33
693.626	26.96
694.032	27.56
694.439	28.15
694.845	28.74
695.251	29.28
695.657	29.79
696.063	30.3
696.469	30.83
696.875	31.34
697.281	31.81
697.687	32.27
698.093	32.72
698.498	33.15
698.904	33.55
699.31	33.94
699.715	34.34
700.12	34.72
700.526	35.08
700.931	35.42
701.337	35.76
701.742	36.08
702.147	36.39
702.552	36.7
702.957	36.96
703.362	37.24
703.767	37.5
704.172	37.73
704.577	37.98
704.981	38.23
705.386	38.46
705.791	38.69
706.195	38.9
706.6	39.13
707.004	39.32
707.408	39.53
707.813	39.76
708.217	39.96
708.621	40.16
709.025	40.33
709.43	40.49
709.834	40.67
710.237	40.84
710.641	41.02
711.045	41.19
711.449	41.36
711.853	41.52
712.256	41.64
712.66	41.8
713.064	41.95
713.467	42.12
713.87	42.26
714.274	42.38
714.677	42.51
715.08	42.62
715.484	42.74
715.887	42.89
716.29	43
716.693	43.15
717.096	43.24
717.499	43.38
717.901	43.47
718.304	43.59
718.707	43.72
719.109	43.81
719.512	43.92
719.915	44.01
720.317	44.07
720.719	44.14
721.122	44.23
721.524	44.31
721.926	44.38
722.328	44.45
722.731	44.51
723.133	44.58
723.535	44.65
723.937	44.71
724.338	44.78
724.74	44.85
725.142	45.01
725.544	45.05
725.945	45.13
726.347	45.17
726.748	45.24
727.15	45.27
727.551	45.34
727.952	45.35
728.354	45.4
728.755	45.42
729.156	45.45
729.557	45.38
729.958	45.44
730.359	45.46
730.76	45.49
731.161	45.51
731.562	45.56
731.962	45.55
732.363	45.62
732.763	45.64
733.164	45.67
733.564	45.7
733.965	45.71
734.365	45.74
734.766	45.76
735.166	45.78
735.566	45.8
735.966	45.84
736.366	45.86
736.766	45.87
737.166	45.89
737.566	45.92
737.966	45.93
738.365	45.98
738.765	46
739.165	46.01
739.564	46.04
739.964	46.06
740.363	46.05
740.763	46.09
741.162	46.11
741.561	46.09
741.96	46.09
742.36	46.13
742.759	46.12
743.158	46.1
743.557	46.1
743.955	46.1
744.354	46.11
744.753	46.13
745.152	46.12
745.55	46.14
745.949	46.16
746.348	46.18
746.746	46.14
747.144	46.16
747.543	46.17
747.941	46.19
748.339	46.16
748.737	46.13
749.136	46.12
749.534	46.11
749.932	46.1
750.33	46.11
750.727	46.11
751.125	46.15
751.523	46.15
751.921	46.16
752.318	46.16
752.716	46.19
753.113	46.23
753.511	46.24
753.908	46.27
754.305	46.26
754.703	46.25
755.1	46.25
755.497	46.23
755.894	46.23
756.291	46.21
756.688	46.2
757.085	46.2
757.482	46.2
757.878	46.2
758.275	46.18
758.672	46.19
759.068	46.23
759.465	46.24
759.861	46.25
760.258	46.24
760.654	46.28
761.05	46.29
761.447	46.3
761.843	46.29
762.239	46.29
762.635	46.29
763.031	46.31
763.427	46.27
763.822	46.3
764.218	46.31
764.614	46.3
765.01	46.27
765.405	46.26
765.801	46.22
766.196	46.21
766.592	46.19
766.987	46.22
767.382	46.19
767.778	46.18
768.173	46.15
768.568	46.13
768.963	46.14
769.358	46.16
769.753	46.17
770.148	46.21
770.542	46.2
770.937	46.21
771.332	46.2
771.726	46.2
772.121	46.23
772.515	46.22
772.91	46.21
773.304	46.23
773.699	46.2
774.093	46.19
774.487	46.17
774.881	46.19
775.275	46.2
775.669	46.19
776.063	46.18
776.457	46.18
776.851	46.17
777.245	46.14
777.638	46.12
778.032	46.13
778.425	46.13
778.819	46.13
779.212	46.13
779.606	46.12
779.999	46.11
780.392	46.16
780.786	46.16
781.179	46.18
781.572	46.22
781.965	46.23
782.358	46.25
782.751	46.25
783.143	46.24
783.536	46.24
783.929	46.23
784.322	46.24
784.714	46.22
785.107	46.22
785.499	46.19
785.891	46.19
786.284	46.19
786.676	46.16
787.068	46.15
787.46	46.17
787.852	46.17
788.245	46.18
788.636	46.13
789.028	46.15
789.42	46.15
789.812	46.18
790.204	46.22
790.595	46.22
790.987	46.25
791.378	46.26
791.77	46.27
792.161	46.25
792.553	46.24
792.944	46.26
793.335	46.28
793.726	46.28
794.117	46.26
794.508	46.21
794.899	46.2
795.29	46.21
795.681	46.18
796.072	46.19
796.463	46.25
796.853	46.27
797.244	46.27
797.634	46.25
798.025	46.25
798.415	46.24
798.806	46.26
799.196	46.27
799.586	46.26
799.976	46.29
800.366	46.28
800.756	46.24
801.146	46.27
801.536	46.27
801.926	46.3
802.316	46.3
802.706	46.34
803.095	46.34
803.485	46.34
803.874	46.34
804.264	46.35
804.653	46.36
805.043	46.36
805.432	46.34
805.821	46.36
806.21	46.36
806.599	46.36
806.988	46.35
807.377	46.35
807.766	46.38
808.155	46.36
808.544	46.37
808.933	46.35
809.321	46.37
809.71	46.39
810.098	46.37
810.487	46.35
810.875	46.36
811.264	46.35
811.652	46.36
812.04	46.32
812.428	46.35
812.816	46.33
813.204	46.34
813.592	46.32
813.98	46.31
814.368	46.34
814.756	46.35
815.144	46.32
815.531	46.31
815.919	46.31
816.306	46.34
816.694	46.31
817.081	46.31
817.469	46.32
817.856	46.32
818.243	46.31
818.63	46.31
819.017	46.29
819.404	46.3
819.791	46.29
820.178	46.28
820.565	46.27
820.952	46.28
821.339	46.26
821.725	46.28
822.112	46.28
822.498	46.32
822.885	46.33
823.271	46.35
823.657	46.33
824.044	46.37
824.43	46.39
824.816	46.38
825.202	46.39
825.588	46.42
825.974	46.38
826.36	46.39
826.746	46.36
827.132	46.35
827.517	46.35
827.903	46.38
828.289	46.39
828.674	46.36
829.06	46.36
829.445	46.36
829.83	46.35
830.216	46.36
830.601	46.37
830.986	46.38
831.371	46.37
831.756	46.4
832.141	46.39
832.526	46.38
832.911	46.39
833.295	46.4
833.68	46.43
834.065	46.45
834.449	46.45
834.834	46.45
835.218	46.45
835.603	46.46
835.987	46.44
836.371	46.42
836.755	46.44
837.139	46.45
837.524	46.46
837.908	46.46
838.291	46.45
838.675	46.45
839.059	46.44
839.443	46.43
839.827	46.42
840.21	46.41
840.594	46.46
840.977	46.43
841.361	46.42
841.744	46.4
842.127	46.39
842.511	46.37
842.894	46.37
843.277	46.38
843.66	46.38
844.043	46.39
844.426	46.4
844.809	46.39
845.191	46.42
845.574	46.44
845.957	46.46
846.339	46.48
846.722	46.5
847.104	46.52
847.487	46.52
847.869	46.51
848.252	46.52
848.634	46.51
849.016	46.51
849.398	46.51
849.78	46.49
850.162	46.49
850.544	46.47
850.926	46.48
851.307	46.47
851.689	46.49
852.071	46.51
852.452	46.5
852.834	46.51
853.215	46.51
853.597	46.53
853.978	46.54
854.359	46.55
854.741	46.56
855.122	46.56
855.503	46.55
855.884	46.52
856.265	46.51
856.646	46.51
857.026	46.54
857.407	46.52
857.788	46.5
858.169	46.5
858.549	46.49
858.93	46.49
859.31	46.47
859.69	46.47
860.071	46.5
860.451	46.52
860.831	46.52
861.211	46.49
861.591	46.49
861.971	46.48
862.351	46.48
862.731	46.5
863.111	46.48
863.491	46.49
863.87	46.52
864.25	46.5
864.629	46.48
865.009	46.48
865.388	46.47
865.768	46.49
866.147	46.5
866.526	46.49
866.905	46.48
867.284	46.5
867.663	46.52
868.042	46.5
868.421	46.52
868.8	46.53
869.179	46.53
869.558	46.55
869.936	46.55
870.315	46.57
870.693	46.57
871.072	46.57
871.45	46.58
871.828	46.58
872.207	46.6
872.585	46.58
872.963	46.6
873.341	46.57
873.719	46.55
874.097	46.54
874.475	46.52
874.853	46.5
875.23	46.54
875.608	46.55
875.986	46.57
876.363	46.57
876.741	46.59
877.118	46.56
877.495	46.61
877.873	46.64
878.25	46.67
878.627	46.71
879.004	46.72
879.381	46.72
879.758	46.67
880.135	46.66
880.512	46.63
880.889	46.61
881.265	46.64
881.642	46.62
882.019	46.62
882.395	46.61
882.772	46.6
883.148	46.58
883.524	46.56
883.901	46.59
884.277	46.58
884.653	46.59
885.029	46.6
885.405	46.57
885.781	46.57
886.157	46.54
886.532	46.55
886.908	46.52
887.284	46.53
887.659	46.5
888.035	46.49
888.411	46.48
888.786	46.48
889.161	46.47
889.537	46.46
889.912	46.45
890.287	46.45
890.662	46.42
891.037	46.44
891.412	46.42
891.787	46.42
892.162	46.41
892.536	46.4
892.911	46.39
893.286	46.4
893.66	46.43
894.035	46.43
894.409	46.42
894.784	46.45
895.158	46.44
895.532	46.47
895.906	46.47
896.281	46.49
896.655	46.51
897.029	46.55
897.402	46.53
897.776	46.52
898.15	46.55
898.524	46.56
898.898	46.54
899.271	46.55
899.645	46.54
900.018	46.56
900.392	46.56
900.765	46.55
901.138	46.54
901.511	46.55
901.884	46.54
902.258	46.51
902.631	46.52
903.003	46.52
903.376	46.53
903.749	46.54
904.122	46.56
904.495	46.56
904.867	46.57
905.24	46.6
905.612	46.62
905.985	46.62
906.357	46.64
906.729	46.67
907.102	46.67
907.474	46.68
907.846	46.67
908.218	46.66
908.59	46.67
908.962	46.68
909.334	46.65
909.705	46.62
910.077	46.63
910.449	46.63
910.82	46.61
911.192	46.61
911.563	46.59
911.935	46.56
912.306	46.58
912.677	46.58
913.048	46.56
913.419	46.56
913.79	46.56
914.161	46.56
914.532	46.56
914.903	46.56
915.274	46.57
915.645	46.56
916.015	46.6
916.386	46.6
916.756	46.58
917.127	46.6
917.497	46.62
917.868	46.62
918.238	46.61
918.608	46.61
918.978	46.6
919.348	46.59
919.718	46.6
920.088	46.6
920.458	46.57
920.828	46.58
921.198	46.54
921.567	46.52
921.937	46.51
922.306	46.5
922.676	46.48
923.045	46.48
923.415	46.46
923.784	46.44
924.153	46.46
924.522	46.5
924.891	46.49
925.26	46.51
925.629	46.5
925.998	46.49
926.367	46.52
926.736	46.55
927.104	46.54
927.473	46.51
927.842	46.5
928.21	46.51
928.578	46.48
928.947	46.49
929.315	46.49
929.683	46.46
930.051	46.45
930.42	46.44
930.788	46.37
931.156	46.34
931.523	46.37
931.891	46.43
932.259	46.4
932.627	46.4
932.994	46.4
933.362	46.39
933.729	46.44
934.097	46.45
934.464	46.44
934.831	46.49
935.199	46.54
935.566	46.56
935.933	46.45
936.3	46.44
936.667	46.45
937.034	46.44
937.401	46.48
937.767	46.43
938.134	46.42
938.501	46.46
938.867	46.54
939.234	46.53
939.6	46.57
939.967	46.59
940.333	46.55
940.699	46.5
941.065	46.49
941.431	46.45
941.798	46.43
942.163	46.42
942.529	46.37
942.895	46.32
943.261	46.29
943.627	46.26
943.992	46.3
944.358	46.33
944.723	46.34
945.089	46.31
945.454	46.36
945.82	46.34
946.185	46.31
946.55	46.25
946.915	46.23
947.28	46.18
947.645	46.15
948.01	46.15
948.375	46.11
948.74	46.06
949.104	46.09
949.469	46.02
949.834	46
950.198	45.98
950.562	45.97
950.927	45.94
951.291	45.89
951.655	45.84
952.02	45.79
952.384	45.74
952.748	45.77
953.112	45.76
953.476	45.73
953.839	45.72
954.203	45.71
954.567	45.71
954.931	45.67
955.294	45.71
955.658	45.75
956.021	45.75
956.385	45.77
956.748	45.74
957.111	45.68
957.474	45.69
957.837	45.68
958.2	45.68
958.563	45.67
958.926	45.66
959.289	45.66
959.652	45.59
960.015	45.56
960.377	45.61
960.74	45.62
961.102	45.68
961.465	45.71
961.827	45.81
962.189	45.81
962.552	45.81
962.914	45.85
963.276	45.87
963.638	45.93
964	45.96
964.362	45.96
964.724	45.92
965.085	45.89
965.447	45.86
965.809	45.76
966.17	45.76
966.532	45.79
966.893	45.77
967.255	45.78
967.616	45.74
967.977	45.72
968.338	45.72
968.699	45.8
969.061	45.77
969.421	45.79
969.782	45.82
970.143	45.83
970.504	45.82
970.865	45.87
971.225	45.83
971.586	45.82
971.946	45.84
972.307	45.78
972.667	45.74
973.027	45.81
973.388	45.8
973.748	45.8
974.108	45.85
974.468	45.81
974.828	45.75
975.188	45.75
975.548	45.75
975.907	45.76
976.267	45.76
976.627	45.72
976.986	45.7
977.346	45.6
977.705	45.57
978.064	45.5
978.424	45.5
978.783	45.48
979.142	45.51
979.501	45.52
979.86	45.53
980.219	45.51
980.578	45.53
980.937	45.56
981.296	45.58
981.654	45.57
982.013	45.59
982.371	45.63
982.73	45.63
983.088	45.59
983.447	45.57
983.805	45.56
984.163	45.61
984.521	45.6
984.879	45.47
985.237	45.54
985.595	45.62
985.953	45.58
986.311	45.49
986.669	45.55
987.026	45.54
987.384	45.58
987.741	45.51
988.099	45.57
988.456	45.58
988.814	45.64
989.171	45.62
989.528	45.54
989.885	45.5
990.242	45.52
990.599	45.56
990.956	45.64
991.313	45.62
991.67	45.68
992.027	45.68
992.383	45.64
992.74	45.75
993.096	45.75
993.453	45.84
993.809	45.92
994.165	46.02
994.522	46
994.878	45.93
995.234	45.89
995.59	45.88
995.946	45.87
996.302	45.89
996.658	45.82
997.013	45.84
997.369	45.82
997.725	45.78
998.08	45.78
998.436	45.7
998.791	45.77
999.147	45.79
999.502	45.82
999.857	45.75
1000.212	45.75
1000.567	45.78
1000.922	45.72
1001.277	45.63
1001.632	45.56
1001.987	45.43
1002.342	45.48
1002.696	45.38
1003.051	45.58
1003.406	45.65
1003.76	45.54
1004.114	45.47
1004.469	45.39
1004.823	45.66
1005.177	45.73
1005.531	45.87
1005.885	45.89
1006.239	45.84
1006.593	46.06
1006.947	45.91
1007.301	45.73
1007.655	45.75
1008.008	45.9
1008.362	45.98
1008.715	45.7
1009.069	45.75
1009.422	45.82
1009.776	45.9
1010.129	45.78
1010.482	45.56
1010.835	45.58
1011.188	45.78
1011.541	45.84
1011.894	45.88
1012.247	45.88
1012.6	45.98
1012.952	45.95
1013.305	45.94
1013.657	46.03
1014.01	46.26
1014.362	46.26
1014.715	46.38
1015.067	46.4
1015.419	46.56
1015.771	46.45
1016.123	46.53
1016.475	46.55
1016.827	46.46
1017.179	46.51
1017.531	46.43
1017.883	46.28
1018.234	46.5
1018.586	46.34
1018.938	46.43
1019.289	46.26
1019.64	46.22
1019.992	46.03
1020.343	45.93
1020.694	46.21
1021.045	46.11
1021.396	46.18
1021.747	46.34
1022.098	46.25
1022.449	46.28
1022.8	46.22
1023.151	46.2
1023.501	46.44
1023.852	46.53
1024.202	46.45
1024.553	46.06
1024.903	46.22
1025.253	46.11
1025.604	46.31
1025.954	46.2
1026.304	46.24
1026.654	46.1
1027.004	46.26
1027.354	46.08
1027.703	45.88
1028.053	46.08
1028.403	46.21
1028.753	45.88
1029.102	46.13
1029.452	45.98
1029.801	46.25
1030.15	46.2
1030.499	46.18
897.758	1247.17
901.051	1263.42
904.343	1253.47
907.636	1276.79
910.928	1240.5
914.22	1242.23
917.511	1226.23
920.803	1175.1
924.094	1165.7
927.384	1138.56
930.675	1096.64
933.965	1090.44
937.255	1022.98
940.544	985.99
943.834	939.64
947.123	933.12
950.411	878.22
953.7	860.04
956.988	813.12
960.276	782.43
963.563	770.2
966.851	743.99
970.138	737.62
973.424	715.11
976.711	719.78
979.997	682.01
983.283	678.61
986.568	664.04
989.853	644.15
993.138	632.1
996.423	608.63
999.708	589.92
1002.992	582.52
1006.275	556.99
1009.559	551.97
1012.842	530.64
1016.125	517.79
1019.408	509.24
1022.69	500.99
1025.972	490.98
1029.254	479.6
1032.536	471.1
1035.817	463.47
1039.098	458.01
1042.379	449.16
1045.659	443.93
1048.939	433.32
1052.219	424.84
1055.498	417.45
1058.778	408.84
1062.057	400.23
1065.335	395.87
1068.614	391.33
1071.892	386.65
1075.17	373.92
1078.447	366.2
1081.724	362.88
1085.001	361.43
1088.278	353.77
1091.554	346.86
1094.83	346.92
1098.106	344.59
1101.382	341.58
1104.657	339.34
1107.932	334.29
1111.206	336.02
1114.481	328.22
1117.755	325.62
1121.029	322.04
1124.302	322.26
1127.575	315.43
1130.848	312.15
1134.121	308.55
1137.393	307.02
1140.665	299.87
1143.937	297.38
1147.208	295.52
1150.48	294.6
1153.75	290.84
1157.021	286.91
1160.291	286.09
1163.561	284.46
1166.831	283.8
1170.101	281.44
1173.37	280.72
1176.639	282.01
1179.907	279
1183.176	275.9
1186.444	276.47
1189.711	275.55
1192.979	274.86
1196.246	274.23
1199.513	274.24
1202.78	272.8
1206.046	272.62
1209.312	270.31
1212.578	269.99
1215.843	273.31
1219.108	271.79
1222.373	276.73
1225.638	278.93
1228.902	282.42
1232.166	282.33
1235.43	285.32
1238.693	288.93
1241.956	290.39
1245.219	295.11
1248.482	295.85
1251.744	295.07
1255.006	296.31
1258.268	288.18
1261.529	285.83
1264.79	284.9
1268.051	283.06
1271.312	278.88
1274.572	275.8
1277.832	272.81
1281.092	268.97
1284.351	266.83
1287.61	266.72
1290.869	262.58
1294.128	261.91
1297.386	261.42
1300.644	257.37
1303.902	258.59
1307.159	258.47
1310.416	258.6
1313.673	258.9
1316.93	259.95
1320.186	259.71
1323.442	260.73
1326.697	264.96
1329.953	265.9
1333.208	267.12
1336.463	270.97
1339.717	270.55
1342.972	273.51
1346.226	275.81
1349.479	276.32
1352.733	278.55
1355.986	280.13
1359.238	279.82
1362.491	281.83
1365.743	284.36
1368.995	284.34
1372.247	283.81
1375.498	284.67
1378.749	286.96
1382	283.89
1385.251	284.4
1388.501	282.78
1391.751	284.15
1395	283.12
1398.25	280.85
1401.499	278.67
1404.748	278.65
1407.996	277.33
1411.244	275.59
1414.492	273.71
1417.74	271.58
1420.987	267.37
1424.234	267.16
1427.481	264.06
1430.728	263.48
1433.974	260.87
1437.22	259.55
1440.465	258.71
1443.711	255.81
1446.956	253.78
1450.201	250.56
1453.445	248.12
1456.689	248.16
1459.933	243.75
1463.177	241.06
1466.42	237.49
1469.663	235.35
1472.906	233.71
1476.148	228.43
1479.391	225.57
1482.633	224.07
1485.874	221.14
1489.115	219.65
1492.356	217.16
1495.597	216.93
1498.838	214.15
1502.078	213.17
1505.318	211.72
1508.557	211.55
1511.797	210.81
1515.036	209.76
1518.274	208.95
1521.513	206.98
1524.751	206.84
1527.989	205.74
1531.227	204.66
1534.464	205.03
1537.701	203.48
1540.938	203.01
1544.174	201.08
1547.41	200.74
1550.646	199.55
1553.882	199.36
1557.117	197.3
1560.352	196.12
1563.587	195.97
1566.821	194.52
1570.055	193.1
1573.289	191.41
1576.523	191.07
1579.756	189.17
1582.989	187.92
1586.222	188.32
1589.454	186.99
1592.686	188.05
1595.918	187.32
1599.15	186.36
1602.381	187.09
1605.612	186.46
1608.843	187.26
1612.073	186.7
1615.303	187.81
1618.533	188.41
1621.762	187.44
1624.992	188.24
1628.221	187.8
1631.449	187.55
1634.678	187.4
1637.906	188.03
1641.134	187.86
1644.361	187.55
1647.588	188.31
1650.815	187.44
1654.042	186.48
1657.269	188.25
1660.495	187.91
1663.72	187.97
1666.946	188.36
1670.171	188.73
1673.396	188.47
1676.621	188.42
1679.845	189.17
1683.069	189.32
1686.293	190.53
1689.517	191.9
1692.74	191.06
1695.963	191.46
1699.185	193.01
1702.408	193.38
1705.63	193.86
1708.852	194.29
1712.073	195.06
1715.294	195.29
1718.515	196.34
1721.736	195.79
1724.956	196
1728.176	196.16
1731.396	197.96
1734.616	197.16
1737.835	197.98
1741.054	197.01
1744.272	197.3
1747.491	199.05
1750.709	199.23
1753.927	198.98
1757.144	198.65
1760.361	199.49
1763.578	200.22
1766.795	199.46
1770.011	201.04
1773.227	200.71
1776.443	203.09
1779.658	204.14
1782.874	203.34
1786.089	204.18
1789.303	204.83
1792.518	207.64
1795.732	207.55
1798.945	209.32
1802.159	209.92
1805.372	210.4
1808.585	214.23
1811.797	215
1815.01	215.11
1818.222	217.16
1821.434	219.05
1824.645	219.72
1827.856	223.03
1831.067	224.75
1834.278	223.8
1837.488	225.88
1840.698	226.88
1843.908	224.72
1847.117	225.47
1850.326	227.14
1853.535	226.01
1856.744	228.86
1859.952	229.1
1863.16	227.26
1866.368	226.49
1869.575	229.37
1872.782	225.12
1875.989	224.55
1879.196	223.68
1882.402	222.69
1885.608	222.69
1888.814	223.4
1892.019	221.95
1895.224	220.55
1898.429	219.78
1901.634	219.96
1904.838	219.11
1908.042	221.62
1911.246	222.32
1914.449	223.74
1917.652	223.56
1920.855	223.52
1924.058	222.85
1927.26	221.65
1930.462	222.73
1933.664	225.11
1936.865	223.57
1940.066	223.41
1943.267	222.28
1946.467	221.55
1949.668	222.89
1952.868	225.08
1956.067	224.77
1959.267	226.61
1962.466	227.5
1965.665	226.67
1968.863	226.9
1972.061	230.4
1975.259	233.13
1978.457	235.17
1981.654	236.87
1984.852	237.36
1988.048	237.07
1991.245	239.25
1994.441	241.68
1997.637	243.37
2000.833	248.38
2004.028	251.7
2007.223	252.87
2010.418	255.1
2013.613	259.33
2016.807	262.55
2020.001	264.73
2023.194	268.81
2026.388	274.29
2029.581	281.07
2032.774	283.25
2035.966	288.95
2039.158	289.45
2042.35	295.89
2045.542	296.8
2048.733	300.86
2051.924	305.71
2055.115	311.04
2058.306	311.58
2061.496	315.19
2064.686	314.14
2067.875	319.72
2071.065	320.07
2074.254	318.22
2077.442	321.7
2080.631	323.91
2083.819	327.15
2087.007	327.3
2090.195	331.01
2093.382	334.06
2096.569	332.1
2099.756	337.77
2102.942	338.97
2106.128	341.82
2109.314	351.12
2112.5	349.48
2115.685	356.8
2118.87	357.54
2122.055	363.56
2125.239	366.58
2128.424	371.43
2131.608	374.03
2134.791	378.06
2137.974	380.11
2141.157	381.04
2144.34	381.19
2147.523	387.07
2150.705	384.76
2153.887	388.3
2157.068	389.57
2160.25	385.65
2163.431	387.21
2166.611	392.5
2169.792	400
2172.972	403.55
2176.152	405.46
2179.331	410.2
2182.511	416.94
2185.69	420.69
2188.868	429.41
2192.047	430.96
2195.225	443.5
2198.403	453.65
2201.58	461.17
2204.758	467.92
2207.935	477.29
2211.111	488.14
2214.288	493.75
2217.464	494.06
2220.64	503.06
2223.815	508.94
2226.991	529.66
2230.166	530.47
2233.34	538.86
2236.515	548.7
2239.689	548.89
2242.863	553.14
2246.036	569
2249.209	564.4
2252.382	575.28
2255.555	592.28
2258.727	593.9
2261.9	597.5
2265.071	603.47
2268.243	615.45
2271.414	620
2274.585	635.89
2277.756	640.63
2280.926	644.27
2284.096	660.35
2287.266	674.63
2290.436	679.1
2293.605	693.43
2296.774	713.35
2299.942	735.52
2303.111	738.41
2306.279	755.05
2309.447	765.22
2312.614	787.68
2315.781	809.14
2318.948	843.86
2322.115	831.67
2325.281	875.8
2328.447	860.74
2331.613	894.94
2334.779	883.99
2337.944	921.19
2341.109	932.02
2344.274	957.58
2347.438	988.22
2350.602	988.02
2353.766	1018.87
2356.929	1032.12
2360.092	1027.16
2363.255	1100.47
2366.418	1097.31
2369.58	1120.34
2372.742	1190.17
2375.904	1220.4
2379.066	1211.98
2382.227	1192.22
2385.388	1293.71
2388.548	1292.04
2391.709	1311.79
2394.869	1457.5
2398.029	1398.37
2401.188	1435.2
2404.347	1423.47
2407.506	1398.77
2410.665	1439.33
2413.823	1521.57
2416.981	1609.23
2420.139	1557.62
2423.296	1541.83
2426.453	1609.18
2429.61	1553.91
2432.767	1618.51
2435.923	1602.88
2439.079	1760.68
2442.235	1781.76
2445.391	1765.09
2448.546	1756.36
2451.701	1700.41
2454.855	1697.86
2458.009	1806.89
2461.163	1876.69
2464.317	1938.09
2467.471	1992.02
2470.624	1998.6
2473.777	1940.28
2476.929	1895.03
2480.082	1834.45
2483.234	1816.42
2486.385	1917.13
2489.537	1923.93
2492.688	1993.17
2495.839	1941.14
2498.989	1896.43
2502.14	1908.14
2505.29	1916.32
2508.439	1956.65
2511.589	1949.71
2514.738	2134.22
2517.887	2086.12
2521.035	2192.47
2524.183	2221.73
2527.331	2237.2
2530.479	2224.16
2533.627	2246.06
