Data from N_2_DIV_PA_2N_Splice17_13-38-47-775.txt Node
Date: Sat Mar 07 13:38:47 EST 2020
User: sa697716
Spectrometer: NQ5500242
Trigger mode: 0
Integration Time (sec): 1.450000E-1
Scans to average: 20
Nonlinearity correction enabled: false
Boxcar width: 5
Storing dark spectrum: false
XAxis mode: Wavelengths
Number of Pixels in Spectrum: 512
>>>>>Begin Spectral Data<<<<<
187.83	259.53
188.298	282.32
188.766	251.83
189.233	218.16
189.701	248.73
190.169	281.94
190.636	314.22
191.104	499.74
191.571	271.26
192.039	161.16
192.506	255.73
192.974	-48.62
193.441	106.78
193.908	66.23
194.375	68.38
194.842	95.73
195.31	139.95
195.777	313.8
196.244	111.74
196.711	92.2
197.177	93.4
197.644	92.28
198.111	91.7
198.578	91.7
199.045	92.15
199.511	92.22
199.978	91.77
200.445	91.94
200.911	92.2
201.378	92.17
201.844	92.23
202.31	91.76
202.777	91.55
203.243	91.33
203.709	90.57
204.176	89.6
204.642	88.97
205.108	88.52
205.574	87.83
206.04	86.72
206.506	85.86
206.972	84.99
207.438	84.01
207.903	82.66
208.369	81.09
208.835	79.18
209.301	77.44
209.766	74.87
210.232	72.68
210.697	70.31
211.163	68.24
211.628	66.29
212.094	64.39
212.559	62.86
213.024	61.29
213.49	59.8
213.955	58.35
214.42	56.65
214.885	54.84
215.35	52.51
215.815	49.46
216.28	45.56
216.745	41.25
217.21	36.98
217.675	32.76
218.14	29.19
218.604	26.13
219.069	23.59
219.534	21.46
219.998	19.78
220.463	18.37
220.927	17.16
221.392	16.2
221.856	15.42
222.32	14.73
222.785	14.21
223.249	13.72
223.713	13.27
224.177	12.88
224.642	12.5
225.106	12.12
225.57	11.78
226.034	11.5
226.497	11.23
226.961	10.98
227.425	10.76
227.889	10.53
228.353	10.3
228.816	10.09
229.28	9.89
229.744	9.74
230.207	9.58
230.671	9.43
231.134	9.26
231.597	9.14
232.061	9
232.524	8.85
232.987	8.72
233.45	8.64
233.914	8.52
234.377	8.42
234.84	8.31
235.303	8.24
235.766	8.15
236.229	8.08
236.691	7.99
237.154	7.91
237.617	7.85
238.08	7.78
238.542	7.7
239.005	7.65
239.468	7.6
239.93	7.54
240.393	7.46
240.855	7.38
241.317	7.32
241.78	7.25
242.242	7.19
242.704	7.12
243.166	7.06
243.629	7
244.091	6.92
244.553	6.85
245.015	6.78
245.477	6.72
245.939	6.67
246.4	6.61
246.862	6.55
247.324	6.51
247.786	6.45
248.247	6.39
248.709	6.33
249.17	6.27
249.632	6.23
250.093	6.19
250.555	6.16
251.016	6.11
251.477	6.07
251.939	6.04
252.4	5.99
252.861	5.95
253.322	5.92
253.783	5.9
254.244	5.88
254.705	5.85
255.166	5.81
255.627	5.78
256.088	5.76
256.549	5.73
257.009	5.69
257.47	5.65
257.931	5.61
258.391	5.55
258.852	5.51
259.312	5.46
259.773	5.41
260.233	5.38
260.694	5.33
261.154	5.28
261.614	5.25
262.074	5.21
262.534	5.17
262.994	5.14
263.455	5.11
263.915	5.08
264.374	5.05
264.834	5.02
265.294	4.99
265.754	4.97
266.214	4.94
266.673	4.92
267.133	4.9
267.593	4.88
268.052	4.86
268.512	4.85
268.971	4.85
269.431	4.83
269.89	4.82
270.349	4.81
270.809	4.79
271.268	4.79
271.727	4.77
272.186	4.76
272.645	4.75
273.104	4.73
273.563	4.72
274.022	4.7
274.481	4.7
274.94	4.69
275.399	4.68
275.857	4.67
276.316	4.66
276.775	4.65
277.233	4.65
277.692	4.64
278.15	4.64
278.609	4.64
279.067	4.64
279.525	4.63
279.984	4.63
280.442	4.64
280.9	4.65
281.358	4.65
281.816	4.66
282.274	4.66
282.732	4.66
283.19	4.65
283.648	4.65
284.106	4.64
284.564	4.65
285.021	4.65
285.479	4.64
285.937	4.63
286.394	4.63
286.852	4.61
287.309	4.6
287.767	4.59
288.224	4.57
288.682	4.55
289.139	4.53
289.596	4.51
290.053	4.48
290.511	4.46
290.968	4.44
291.425	4.41
291.882	4.4
292.339	4.39
292.796	4.37
293.252	4.36
293.709	4.36
294.166	4.35
294.623	4.35
295.079	4.34
295.536	4.33
295.992	4.32
296.449	4.31
296.905	4.31
297.362	4.3
297.818	4.29
298.274	4.28
298.731	4.28
299.187	4.27
299.643	4.27
300.099	4.27
300.555	4.26
301.011	4.26
301.467	4.26
301.923	4.26
302.379	4.26
302.835	4.27
303.291	4.27
303.746	4.27
304.202	4.28
304.658	4.28
305.113	4.28
305.569	4.29
306.024	4.29
306.479	4.3
306.935	4.3
307.39	4.31
307.845	4.32
308.301	4.32
308.756	4.32
309.211	4.32
309.666	4.33
310.121	4.34
310.576	4.34
311.031	4.35
311.486	4.35
311.94	4.36
312.395	4.36
312.85	4.36
313.305	4.36
313.759	4.36
314.214	4.36
314.668	4.36
315.123	4.35
315.577	4.35
316.032	4.35
316.486	4.34
316.94	4.34
317.394	4.32
317.849	4.31
318.303	4.3
318.757	4.28
319.211	4.27
319.665	4.25
320.119	4.24
320.572	4.22
321.026	4.21
321.48	4.2
321.934	4.18
322.387	4.18
322.841	4.17
323.295	4.18
323.748	4.18
324.202	4.18
324.655	4.19
325.108	4.2
325.562	4.2
326.015	4.21
326.468	4.21
326.921	4.22
327.374	4.22
327.827	4.23
328.28	4.23
328.733	4.24
329.186	4.23
329.639	4.24
330.092	4.23
330.545	4.24
330.997	4.24
331.45	4.25
331.903	4.26
332.355	4.27
332.808	4.27
333.26	4.27
333.713	4.28
334.165	4.29
334.617	4.3
335.069	4.3
335.522	4.31
335.974	4.31
336.426	4.31
336.878	4.3
337.33	4.3
337.782	4.3
338.234	4.31
338.686	4.31
339.137	4.32
339.589	4.3
340.041	4.29
340.493	4.27
340.944	4.26
341.396	4.25
341.847	4.23
342.299	4.22
342.75	4.2
343.201	4.16
343.653	4.14
344.104	4.11
344.555	4.1
345.006	4.08
345.457	4.08
345.908	4.07
346.359	4.06
346.81	4.06
347.261	4.05
347.712	4.05
348.163	4.05
348.613	4.06
349.064	4.06
349.515	4.06
349.965	4.07
350.416	4.07
350.866	4.07
351.317	4.07
351.767	4.07
352.217	4.07
352.668	4.07
353.118	4.08
353.568	4.07
354.018	4.08
354.468	4.09
354.918	4.08
355.368	4.09
355.818	4.09
356.268	4.09
356.718	4.1
357.168	4.1
357.617	4.1
358.067	4.09
358.517	4.12
358.966	4.12
359.416	4.12
359.865	4.11
360.315	4.12
360.764	4.13
361.213	4.13
361.663	4.12
362.112	4.13
362.561	4.13
363.01	4.14
363.459	4.12
363.908	4.12
364.357	4.12
364.806	4.13
365.255	4.13
365.703	4.13
366.152	4.14
366.601	4.16
367.05	4.17
367.498	4.17
367.947	4.17
368.395	4.19
368.844	4.2
369.292	4.2
369.74	4.21
370.189	4.21
370.637	4.22
371.085	4.21
371.533	4.22
371.981	4.22
372.429	4.22
372.877	4.24
373.325	4.24
373.773	4.24
374.221	4.24
374.669	4.25
375.116	4.25
375.564	4.26
376.012	4.27
376.459	4.27
376.907	4.28
377.354	4.29
377.801	4.3
378.249	4.31
378.696	4.33
379.143	4.35
379.591	4.36
380.038	4.39
380.485	4.4
380.932	4.42
381.379	4.44
381.826	4.46
382.273	4.48
382.72	4.49
383.166	4.5
383.613	4.51
384.06	4.52
384.506	4.54
384.953	4.56
385.4	4.57
385.846	4.6
386.292	4.61
386.739	4.63
387.185	4.64
387.631	4.66
388.078	4.69
388.524	4.72
388.97	4.75
389.416	4.78
389.862	4.81
390.308	4.85
390.754	4.88
391.2	4.91
391.645	4.95
392.091	5.01
392.537	5.05
392.983	5.07
393.428	5.11
393.874	5.14
394.319	5.17
394.765	5.2
395.21	5.21
395.655	5.25
396.101	5.29
396.546	5.33
396.991	5.36
397.436	5.39
397.881	5.45
398.326	5.49
398.771	5.54
399.216	5.58
399.661	5.63
400.106	5.67
400.551	5.69
400.995	5.73
401.44	5.75
401.885	5.79
402.329	5.83
402.774	5.86
403.218	5.92
403.663	5.96
404.107	6.02
404.551	6.05
404.995	6.08
405.44	6.12
405.884	6.15
406.328	6.2
406.772	6.22
407.216	6.26
407.66	6.29
408.104	6.31
408.547	6.33
408.991	6.36
409.435	6.4
409.879	6.45
410.322	6.49
410.766	6.54
411.209	6.59
411.653	6.64
412.096	6.69
412.54	6.72
412.983	6.76
413.426	6.82
413.869	6.86
414.312	6.9
414.756	6.95
415.199	6.97
415.642	6.99
416.085	7.01
416.527	7
416.97	7
417.413	7.02
417.856	7.03
418.298	7.02
418.741	7.03
419.184	7.04
419.626	7.05
420.069	7.07
420.511	7.09
420.953	7.1
421.396	7.14
421.838	7.17
422.28	7.2
422.722	7.24
423.164	7.26
423.606	7.28
424.048	7.29
424.49	7.31
424.932	7.3
425.374	7.27
425.816	7.25
426.258	7.24
426.699	7.22
427.141	7.23
427.582	7.23
428.024	7.25
428.465	7.25
428.907	7.24
429.348	7.22
429.789	7.24
430.231	7.3
430.672	7.34
431.113	7.38
431.554	7.4
431.995	7.42
432.436	7.42
432.877	7.44
433.318	7.47
433.759	7.51
434.2	7.55
434.64	7.59
435.081	7.59
435.522	7.61
435.962	7.62
436.403	7.65
436.843	7.65
437.284	7.65
437.724	7.64
438.164	7.62
438.604	7.62
439.045	7.63
439.485	7.62
439.925	7.6
440.365	7.6
440.805	7.6
441.245	7.59
441.685	7.62
442.125	7.63
442.564	7.64
443.004	7.65
443.444	7.66
443.883	7.66
444.323	7.65
444.762	7.66
445.202	7.66
445.641	7.67
446.081	7.68
446.52	7.66
446.959	7.67
447.398	7.67
447.837	7.68
448.276	7.65
448.716	7.65
449.154	7.67
449.593	7.66
450.032	7.64
450.471	7.62
450.91	7.59
451.349	7.58
451.787	7.55
452.226	7.52
452.664	7.48
453.103	7.47
453.541	7.45
453.98	7.42
454.418	7.39
454.856	7.38
455.295	7.34
455.733	7.31
456.171	7.28
456.609	7.27
457.047	7.25
457.485	7.23
457.923	7.22
458.361	7.21
458.798	7.19
459.236	7.19
459.674	7.19
460.111	7.19
460.549	7.19
460.987	7.2
461.424	7.19
461.862	7.21
462.299	7.21
462.736	7.21
463.173	7.21
463.611	7.22
464.048	7.24
464.485	7.25
464.922	7.24
465.359	7.24
465.796	7.27
466.233	7.28
466.67	7.3
467.106	7.32
467.543	7.31
467.98	7.29
468.416	7.27
468.853	7.26
469.29	7.24
469.726	7.25
470.162	7.23
470.599	7.19
471.035	7.17
471.471	7.15
471.907	7.12
472.344	7.11
472.78	7.11
473.216	7.08
473.652	7.07
474.088	7.04
474.523	7.03
474.959	7.01
475.395	6.98
475.831	6.97
476.266	6.95
476.702	6.93
477.138	6.92
477.573	6.89
478.008	6.88
478.444	6.87
478.879	6.85
479.314	6.83
479.75	6.8
480.185	6.78
480.62	6.76
481.055	6.74
481.49	6.71
481.925	6.69
482.36	6.68
482.795	6.67
483.229	6.64
483.664	6.64
484.099	6.62
484.534	6.61
484.968	6.59
485.403	6.57
485.837	6.56
486.271	6.57
486.706	6.56
487.14	6.54
487.574	6.54
488.009	6.53
488.443	6.52
488.877	6.53
489.311	6.54
489.745	6.55
490.179	6.56
490.613	6.57
491.046	6.57
491.48	6.58
491.914	6.58
492.348	6.59
492.781	6.6
493.215	6.61
493.648	6.62
494.082	6.62
494.515	6.62
494.948	6.63
495.382	6.64
495.815	6.65
496.248	6.66
496.681	6.67
497.114	6.68
497.547	6.69
497.98	6.7
498.413	6.72
498.846	6.74
499.279	6.75
499.711	6.75
500.144	6.77
500.577	6.79
501.009	6.81
501.442	6.82
501.874	6.85
502.306	6.87
502.739	6.9
503.171	6.92
503.603	6.95
504.036	6.98
504.468	7
504.9	7.02
505.332	7.05
505.764	7.08
506.196	7.12
506.627	7.17
507.059	7.21
507.491	7.23
507.923	7.27
508.354	7.32
508.786	7.37
509.217	7.44
509.649	7.49
510.08	7.56
510.512	7.62
510.943	7.69
511.374	7.74
511.805	7.8
512.237	7.88
512.668	7.96
513.099	8.03
513.53	8.11
513.961	8.2
514.391	8.29
514.822	8.39
515.253	8.48
515.684	8.58
516.114	8.68
516.545	8.79
516.975	8.9
517.406	9.01
517.836	9.12
518.267	9.24
518.697	9.35
519.127	9.46
519.558	9.57
519.988	9.67
520.418	9.79
520.848	9.9
521.278	10.02
521.708	10.33
522.138	10.46
522.567	10.57
522.997	10.68
523.427	10.79
523.857	10.9
524.286	11.01
524.716	11.12
525.145	11.24
525.575	11.35
526.004	11.47
526.433	11.37
526.863	11.46
527.292	11.56
527.721	11.67
528.15	11.76
528.579	11.86
529.008	11.96
529.437	12.05
529.866	12.11
530.295	12.18
530.724	12.26
531.152	12.32
531.581	12.41
532.01	12.48
532.438	12.54
532.867	12.61
533.295	12.67
533.723	12.71
534.152	12.77
534.58	12.83
535.008	12.87
535.436	12.92
535.865	12.96
536.293	13
536.721	13.04
537.149	13.08
537.576	13.1
538.004	13.12
538.432	13.15
538.86	13.17
539.287	13.21
539.715	13.25
540.143	13.27
540.57	13.31
540.998	13.32
541.425	13.34
541.852	13.36
542.28	13.4
542.707	13.43
543.134	13.46
543.561	13.49
543.988	13.5
544.415	13.52
544.842	13.53
545.269	13.56
545.696	13.59
546.123	13.6
546.549	13.63
546.976	13.64
547.403	13.66
547.829	13.67
548.256	13.69
548.682	13.71
549.108	13.72
549.535	13.74
549.961	13.74
550.387	13.73
550.813	13.75
551.24	13.74
551.666	13.75
552.092	13.73
552.518	13.73
552.943	13.72
553.369	13.7
553.795	13.68
554.221	13.67
554.646	13.64
555.072	13.62
555.498	13.57
555.923	13.54
556.349	13.49
556.774	13.45
557.199	13.41
557.625	13.37
558.05	13.31
558.475	13.27
558.9	13.22
559.325	13.18
559.75	13.13
560.175	13.09
560.6	13.02
561.025	12.97
561.449	12.89
561.874	12.82
562.299	12.75
562.723	12.68
563.148	12.58
563.572	12.49
563.997	12.4
564.421	12.3
564.846	12.2
565.27	12.11
565.694	12.02
566.118	11.93
566.542	11.84
566.966	11.74
567.39	11.66
567.814	11.56
568.238	11.48
568.662	11.39
569.086	11.3
569.509	11.22
569.933	11.15
570.357	11.07
570.78	11
571.204	10.93
571.627	10.85
572.05	10.77
572.474	10.73
572.897	10.67
573.32	10.61
573.743	10.55
574.166	10.48
574.589	10.42
575.012	10.35
575.435	10.3
575.858	10.25
576.281	10.2
576.704	10.14
577.126	10.09
577.549	10.03
577.972	9.99
578.394	9.95
578.817	9.92
579.239	9.89
579.661	9.86
580.084	9.83
580.506	9.8
580.928	9.77
581.35	9.73
581.772	9.69
582.194	9.67
582.616	9.64
583.038	9.6
583.46	9.56
583.882	9.54
584.303	9.5
584.725	9.46
585.147	9.43
585.568	9.41
585.99	9.4
586.411	9.37
586.833	9.34
587.254	9.31
587.675	9.29
588.096	9.27
588.518	9.24
588.939	9.23
589.36	9.21
589.781	9.17
590.202	9.17
590.623	9.14
591.043	9.12
591.464	9.11
591.885	9.09
592.305	9.06
592.726	9.05
593.147	9.04
593.567	9.01
593.987	9
594.408	8.98
594.828	8.94
595.248	8.93
595.669	8.91
596.089	8.89
596.509	8.87
596.929	8.85
597.349	8.83
597.769	8.81
598.189	8.79
598.608	8.77
599.028	8.76
599.448	8.74
599.867	8.7
600.287	8.68
600.706	8.66
601.126	8.64
601.545	8.63
601.965	8.61
602.384	8.59
602.803	8.57
603.222	8.53
603.641	8.51
604.061	8.5
604.48	8.48
604.898	8.45
605.317	8.43
605.736	8.4
606.155	8.37
606.574	8.35
606.992	8.33
607.411	8.3
607.829	8.25
608.248	8.21
608.666	8.18
609.085	8.15
609.503	8.13
609.921	8.1
610.339	8.08
610.758	8.06
611.176	8.02
611.594	7.99
612.012	7.96
612.43	7.96
612.847	7.94
613.265	7.91
613.683	7.89
614.101	7.88
614.518	7.85
614.936	7.81
615.353	7.78
615.771	7.77
616.188	7.74
616.606	7.73
617.023	7.72
617.44	7.71
617.857	7.7
618.274	7.68
618.691	7.66
619.108	7.64
619.525	7.63
619.942	7.63
620.359	7.62
620.776	7.6
621.192	7.58
621.609	7.58
622.026	7.56
622.442	7.56
622.859	7.55
623.275	7.54
623.691	7.53
624.108	7.52
624.524	7.52
624.94	7.51
625.356	7.51
625.772	7.5
626.188	7.5
626.604	7.5
627.02	7.49
627.436	7.49
627.852	7.5
628.268	7.51
628.683	7.51
629.099	7.52
629.514	7.52
629.93	7.53
630.345	7.53
630.761	7.52
631.176	7.52
631.591	7.53
632.007	7.52
632.422	7.52
632.837	7.51
633.252	7.51
633.667	7.49
634.082	7.48
634.497	7.46
634.911	7.44
635.326	7.43
635.741	7.42
636.155	7.39
636.57	7.38
636.984	7.35
637.399	7.34
637.813	7.31
638.228	7.29
638.642	7.26
639.056	7.24
639.47	7.23
639.884	7.23
640.298	7.2
640.712	7.18
641.126	7.16
641.54	7.14
641.954	7.1
642.368	7.09
642.781	7.08
643.195	7.06
643.609	7.04
644.022	7.01
644.436	6.98
644.849	6.96
645.262	6.94
645.676	6.91
646.089	6.89
646.502	6.88
646.915	6.88
647.328	6.86
647.741	6.85
648.154	6.84
648.567	6.85
648.98	6.84
649.393	6.84
649.805	6.83
650.218	6.84
650.631	6.84
651.043	6.82
651.456	6.81
651.868	6.8
652.28	6.8
652.693	6.79
653.105	6.78
653.517	6.77
653.929	6.76
654.341	6.75
654.753	6.73
655.165	6.72
655.577	6.72
655.989	6.7
656.401	6.7
656.813	6.69
657.224	6.67
657.636	6.64
658.047	6.64
658.459	6.63
658.87	6.62
659.282	6.61
659.693	6.59
660.104	6.57
660.515	6.55
660.926	6.54
661.338	6.53
661.749	6.52
662.159	6.52
662.57	6.5
662.981	6.49
663.392	6.48
663.803	6.48
664.213	6.47
664.624	6.45
665.035	6.45
665.445	6.44
665.855	6.44
666.266	6.43
666.676	6.43
667.086	6.42
667.497	6.42
667.907	6.43
668.317	6.42
668.727	6.42
669.137	6.43
669.547	6.43
669.956	6.44
670.366	6.44
670.776	6.43
671.186	6.45
671.595	6.46
672.005	6.45
672.414	6.46
672.824	6.47
673.233	6.47
673.642	6.48
674.052	6.49
674.461	6.5
674.87	6.52
675.279	6.55
675.688	6.57
676.097	6.59
676.506	6.61
676.915	6.62
677.323	6.65
677.732	6.67
678.141	6.69
678.549	6.71
678.958	6.73
679.366	6.76
679.775	6.76
680.183	6.79
680.592	6.81
681	6.85
681.408	6.88
681.816	6.91
682.224	6.94
682.632	6.98
683.04	7.02
683.448	7.06
683.856	7.09
684.264	7.13
684.671	7.16
685.079	7.2
685.487	7.25
685.894	7.31
686.302	7.37
686.709	7.43
687.116	7.5
687.524	7.57
687.931	7.66
688.338	7.75
688.745	7.85
689.152	7.95
689.559	8.08
689.966	8.22
690.373	8.35
690.78	8.51
691.187	8.68
691.593	8.86
692	9.05
692.407	9.26
692.813	9.49
693.22	9.73
693.626	9.99
694.032	10.26
694.439	10.54
694.845	10.84
695.251	11.16
695.657	11.47
696.063	11.8
696.469	12.15
696.875	12.5
697.281	12.86
697.687	13.24
698.093	13.62
698.498	14.01
698.904	14.4
699.31	14.79
699.715	15.21
700.12	15.64
700.526	16.07
700.931	16.48
701.337	16.92
701.742	17.34
702.147	17.77
702.552	18.2
702.957	18.62
703.362	19.04
703.767	19.47
704.172	19.9
704.577	20.32
704.981	20.75
705.386	21.19
705.791	21.62
706.195	22.07
706.6	22.52
707.004	22.97
707.408	23.42
707.813	23.88
708.217	24.34
708.621	24.78
709.025	25.21
709.43	25.64
709.834	26.1
710.237	26.53
710.641	26.96
711.045	27.38
711.449	27.84
711.853	28.3
712.256	28.72
712.66	29.14
713.064	29.56
713.467	30.01
713.87	30.45
714.274	30.87
714.677	31.33
715.08	31.77
715.484	32.21
715.887	32.63
716.29	33.01
716.693	33.45
717.096	33.87
717.499	34.3
717.901	34.72
718.304	35.13
718.707	35.55
719.109	35.92
719.512	36.31
719.915	36.71
720.317	37.08
720.719	37.45
721.122	37.79
721.524	38.17
721.926	38.53
722.328	38.86
722.731	39.18
723.133	39.51
723.535	39.83
723.937	40.15
724.338	40.44
724.74	40.77
725.142	41.21
725.544	41.49
725.945	41.8
726.347	42.03
726.748	42.32
727.15	42.58
727.551	42.86
727.952	43.1
728.354	43.36
728.755	43.6
729.156	43.8
729.557	43.89
729.958	44.09
730.359	44.26
730.76	44.49
731.161	44.69
731.562	44.91
731.962	45.06
732.363	45.28
732.763	45.44
733.164	45.63
733.564	45.82
733.965	46
734.365	46.2
734.766	46.38
735.166	46.53
735.566	46.67
735.966	46.81
736.366	46.97
736.766	47.1
737.166	47.23
737.566	47.34
737.966	47.45
738.365	47.56
738.765	47.69
739.165	47.78
739.564	47.91
739.964	48
740.363	48.11
740.763	48.21
741.162	48.3
741.561	48.38
741.96	48.47
742.36	48.55
742.759	48.63
743.158	48.67
743.557	48.73
743.955	48.81
744.354	48.88
744.753	48.93
745.152	49
745.55	49.04
745.949	49.09
746.348	49.15
746.746	49.18
747.144	49.23
747.543	49.27
747.941	49.34
748.339	49.33
748.737	49.37
749.136	49.39
749.534	49.38
749.932	49.42
750.33	49.47
750.727	49.5
751.125	49.55
751.523	49.55
751.921	49.61
752.318	49.64
752.716	49.69
753.113	49.7
753.511	49.76
753.908	49.82
754.305	49.86
754.703	49.88
755.1	49.88
755.497	49.91
755.894	49.93
756.291	49.93
756.688	49.93
757.085	49.99
757.482	50.02
757.878	50.04
758.275	50.03
758.672	50.04
759.068	50.07
759.465	50.09
759.861	50.11
760.258	50.14
760.654	50.17
761.05	50.21
761.447	50.2
761.843	50.19
762.239	50.2
762.635	50.21
763.031	50.25
763.427	50.24
763.822	50.29
764.218	50.32
764.614	50.34
765.01	50.32
765.405	50.31
765.801	50.32
766.196	50.35
766.592	50.38
766.987	50.4
767.382	50.35
767.778	50.35
768.173	50.37
768.568	50.36
768.963	50.36
769.358	50.39
769.753	50.39
770.148	50.41
770.542	50.42
770.937	50.43
771.332	50.42
771.726	50.48
772.121	50.5
772.515	50.48
772.91	50.46
773.304	50.49
773.699	50.5
774.093	50.5
774.487	50.48
774.881	50.5
775.275	50.48
775.669	50.49
776.063	50.49
776.457	50.48
776.851	50.47
777.245	50.46
777.638	50.44
778.032	50.46
778.425	50.51
778.819	50.53
779.212	50.55
779.606	50.57
779.999	50.55
780.392	50.57
780.786	50.59
781.179	50.61
781.572	50.66
781.965	50.66
782.358	50.67
782.751	50.66
783.143	50.64
783.536	50.64
783.929	50.67
784.322	50.72
784.714	50.69
785.107	50.7
785.499	50.69
785.891	50.67
786.284	50.72
786.676	50.73
787.068	50.73
787.46	50.77
787.852	50.75
788.245	50.74
788.636	50.71
789.028	50.75
789.42	50.75
789.812	50.8
790.204	50.81
790.595	50.78
790.987	50.77
791.378	50.8
791.77	50.79
792.161	50.8
792.553	50.81
792.944	50.81
793.335	50.82
793.726	50.83
794.117	50.81
794.508	50.79
794.899	50.8
795.29	50.82
795.681	50.77
796.072	50.78
796.463	50.83
796.853	50.81
797.244	50.82
797.634	50.8
798.025	50.83
798.415	50.8
798.806	50.79
799.196	50.8
799.586	50.8
799.976	50.81
800.366	50.8
800.756	50.75
801.146	50.79
801.536	50.81
801.926	50.83
802.316	50.82
802.706	50.86
803.095	50.9
803.485	50.91
803.874	50.9
804.264	50.9
804.653	50.91
805.043	50.95
805.432	50.92
805.821	50.95
806.21	50.96
806.599	50.95
806.988	50.94
807.377	50.93
807.766	50.94
808.155	50.93
808.544	50.96
808.933	50.97
809.321	50.93
809.71	50.92
810.098	50.9
810.487	50.85
810.875	50.85
811.264	50.84
811.652	50.84
812.04	50.83
812.428	50.88
812.816	50.85
813.204	50.82
813.592	50.82
813.98	50.83
814.368	50.84
814.756	50.88
815.144	50.87
815.531	50.89
815.919	50.88
816.306	50.85
816.694	50.82
817.081	50.84
817.469	50.86
817.856	50.88
818.243	50.89
818.63	50.85
819.017	50.82
819.404	50.81
819.791	50.77
820.178	50.77
820.565	50.75
820.952	50.77
821.339	50.76
821.725	50.77
822.112	50.75
822.498	50.74
822.885	50.8
823.271	50.82
823.657	50.77
824.044	50.78
824.43	50.79
824.816	50.84
825.202	50.83
825.588	50.83
825.974	50.82
826.36	50.8
826.746	50.8
827.132	50.76
827.517	50.77
827.903	50.82
828.289	50.85
828.674	50.85
829.06	50.81
829.445	50.78
829.83	50.77
830.216	50.77
830.601	50.78
830.986	50.79
831.371	50.76
831.756	50.77
832.141	50.76
832.526	50.76
832.911	50.75
833.295	50.78
833.68	50.79
834.065	50.77
834.449	50.76
834.834	50.74
835.218	50.72
835.603	50.74
835.987	50.71
836.371	50.67
836.755	50.62
837.139	50.61
837.524	50.61
837.908	50.59
838.291	50.63
838.675	50.64
839.059	50.65
839.443	50.64
839.827	50.62
840.21	50.6
840.594	50.64
840.977	50.66
841.361	50.66
841.744	50.61
842.127	50.65
842.511	50.6
842.894	50.57
843.277	50.55
843.66	50.54
844.043	50.54
844.426	50.58
844.809	50.54
845.191	50.54
845.574	50.54
845.957	50.57
846.339	50.54
846.722	50.57
847.104	50.6
847.487	50.6
847.869	50.59
848.252	50.61
848.634	50.59
849.016	50.63
849.398	50.63
849.78	50.63
850.162	50.61
850.544	50.61
850.926	50.6
851.307	50.58
851.689	50.6
852.071	50.62
852.452	50.62
852.834	50.63
853.215	50.61
853.597	50.6
853.978	50.62
854.359	50.65
854.741	50.65
855.122	50.66
855.503	50.64
855.884	50.63
856.265	50.63
856.646	50.62
857.026	50.63
857.407	50.65
857.788	50.66
858.169	50.68
858.549	50.66
858.93	50.67
859.31	50.64
859.69	50.69
860.071	50.71
860.451	50.71
860.831	50.71
861.211	50.69
861.591	50.69
861.971	50.68
862.351	50.69
862.731	50.71
863.111	50.69
863.491	50.71
863.87	50.68
864.25	50.67
864.629	50.67
865.009	50.68
865.388	50.68
865.768	50.69
866.147	50.69
866.526	50.68
866.905	50.67
867.284	50.68
867.663	50.71
868.042	50.73
868.421	50.76
868.8	50.76
869.179	50.77
869.558	50.77
869.936	50.77
870.315	50.77
870.693	50.77
871.072	50.8
871.45	50.81
871.828	50.81
872.207	50.81
872.585	50.77
872.963	50.79
873.341	50.78
873.719	50.79
874.097	50.78
874.475	50.8
874.853	50.83
875.23	50.85
875.608	50.84
875.986	50.84
876.363	50.84
876.741	50.89
877.118	50.9
877.495	50.93
877.873	50.97
878.25	50.99
878.627	50.97
879.004	50.92
879.381	50.91
879.758	50.88
880.135	50.89
880.512	50.87
880.889	50.85
881.265	50.82
881.642	50.8
882.019	50.76
882.395	50.73
882.772	50.73
883.148	50.7
883.524	50.67
883.901	50.7
884.277	50.65
884.653	50.64
885.029	50.58
885.405	50.58
885.781	50.56
886.157	50.55
886.532	50.54
886.908	50.51
887.284	50.51
887.659	50.48
888.035	50.42
888.411	50.42
888.786	50.44
889.161	50.45
889.537	50.44
889.912	50.43
890.287	50.43
890.662	50.42
891.037	50.43
891.412	50.42
891.787	50.42
892.162	50.45
892.536	50.44
892.911	50.44
893.286	50.44
893.66	50.43
894.035	50.44
894.409	50.42
894.784	50.43
895.158	50.42
895.532	50.45
895.906	50.46
896.281	50.45
896.655	50.48
897.029	50.49
897.402	50.47
897.776	50.51
898.15	50.52
898.524	50.57
898.898	50.59
899.271	50.63
899.645	50.66
900.018	50.7
900.392	50.72
900.765	50.72
901.138	50.71
901.511	50.74
901.884	50.74
902.258	50.77
902.631	50.76
903.003	50.75
903.376	50.75
903.749	50.75
904.122	50.75
904.495	50.79
904.867	50.79
905.24	50.84
905.612	50.88
905.985	50.87
906.357	50.88
906.729	50.89
907.102	50.92
907.474	50.91
907.846	50.91
908.218	50.89
908.59	50.88
908.962	50.9
909.334	50.86
909.705	50.87
910.077	50.91
910.449	50.91
910.82	50.92
911.192	50.93
911.563	50.93
911.935	50.93
912.306	50.97
912.677	51
913.048	51.04
913.419	51.06
913.79	51.07
914.161	51.09
914.532	51.1
914.903	51.11
915.274	51.1
915.645	51.1
916.015	51.12
916.386	51.13
916.756	51.11
917.127	51.1
917.497	51.11
917.868	51.09
918.238	51.05
918.608	51.06
918.978	51.06
919.348	51.08
919.718	51.08
920.088	51.12
920.458	51.13
920.828	51.13
921.198	51.12
921.567	51.12
921.937	51.15
922.306	51.17
922.676	51.17
923.045	51.19
923.415	51.19
923.784	51.22
924.153	51.25
924.522	51.24
924.891	51.23
925.26	51.24
925.629	51.26
925.998	51.24
926.367	51.25
926.736	51.26
927.104	51.27
927.473	51.22
927.842	51.18
928.21	51.12
928.578	51.1
928.947	51.14
929.315	51.16
929.683	51.19
930.051	51.18
930.42	51.16
930.788	51.12
931.156	51.1
931.523	51.18
931.891	51.24
932.259	51.28
932.627	51.33
932.994	51.36
933.362	51.35
933.729	51.37
934.097	51.4
934.464	51.5
934.831	51.59
935.199	51.66
935.566	51.65
935.933	51.64
936.3	51.68
936.667	51.71
937.034	51.78
937.401	51.89
937.767	51.92
938.134	51.94
938.501	51.94
938.867	51.97
939.234	51.99
939.6	52.05
939.967	52.14
940.333	52.12
940.699	52.12
941.065	52
941.431	51.99
941.798	51.94
942.163	51.94
942.529	51.91
942.895	51.88
943.261	51.84
943.627	51.83
943.992	51.76
944.358	51.78
944.723	51.78
945.089	51.69
945.454	51.66
945.82	51.64
946.185	51.66
946.55	51.58
946.915	51.52
947.28	51.51
947.645	51.41
948.01	51.38
948.375	51.34
948.74	51.3
949.104	51.33
949.469	51.24
949.834	51.15
950.198	51.07
950.562	50.99
950.927	50.96
951.291	50.83
951.655	50.76
952.02	50.72
952.384	50.65
952.748	50.6
953.112	50.61
953.476	50.58
953.839	50.57
954.203	50.56
954.567	50.56
954.931	50.51
955.294	50.52
955.658	50.61
956.021	50.58
956.385	50.54
956.748	50.55
957.111	50.46
957.474	50.47
957.837	50.45
958.2	50.39
958.563	50.43
958.926	50.45
959.289	50.45
959.652	50.37
960.015	50.33
960.377	50.36
960.74	50.32
961.102	50.37
961.465	50.39
961.827	50.49
962.189	50.56
962.552	50.53
962.914	50.54
963.276	50.6
963.638	50.63
964	50.63
964.362	50.62
964.724	50.61
965.085	50.65
965.447	50.61
965.809	50.53
966.17	50.42
966.532	50.45
966.893	50.45
967.255	50.39
967.616	50.43
967.977	50.45
968.338	50.46
968.699	50.45
969.061	50.41
969.421	50.43
969.782	50.51
970.143	50.63
970.504	50.66
970.865	50.71
971.225	50.74
971.586	50.67
971.946	50.64
972.307	50.63
972.667	50.62
973.027	50.59
973.388	50.55
973.748	50.51
974.108	50.54
974.468	50.49
974.828	50.49
975.188	50.45
975.548	50.47
975.907	50.57
976.267	50.59
976.627	50.69
976.986	50.74
977.346	50.78
977.705	50.83
978.064	50.78
978.424	50.8
978.783	50.76
979.142	50.85
979.501	50.9
979.86	50.93
980.219	50.92
980.578	50.94
980.937	50.99
981.296	50.98
981.654	50.98
982.013	50.99
982.371	51.03
982.73	51.06
983.088	51.04
983.447	51.08
983.805	51.06
984.163	51.14
984.521	51.13
984.879	51.06
985.237	51.15
985.595	51.28
985.953	51.3
986.311	51.29
986.669	51.34
987.026	51.36
987.384	51.44
987.741	51.41
988.099	51.54
988.456	51.57
988.814	51.66
989.171	51.68
989.528	51.62
989.885	51.59
990.242	51.71
990.599	51.74
990.956	51.86
991.313	51.83
991.67	51.92
992.027	52.1
992.383	52.13
992.74	52.29
993.096	52.31
993.453	52.27
993.809	52.36
994.165	52.4
994.522	52.54
994.878	52.54
995.234	52.59
995.59	52.59
995.946	52.5
996.302	52.6
996.658	52.61
997.013	52.66
997.369	52.8
997.725	53.01
998.08	53.14
998.436	53.09
998.791	53.21
999.147	53.18
999.502	53.31
999.857	53.35
1000.212	53.31
1000.567	53.37
1000.922	53.44
1001.277	53.52
1001.632	53.4
1001.987	53.44
1002.342	53.46
1002.696	53.48
1003.051	53.79
1003.406	53.9
1003.76	53.86
1004.114	53.93
1004.469	54.01
1004.823	54.34
1005.177	54.34
1005.531	54.6
1005.885	54.58
1006.239	54.73
1006.593	54.91
1006.947	54.89
1007.301	54.7
1007.655	54.84
1008.008	55.06
1008.362	55.26
1008.715	55.09
1009.069	55.19
1009.422	55.25
1009.776	55.32
1010.129	55.38
1010.482	55.38
1010.835	55.47
1011.188	55.72
1011.541	55.74
1011.894	55.58
1012.247	55.49
1012.6	55.61
1012.952	55.79
1013.305	55.88
1013.657	56.05
1014.01	56.12
1014.362	56.19
1014.715	56.34
1015.067	56.63
1015.419	56.88
1015.771	57.15
1016.123	57.13
1016.475	57.13
1016.827	57.16
1017.179	57.23
1017.531	57.21
1017.883	57.24
1018.234	57.5
1018.586	57.64
1018.938	57.9
1019.289	57.87
1019.64	57.87
1019.992	57.96
1020.343	58.15
1020.694	58.41
1021.045	58.56
1021.396	58.86
1021.747	59.4
1022.098	59.37
1022.449	59.18
1022.8	59.18
1023.151	59.32
1023.501	59.69
1023.852	60.07
1024.202	60.18
1024.553	60.09
1024.903	60.34
1025.253	60.53
1025.604	60.53
1025.954	60.68
1026.304	61.23
1026.654	61.34
1027.004	61.39
1027.354	61.21
1027.703	61.16
1028.053	61.48
1028.403	61.8
1028.753	61.55
1029.102	61.73
1029.452	61.71
1029.801	61.98
1030.15	61.79
1030.499	61.55
897.758	1789.16
901.051	1793.43
904.343	1784.54
907.636	1819.89
910.928	1773.59
914.22	1771.01
917.511	1747.56
920.803	1671.7
924.094	1660.7
927.384	1625.03
930.675	1552.61
933.965	1543.37
937.255	1456.81
940.544	1400.65
943.834	1326.16
947.123	1313.5
950.411	1237.26
953.7	1211.52
956.988	1143.23
960.276	1100.41
963.563	1083.22
966.851	1045.53
970.138	1035.91
973.424	1001.2
976.711	1008.01
979.997	960.26
983.283	955.19
986.568	935
989.853	903.29
993.138	890.42
996.423	855.16
999.708	831.08
1002.992	823.03
1006.275	782.36
1009.559	775.95
1012.842	745.76
1016.125	725.35
1019.408	712.46
1022.69	701.08
1025.972	689.08
1029.254	670.94
1032.536	659.35
1035.817	643.86
1039.098	636.25
1042.379	622.96
1045.659	616.14
1048.939	602.65
1052.219	589.81
1055.498	579.78
1058.778	568.76
1062.057	552.97
1065.335	547.39
1068.614	540.7
1071.892	536.29
1075.17	517.71
1078.447	509.01
1081.724	505
1085.001	500.27
1088.278	490.2
1091.554	480.82
1094.83	480.1
1098.106	479.07
1101.382	474.21
1104.657	470.85
1107.932	462.53
1111.206	465.85
1114.481	453.92
1117.755	449.37
1121.029	445.56
1124.302	446.17
1127.575	436.68
1130.848	431.2
1134.121	425.85
1137.393	424.14
1140.665	414.3
1143.937	412.73
1147.208	408.35
1150.48	408.53
1153.75	402.63
1157.021	396.27
1160.291	396.75
1163.561	392.83
1166.831	392.37
1170.101	389.54
1173.37	388.42
1176.639	390.07
1179.907	385.1
1183.176	381.37
1186.444	380.48
1189.711	380.56
1192.979	379.66
1196.246	376.28
1199.513	377.43
1202.78	374.98
1206.046	375.44
1209.312	371.02
1212.578	371.55
1215.843	375.61
1219.108	372.63
1222.373	381.45
1225.638	383.57
1228.902	390.46
1232.166	389.87
1235.43	394.28
1238.693	399.76
1241.956	401.11
1245.219	408.29
1248.482	408.12
1251.744	407.52
1255.006	409.55
1258.268	398.89
1261.529	395.08
1264.79	390.39
1268.051	388.87
1271.312	383.93
1274.572	379.4
1277.832	375.93
1281.092	368.9
1284.351	366.02
1287.61	366.21
1290.869	360.54
1294.128	357.76
1297.386	358.12
1300.644	355.1
1303.902	356.53
1307.159	354.06
1310.416	354.35
1313.673	354.07
1316.93	357.89
1320.186	358.37
1323.442	358.67
1326.697	366.04
1329.953	366.55
1333.208	367.88
1336.463	371.8
1339.717	372.3
1342.972	376.28
1346.226	378.9
1349.479	379.1
1352.733	381.91
1355.986	382.34
1359.238	381.93
1362.491	384.12
1365.743	388.39
1368.995	388.06
1372.247	385.52
1375.498	385.98
1378.749	390.47
1382	384.6
1385.251	387.12
1388.501	383.02
1391.751	386.34
1395	384.13
1398.25	380.61
1401.499	378.47
1404.748	378.1
1407.996	375.27
1411.244	373.06
1414.492	370.86
1417.74	368.7
1420.987	362.72
1424.234	364.47
1427.481	358
1430.728	359.1
1433.974	354.55
1437.22	351.48
1440.465	350.5
1443.711	348.89
1446.956	346.86
1450.201	340.96
1453.445	338.16
1456.689	336.7
1459.933	330.83
1463.177	328.39
1466.42	322.58
1469.663	319.24
1472.906	317.16
1476.148	309.27
1479.391	304.32
1482.633	300.9
1485.874	296.92
1489.115	295.02
1492.356	290.9
1495.597	290.34
1498.838	285.45
1502.078	283.6
1505.318	282.08
1508.557	282.11
1511.797	280.88
1515.036	280.5
1518.274	279.43
1521.513	276.08
1524.751	275.71
1527.989	275.16
1531.227	273.25
1534.464	274.62
1537.701	272.34
1540.938	271.48
1544.174	267.94
1547.41	267.78
1550.646	266.29
1553.882	266.39
1557.117	263.78
1560.352	261.76
1563.587	261.48
1566.821	259.39
1570.055	256.38
1573.289	254.47
1576.523	254.13
1579.756	252.14
1582.989	250.51
1586.222	250.19
1589.454	248.48
1592.686	249.82
1595.918	249.15
1599.15	247.83
1602.381	248.29
1605.612	248.11
1608.843	249.7
1612.073	249.25
1615.303	250.72
1618.533	251.35
1621.762	250.08
1624.992	250.66
1628.221	250.91
1631.449	250.11
1634.678	249.89
1637.906	250.73
1641.134	250.97
1644.361	250.14
1647.588	251.31
1650.815	250.11
1654.042	248.6
1657.269	250.7
1660.495	250.73
1663.72	248.58
1666.946	250.2
1670.171	250.39
1673.396	250.31
1676.621	250.03
1679.845	250.28
1683.069	249.76
1686.293	251.48
1689.517	253.33
1692.74	252.68
1695.963	253.8
1699.185	257.7
1702.408	257.34
1705.63	258.53
1708.852	259.11
1712.073	259.58
1715.294	260.07
1718.515	261.93
1721.736	261.73
1724.956	261.55
1728.176	261.78
1731.396	264.05
1734.616	262.69
1737.835	263.77
1741.054	262.12
1744.272	263
1747.491	266.06
1750.709	265.97
1753.927	265.52
1757.144	264.16
1760.361	266.47
1763.578	267.01
1766.795	266.21
1770.011	267.74
1773.227	267.9
1776.443	271.13
1779.658	273.05
1782.874	271.26
1786.089	273.4
1789.303	274.29
1792.518	278.13
1795.732	277.73
1798.945	281
1802.159	280.78
1805.372	282.5
1808.585	287.62
1811.797	288.5
1815.01	287.98
1818.222	291.14
1821.434	292.86
1824.645	294.27
1827.856	299.66
1831.067	302.34
1834.278	299.74
1837.488	302.47
1840.698	304.73
1843.908	301.25
1847.117	303.25
1850.326	305.55
1853.535	304.26
1856.744	309.78
1859.952	309.2
1863.16	307.42
1866.368	304.78
1869.575	310.81
1872.782	305.64
1875.989	304.78
1879.196	304.14
1882.402	302.28
1885.608	304.27
1888.814	305.95
1892.019	304.54
1895.224	304.36
1898.429	303.32
1901.634	306.1
1904.838	305.25
1908.042	310.57
1911.246	311.65
1914.449	314.21
1917.652	314.17
1920.855	313.43
1924.058	313.06
1927.26	311.86
1930.462	313.42
1933.664	317.28
1936.865	314.6
1940.066	314.83
1943.267	312.57
1946.467	312.38
1949.668	314.2
1952.868	318.41
1956.067	317.74
1959.267	318.89
1962.466	319.84
1965.665	318.22
1968.863	318.09
1972.061	322.18
1975.259	325.08
1978.457	326.9
1981.654	329.29
1984.852	330.22
1988.048	328.73
1991.245	331.71
1994.441	335.05
1997.637	337.7
2000.833	343.67
2004.028	348.24
2007.223	349.77
2010.418	353.56
2013.613	359.45
2016.807	363.44
2020.001	365.96
2023.194	371.67
2026.388	379.85
2029.581	388.56
2032.774	391.3
2035.966	398.69
2039.158	399.54
2042.35	407.89
2045.542	410.18
2048.733	415.51
2051.924	422.14
2055.115	429.13
2058.306	429.71
2061.496	436.06
2064.686	434.4
2067.875	442.28
2071.065	443.86
2074.254	442.04
2077.442	447.15
2080.631	448.59
2083.819	453.8
2087.007	453.5
2090.195	459.04
2093.382	463.29
2096.569	458.53
2099.756	466.89
2102.942	467.81
2106.128	473.8
2109.314	483.88
2112.5	481.86
2115.685	493.45
2118.87	494.33
2122.055	503.87
2125.239	507.83
2128.424	513.64
2131.608	518.29
2134.791	524.43
2137.974	527.31
2141.157	528.04
2144.34	529.13
2147.523	538.42
2150.705	533.3
2153.887	537.57
2157.068	538.69
2160.25	532.86
2163.431	536.08
2166.611	541
2169.792	552.32
2172.972	558.66
2176.152	560.64
2179.331	569.6
2182.511	578.75
2185.69	586.65
2188.868	599.05
2192.047	600.89
2195.225	618.78
2198.403	633.83
2201.58	645.71
2204.758	658.25
2207.935	673.21
2211.111	686.71
2214.288	693.47
2217.464	695.27
2220.64	704.4
2223.815	715.49
2226.991	743.67
2230.166	746.4
2233.34	761.33
2236.515	772.73
2239.689	774.14
2242.863	775.77
2246.036	801.11
2249.209	793.52
2252.382	806.44
2255.555	832.17
2258.727	833.58
2261.9	838.19
2265.071	846.18
2268.243	858.95
2271.414	870.51
2274.585	890.54
2277.756	901.15
2280.926	905.87
2284.096	925.66
2287.266	947.63
2290.436	955.14
2293.605	978.8
2296.774	1009.76
2299.942	1042.24
2303.111	1047.01
2306.279	1073.56
2309.447	1084.61
2312.614	1112.36
2315.781	1141.25
2318.948	1198.54
2322.115	1178.06
2325.281	1240.96
2328.447	1215.44
2331.613	1265.58
2334.779	1250.35
2337.944	1305.27
2341.109	1315.9
2344.274	1350.41
2347.438	1401.43
2350.602	1403.92
2353.766	1442.59
2356.929	1466.41
2360.092	1454.85
2363.255	1562.31
2366.418	1556
2369.58	1589.93
2372.742	1687.38
2375.904	1732.37
2379.066	1722.4
2382.227	1685.42
2385.388	1830.07
2388.548	1840.83
2391.709	1862.71
2394.869	2078.86
2398.029	1983.6
2401.188	2041.55
2404.347	2027.76
2407.506	1994.65
2410.665	2050.63
2413.823	2178.51
2416.981	2307.92
2420.139	2224.72
2423.296	2197.39
2426.453	2292.21
2429.61	2199.84
2432.767	2309.24
2435.923	2288.02
2439.079	2493.96
2442.235	2526.85
2445.391	2502.2
2448.546	2484.67
2451.701	2414.13
2454.855	2416.45
2458.009	2561.74
2461.163	2661.75
2464.317	2772.3
2467.471	2836.38
2470.624	2836.92
2473.777	2767.69
2476.929	2703.29
2480.082	2626.55
2483.234	2591.83
2486.385	2724.04
2489.537	2736.58
2492.688	2842.02
2495.839	2765.85
2498.989	2701.85
2502.14	2723.1
2505.29	2755.1
2508.439	2790.72
2511.589	2779.61
2514.738	3027.44
2517.887	2966.82
2521.035	3143.55
2524.183	3160
2527.331	3183.06
2530.479	3175.77
2533.627	3196.89
