Data from N_2_DEC_ON_6N_Splice17_13-15-07-438.txt Node
Date: Sat Mar 07 13:15:07 EST 2020
User: sa697716
Spectrometer: NQ5500242
Trigger mode: 0
Integration Time (sec): 1.450000E-1
Scans to average: 20
Nonlinearity correction enabled: false
Boxcar width: 5
Storing dark spectrum: false
XAxis mode: Wavelengths
Number of Pixels in Spectrum: 512
>>>>>Begin Spectral Data<<<<<
187.83	106.56
188.298	115.64
188.766	89.56
189.233	84
189.701	83.97
190.169	86.05
190.636	97.56
191.104	154.29
191.571	86.58
192.039	-138.07
192.506	-435.88
192.974	184.17
193.441	316.19
193.908	81.67
194.375	114.84
194.842	37.4
195.31	58.68
195.777	211.06
196.244	63.7
196.711	49.54
197.177	48.59
197.644	46.69
198.111	46.83
198.578	47.03
199.045	47.28
199.511	46.78
199.978	47.49
200.445	47.74
200.911	47.95
201.378	48
201.844	48.15
202.31	47.97
202.777	48.2
203.243	48.32
203.709	48.22
204.176	48.12
204.642	48.33
205.108	48.41
205.574	48.2
206.04	47.7
206.506	47.47
206.972	47.35
207.438	47.41
207.903	47.14
208.369	46.4
208.835	45.72
209.301	45.19
209.766	44.23
210.232	43.37
210.697	42.51
211.163	42.01
211.628	41.28
212.094	40.53
212.559	39.89
213.024	39.17
213.49	38.85
213.955	38.33
214.42	37.78
214.885	37.4
215.35	36.71
215.815	35.75
216.28	34.23
216.745	32.98
217.21	31.71
217.675	30.45
218.14	29.46
218.604	28.59
219.069	27.84
219.534	27.26
219.998	26.69
220.463	26.22
220.927	25.81
221.392	25.54
221.856	25.2
222.32	24.93
222.785	24.68
223.249	24.44
223.713	24.16
224.177	23.96
224.642	23.73
225.106	23.46
225.57	23.18
226.034	22.98
226.497	22.77
226.961	22.59
227.425	22.37
227.889	22.15
228.353	21.93
228.816	21.73
229.28	21.51
229.744	21.29
230.207	21.08
230.671	20.9
231.134	20.69
231.597	20.5
232.061	20.3
232.524	20.1
232.987	19.93
233.45	19.76
233.914	19.58
234.377	19.39
234.84	19.22
235.303	19.06
235.766	18.9
236.229	18.76
236.691	18.58
237.154	18.43
237.617	18.29
238.08	18.14
238.542	17.99
239.005	17.86
239.468	17.7
239.93	17.57
240.393	17.44
240.855	17.29
241.317	17.14
241.78	17
242.242	16.86
242.704	16.74
243.166	16.62
243.629	16.5
244.091	16.36
244.553	16.25
245.015	16.13
245.477	16.02
245.939	15.91
246.4	15.79
246.862	15.68
247.324	15.58
247.786	15.46
248.247	15.33
248.709	15.22
249.17	15.11
249.632	15.01
250.093	14.91
250.555	14.83
251.016	14.73
251.477	14.64
251.939	14.55
252.4	14.47
252.861	14.38
253.322	14.29
253.783	14.21
254.244	14.13
254.705	14.05
255.166	13.96
255.627	13.86
256.088	13.79
256.549	13.68
257.009	13.59
257.47	13.5
257.931	13.4
258.391	13.33
258.852	13.24
259.312	13.16
259.773	13.07
260.233	13
260.694	12.91
261.154	12.83
261.614	12.77
262.074	12.7
262.534	12.63
262.994	12.58
263.455	12.52
263.915	12.46
264.374	12.41
264.834	12.38
265.294	12.33
265.754	12.3
266.214	12.26
266.673	12.22
267.133	12.19
267.593	12.15
268.052	12.12
268.512	12.08
268.971	12.04
269.431	12.01
269.89	11.96
270.349	11.93
270.809	11.88
271.268	11.84
271.727	11.8
272.186	11.76
272.645	11.73
273.104	11.68
273.563	11.65
274.022	11.6
274.481	11.57
274.94	11.52
275.399	11.48
275.857	11.45
276.316	11.41
276.775	11.38
277.233	11.34
277.692	11.29
278.15	11.25
278.609	11.22
279.067	11.18
279.525	11.14
279.984	11.1
280.442	11.07
280.9	11.04
281.358	11
281.816	10.96
282.274	10.93
282.732	10.9
283.19	10.87
283.648	10.83
284.106	10.79
284.564	10.76
285.021	10.73
285.479	10.69
285.937	10.65
286.394	10.63
286.852	10.6
287.309	10.56
287.767	10.53
288.224	10.5
288.682	10.46
289.139	10.43
289.596	10.4
290.053	10.37
290.511	10.33
290.968	10.3
291.425	10.28
291.882	10.26
292.339	10.23
292.796	10.21
293.252	10.2
293.709	10.18
294.166	10.16
294.623	10.14
295.079	10.12
295.536	10.12
295.992	10.11
296.449	10.09
296.905	10.08
297.362	10.07
297.818	10.05
298.274	10.04
298.731	10.02
299.187	10.01
299.643	9.99
300.099	9.97
300.555	9.95
301.011	9.93
301.467	9.92
301.923	9.91
302.379	9.88
302.835	9.87
303.291	9.86
303.746	9.86
304.202	9.85
304.658	9.85
305.113	9.84
305.569	9.82
306.024	9.81
306.479	9.79
306.935	9.78
307.39	9.78
307.845	9.77
308.301	9.77
308.756	9.76
309.211	9.75
309.666	9.75
310.121	9.75
310.576	9.76
311.031	9.76
311.486	9.76
311.94	9.77
312.395	9.76
312.85	9.77
313.305	9.76
313.759	9.75
314.214	9.76
314.668	9.74
315.123	9.74
315.577	9.72
316.032	9.71
316.486	9.7
316.94	9.69
317.394	9.66
317.849	9.64
318.303	9.62
318.757	9.6
319.211	9.59
319.665	9.59
320.119	9.57
320.572	9.56
321.026	9.55
321.48	9.54
321.934	9.52
322.387	9.52
322.841	9.51
323.295	9.5
323.748	9.49
324.202	9.48
324.655	9.46
325.108	9.45
325.562	9.44
326.015	9.43
326.468	9.41
326.921	9.4
327.374	9.39
327.827	9.39
328.28	9.38
328.733	9.38
329.186	9.37
329.639	9.36
330.092	9.35
330.545	9.35
330.997	9.34
331.45	9.34
331.903	9.34
332.355	9.34
332.808	9.33
333.26	9.33
333.713	9.32
334.165	9.31
334.617	9.31
335.069	9.3
335.522	9.3
335.974	9.3
336.426	9.29
336.878	9.28
337.33	9.27
337.782	9.27
338.234	9.26
338.686	9.26
339.137	9.26
339.589	9.25
340.041	9.24
340.493	9.23
340.944	9.22
341.396	9.21
341.847	9.2
342.299	9.18
342.75	9.17
343.201	9.15
343.653	9.13
344.104	9.11
344.555	9.1
345.006	9.08
345.457	9.07
345.908	9.06
346.359	9.05
346.81	9.05
347.261	9.04
347.712	9.04
348.163	9.03
348.613	9.03
349.064	9.04
349.515	9.04
349.965	9.05
350.416	9.04
350.866	9.04
351.317	9.03
351.767	9.03
352.217	9.03
352.668	9.03
353.118	9.04
353.568	9.04
354.018	9.05
354.468	9.05
354.918	9.06
355.368	9.08
355.818	9.09
356.268	9.09
356.718	9.1
357.168	9.1
357.617	9.11
358.067	9.1
358.517	9.12
358.966	9.12
359.416	9.14
359.865	9.13
360.315	9.14
360.764	9.15
361.213	9.15
361.663	9.15
362.112	9.17
362.561	9.18
363.01	9.18
363.459	9.16
363.908	9.16
364.357	9.16
364.806	9.17
365.255	9.17
365.703	9.18
366.152	9.19
366.601	9.2
367.05	9.2
367.498	9.2
367.947	9.21
368.395	9.22
368.844	9.23
369.292	9.22
369.74	9.23
370.189	9.23
370.637	9.23
371.085	9.22
371.533	9.22
371.981	9.23
372.429	9.25
372.877	9.26
373.325	9.28
373.773	9.29
374.221	9.3
374.669	9.32
375.116	9.32
375.564	9.33
376.012	9.36
376.459	9.38
376.907	9.41
377.354	9.42
377.801	9.44
378.249	9.46
378.696	9.47
379.143	9.5
379.591	9.52
380.038	9.55
380.485	9.57
380.932	9.58
381.379	9.6
381.826	9.62
382.273	9.63
382.72	9.64
383.166	9.65
383.613	9.66
384.06	9.67
384.506	9.69
384.953	9.72
385.4	9.75
385.846	9.78
386.292	9.79
386.739	9.8
387.185	9.83
387.631	9.85
388.078	9.88
388.524	9.91
388.97	9.94
389.416	9.97
389.862	9.99
390.308	10.02
390.754	10.05
391.2	10.09
391.645	10.13
392.091	10.17
392.537	10.2
392.983	10.22
393.428	10.25
393.874	10.27
394.319	10.3
394.765	10.32
395.21	10.33
395.655	10.36
396.101	10.39
396.546	10.4
396.991	10.42
397.436	10.45
397.881	10.48
398.326	10.5
398.771	10.53
399.216	10.55
399.661	10.58
400.106	10.59
400.551	10.61
400.995	10.61
401.44	10.61
401.885	10.62
402.329	10.63
402.774	10.64
403.218	10.66
403.663	10.68
404.107	10.68
404.551	10.7
404.995	10.71
405.44	10.72
405.884	10.72
406.328	10.73
406.772	10.74
407.216	10.75
407.66	10.76
408.104	10.75
408.547	10.74
408.991	10.76
409.435	10.75
409.879	10.76
410.322	10.77
410.766	10.79
411.209	10.82
411.653	10.83
412.096	10.84
412.54	10.84
412.983	10.85
413.426	10.89
413.869	10.91
414.312	10.94
414.756	10.95
415.199	10.96
415.642	10.96
416.085	10.95
416.527	10.94
416.97	10.93
417.413	10.93
417.856	10.94
418.298	10.92
418.741	10.9
419.184	10.88
419.626	10.86
420.069	10.87
420.511	10.88
420.953	10.87
421.396	10.88
421.838	10.89
422.28	10.89
422.722	10.9
423.164	10.9
423.606	10.89
424.048	10.9
424.49	10.9
424.932	10.89
425.374	10.86
425.816	10.83
426.258	10.81
426.699	10.78
427.141	10.78
427.582	10.79
428.024	10.79
428.465	10.79
428.907	10.78
429.348	10.77
429.789	10.77
430.231	10.81
430.672	10.83
431.113	10.85
431.554	10.86
431.995	10.87
432.436	10.85
432.877	10.87
433.318	10.88
433.759	10.89
434.2	10.91
434.64	10.91
435.081	10.91
435.522	10.92
435.962	10.95
436.403	10.97
436.843	10.98
437.284	10.99
437.724	10.98
438.164	10.98
438.604	11
439.045	10.97
439.485	10.99
439.925	10.99
440.365	10.98
440.805	10.98
441.245	10.97
441.685	10.99
442.125	11.02
442.564	11.04
443.004	11.05
443.444	11.06
443.883	11.11
444.323	11.11
444.762	11.14
445.202	11.18
445.641	11.22
446.081	11.24
446.52	11.24
446.959	11.26
447.398	11.29
447.837	11.31
448.276	11.34
448.716	11.38
449.154	11.42
449.593	11.45
450.032	11.48
450.471	11.49
450.91	11.49
451.349	11.53
451.787	11.52
452.226	11.53
452.664	11.54
453.103	11.53
453.541	11.52
453.98	11.52
454.418	11.51
454.856	11.5
455.295	11.47
455.733	11.47
456.171	11.47
456.609	11.48
457.047	11.46
457.485	11.44
457.923	11.44
458.361	11.43
458.798	11.43
459.236	11.42
459.674	11.43
460.111	11.43
460.549	11.45
460.987	11.45
461.424	11.45
461.862	11.45
462.299	11.46
462.736	11.46
463.173	11.45
463.611	11.45
464.048	11.44
464.485	11.42
464.922	11.42
465.359	11.42
465.796	11.41
466.233	11.39
466.67	11.38
467.106	11.4
467.543	11.39
467.98	11.4
468.416	11.39
468.853	11.38
469.29	11.39
469.726	11.39
470.162	11.39
470.599	11.38
471.035	11.39
471.471	11.4
471.907	11.39
472.344	11.41
472.78	11.41
473.216	11.41
473.652	11.43
474.088	11.41
474.523	11.42
474.959	11.4
475.395	11.39
475.831	11.38
476.266	11.38
476.702	11.36
477.138	11.35
477.573	11.35
478.008	11.35
478.444	11.33
478.879	11.34
479.314	11.34
479.75	11.33
480.185	11.32
480.62	11.32
481.055	11.3
481.49	11.29
481.925	11.29
482.36	11.29
482.795	11.29
483.229	11.29
483.664	11.29
484.099	11.28
484.534	11.29
484.968	11.31
485.403	11.32
485.837	11.34
486.271	11.36
486.706	11.37
487.14	11.38
487.574	11.4
488.009	11.43
488.443	11.45
488.877	11.49
489.311	11.52
489.745	11.55
490.179	11.6
490.613	11.65
491.046	11.7
491.48	11.74
491.914	11.8
492.348	11.85
492.781	11.9
493.215	11.97
493.648	12.02
494.082	12.08
494.515	12.14
494.948	12.21
495.382	12.27
495.815	12.35
496.248	12.43
496.681	12.51
497.114	12.61
497.547	12.69
497.98	12.8
498.413	12.89
498.846	12.99
499.279	13.1
499.711	13.22
500.144	13.35
500.577	13.47
501.009	13.58
501.442	13.71
501.874	13.84
502.306	13.98
502.739	14.14
503.171	14.3
503.603	14.46
504.036	14.62
504.468	14.78
504.9	14.94
505.332	15.13
505.764	15.32
506.196	15.51
506.627	15.71
507.059	15.91
507.491	16.11
507.923	16.33
508.354	16.56
508.786	16.8
509.217	17.05
509.649	17.29
510.08	17.53
510.512	17.79
510.943	18.05
511.374	18.31
511.805	18.58
512.237	18.83
512.668	19.09
513.099	19.35
513.53	19.62
513.961	19.9
514.391	20.18
514.822	20.48
515.253	20.76
515.684	21.05
516.114	21.35
516.545	21.62
516.975	21.93
517.406	22.22
517.836	22.5
518.267	22.79
518.697	23.07
519.127	23.33
519.558	23.6
519.988	23.88
520.418	24.14
520.848	24.39
521.278	24.65
521.708	24.97
522.138	25.21
522.567	25.46
522.997	25.68
523.427	25.92
523.857	26.15
524.286	26.36
524.716	26.56
525.145	26.76
525.575	26.96
526.004	27.16
526.433	27.26
526.863	27.45
527.292	27.63
527.721	27.78
528.15	27.94
528.579	28.08
529.008	28.24
529.437	28.37
529.866	28.48
530.295	28.61
530.724	28.75
531.152	28.88
531.581	28.99
532.01	29.09
532.438	29.21
532.867	29.31
533.295	29.38
533.723	29.46
534.152	29.54
534.58	29.63
535.008	29.68
535.436	29.74
535.865	29.79
536.293	29.83
536.721	29.88
537.149	29.92
537.576	29.97
538.004	30.04
538.432	30.1
538.86	30.13
539.287	30.17
539.715	30.21
540.143	30.23
540.57	30.25
540.998	30.28
541.425	30.3
541.852	30.32
542.28	30.35
542.707	30.35
543.134	30.36
543.561	30.39
543.988	30.42
544.415	30.44
544.842	30.45
545.269	30.49
545.696	30.51
546.123	30.52
546.549	30.54
546.976	30.57
547.403	30.57
547.829	30.58
548.256	30.61
548.682	30.6
549.108	30.63
549.535	30.66
549.961	30.66
550.387	30.66
550.813	30.67
551.24	30.66
551.666	30.63
552.092	30.62
552.518	30.62
552.943	30.59
553.369	30.6
553.795	30.55
554.221	30.51
554.646	30.47
555.072	30.42
555.498	30.38
555.923	30.34
556.349	30.29
556.774	30.23
557.199	30.15
557.625	30.1
558.05	30.02
558.475	29.96
558.9	29.88
559.325	29.83
559.75	29.75
560.175	29.67
560.6	29.58
561.025	29.51
561.449	29.42
561.874	29.34
562.299	29.23
562.723	29.12
563.148	29
563.572	28.88
563.997	28.75
564.421	28.63
564.846	28.52
565.27	28.38
565.694	28.24
566.118	28.09
566.542	27.95
566.966	27.81
567.39	27.68
567.814	27.53
568.238	27.39
568.662	27.26
569.086	27.12
569.509	26.98
569.933	26.84
570.357	26.69
570.78	26.55
571.204	26.41
571.627	26.27
572.05	26.13
572.474	26.02
572.897	25.9
573.32	25.77
573.743	25.63
574.166	25.51
574.589	25.39
575.012	25.28
575.435	25.18
575.858	25.06
576.281	24.95
576.704	24.84
577.126	24.72
577.549	24.61
577.972	24.5
578.394	24.41
578.817	24.31
579.239	24.2
579.661	24.11
580.084	24.01
580.506	23.93
580.928	23.85
581.35	23.76
581.772	23.68
582.194	23.6
582.616	23.53
583.038	23.43
583.46	23.35
583.882	23.28
584.303	23.21
584.725	23.12
585.147	23.06
585.568	22.98
585.99	22.9
586.411	22.82
586.833	22.76
587.254	22.68
587.675	22.61
588.096	22.55
588.518	22.5
588.939	22.44
589.36	22.39
589.781	22.33
590.202	22.29
590.623	22.26
591.043	22.22
591.464	22.17
591.885	22.13
592.305	22.1
592.726	22.07
593.147	22.05
593.567	22.01
593.987	22
594.408	21.96
594.828	21.92
595.248	21.9
595.669	21.88
596.089	21.85
596.509	21.83
596.929	21.8
597.349	21.77
597.769	21.74
598.189	21.69
598.608	21.66
599.028	21.63
599.448	21.59
599.867	21.54
600.287	21.52
600.706	21.47
601.126	21.44
601.545	21.41
601.965	21.36
602.384	21.31
602.803	21.27
603.222	21.21
603.641	21.16
604.061	21.11
604.48	21.03
604.898	20.96
605.317	20.89
605.736	20.82
606.155	20.75
606.574	20.67
606.992	20.59
607.411	20.52
607.829	20.42
608.248	20.34
608.666	20.25
609.085	20.19
609.503	20.11
609.921	20.04
610.339	19.94
610.758	19.86
611.176	19.78
611.594	19.7
612.012	19.61
612.43	19.55
612.847	19.48
613.265	19.4
613.683	19.32
614.101	19.24
614.518	19.16
614.936	19.09
615.353	19
615.771	18.94
616.188	18.86
616.606	18.8
617.023	18.73
617.44	18.67
617.857	18.62
618.274	18.56
618.691	18.5
619.108	18.44
619.525	18.38
619.942	18.34
620.359	18.3
620.776	18.25
621.192	18.22
621.609	18.19
622.026	18.16
622.442	18.13
622.859	18.1
623.275	18.08
623.691	18.05
624.108	18.04
624.524	18.01
624.94	18
625.356	17.99
625.772	17.97
626.188	17.95
626.604	17.94
627.02	17.92
627.436	17.91
627.852	17.9
628.268	17.91
628.683	17.89
629.099	17.89
629.514	17.87
629.93	17.86
630.345	17.82
630.761	17.78
631.176	17.76
631.591	17.73
632.007	17.69
632.422	17.65
632.837	17.58
633.252	17.52
633.667	17.45
634.082	17.38
634.497	17.31
634.911	17.23
635.326	17.16
635.741	17.07
636.155	16.98
636.57	16.88
636.984	16.79
637.399	16.7
637.813	16.59
638.228	16.49
638.642	16.39
639.056	16.27
639.47	16.18
639.884	16.05
640.298	15.92
640.712	15.81
641.126	15.68
641.54	15.56
641.954	15.43
642.368	15.3
642.781	15.19
643.195	15.07
643.609	14.95
644.022	14.83
644.436	14.73
644.849	14.63
645.262	14.52
645.676	14.43
646.089	14.35
646.502	14.27
646.915	14.21
647.328	14.13
647.741	14.08
648.154	14.02
648.567	13.96
648.98	13.9
649.393	13.86
649.805	13.82
650.218	13.77
650.631	13.73
651.043	13.7
651.456	13.66
651.868	13.62
652.28	13.56
652.693	13.52
653.105	13.48
653.517	13.42
653.929	13.36
654.341	13.3
654.753	13.23
655.165	13.17
655.577	13.1
655.989	13.03
656.401	12.94
656.813	12.86
657.224	12.76
657.636	12.67
658.047	12.6
658.459	12.51
658.87	12.42
659.282	12.33
659.693	12.22
660.104	12.12
660.515	12.01
660.926	11.92
661.338	11.84
661.749	11.75
662.159	11.65
662.57	11.57
662.981	11.49
663.392	11.42
663.803	11.34
664.213	11.26
664.624	11.2
665.035	11.14
665.445	11.08
665.855	11.02
666.266	10.98
666.676	10.94
667.086	10.88
667.497	10.84
667.907	10.81
668.317	10.78
668.727	10.75
669.137	10.72
669.547	10.69
669.956	10.67
670.366	10.65
670.776	10.64
671.186	10.62
671.595	10.61
672.005	10.58
672.414	10.58
672.824	10.58
673.233	10.59
673.642	10.6
674.052	10.61
674.461	10.63
674.87	10.63
675.279	10.65
675.688	10.67
676.097	10.69
676.506	10.74
676.915	10.76
677.323	10.79
677.732	10.81
678.141	10.85
678.549	10.89
678.958	10.93
679.366	10.99
679.775	11.05
680.183	11.14
680.592	11.22
681	11.31
681.408	11.41
681.816	11.53
682.224	11.66
682.632	11.8
683.04	11.94
683.448	12.12
683.856	12.3
684.264	12.48
684.671	12.68
685.079	12.91
685.487	13.16
685.894	13.44
686.302	13.73
686.709	14.03
687.116	14.37
687.524	14.74
687.931	15.11
688.338	15.51
688.745	15.94
689.152	16.38
689.559	16.84
689.966	17.33
690.373	17.82
690.78	18.34
691.187	18.87
691.593	19.4
692	19.92
692.407	20.46
692.813	21.02
693.22	21.56
693.626	22.13
694.032	22.7
694.439	23.25
694.845	23.81
695.251	24.37
695.657	24.93
696.063	25.49
696.469	26.05
696.875	26.6
697.281	27.13
697.687	27.68
698.093	28.21
698.498	28.73
698.904	29.27
699.31	29.77
699.715	30.27
700.12	30.76
700.526	31.24
700.931	31.73
701.337	32.19
701.742	32.66
702.147	33.11
702.552	33.55
702.957	33.96
703.362	34.36
703.767	34.75
704.172	35.14
704.577	35.52
704.981	35.9
705.386	36.25
705.791	36.6
706.195	36.94
706.6	37.28
707.004	37.6
707.408	37.93
707.813	38.27
708.217	38.58
708.621	38.92
709.025	39.22
709.43	39.52
709.834	39.83
710.237	40.13
710.641	40.42
711.045	40.72
711.449	41.01
711.853	41.32
712.256	41.58
712.66	41.86
713.064	42.09
713.467	42.37
713.87	42.62
714.274	42.85
714.677	43.11
715.08	43.34
715.484	43.59
715.887	43.85
716.29	44.05
716.693	44.27
717.096	44.5
717.499	44.73
717.901	44.91
718.304	45.12
718.707	45.33
719.109	45.52
719.512	45.71
719.915	45.88
720.317	46.04
720.719	46.18
721.122	46.37
721.524	46.51
721.926	46.68
722.328	46.86
722.731	47.01
723.133	47.17
723.535	47.32
723.937	47.47
724.338	47.6
724.74	47.74
725.142	48
725.544	48.09
725.945	48.23
726.347	48.33
726.748	48.43
727.15	48.54
727.551	48.66
727.952	48.74
728.354	48.83
728.755	48.91
729.156	49
729.557	48.96
729.958	49.07
730.359	49.14
730.76	49.21
731.161	49.26
731.562	49.36
731.962	49.39
732.363	49.46
732.763	49.54
733.164	49.62
733.564	49.69
733.965	49.76
734.365	49.81
734.766	49.89
735.166	49.95
735.566	50.02
735.966	50.08
736.366	50.16
736.766	50.19
737.166	50.21
737.566	50.26
737.966	50.28
738.365	50.32
738.765	50.36
739.165	50.38
739.564	50.41
739.964	50.43
740.363	50.41
740.763	50.42
741.162	50.44
741.561	50.44
741.96	50.44
742.36	50.45
742.759	50.5
743.158	50.52
743.557	50.53
743.955	50.57
744.354	50.58
744.753	50.65
745.152	50.69
745.55	50.73
745.949	50.78
746.348	50.83
746.746	50.84
747.144	50.85
747.543	50.85
747.941	50.87
748.339	50.86
748.737	50.88
749.136	50.87
749.534	50.85
749.932	50.84
750.33	50.84
750.727	50.83
751.125	50.85
751.523	50.83
751.921	50.84
752.318	50.84
752.716	50.86
753.113	50.88
753.511	50.9
753.908	50.93
754.305	50.95
754.703	50.95
755.1	50.96
755.497	50.96
755.894	50.98
756.291	50.99
756.688	50.99
757.085	50.98
757.482	50.97
757.878	50.99
758.275	50.96
758.672	50.98
759.068	51.02
759.465	51.01
759.861	51.03
760.258	51.03
760.654	51.04
761.05	51.06
761.447	51.07
761.843	51.07
762.239	51.03
762.635	51.05
763.031	51.02
763.427	50.97
763.822	50.97
764.218	50.97
764.614	50.95
765.01	50.93
765.405	50.91
765.801	50.87
766.196	50.86
766.592	50.85
766.987	50.82
767.382	50.8
767.778	50.82
768.173	50.83
768.568	50.8
768.963	50.81
769.358	50.8
769.753	50.81
770.148	50.84
770.542	50.86
770.937	50.88
771.332	50.9
771.726	50.92
772.121	50.9
772.515	50.9
772.91	50.9
773.304	50.91
773.699	50.93
774.093	50.91
774.487	50.89
774.881	50.9
775.275	50.91
775.669	50.91
776.063	50.9
776.457	50.89
776.851	50.87
777.245	50.85
777.638	50.84
778.032	50.85
778.425	50.89
778.819	50.9
779.212	50.91
779.606	50.89
779.999	50.89
780.392	50.92
780.786	50.94
781.179	50.96
781.572	51.01
781.965	51.02
782.358	51
782.751	50.96
783.143	50.98
783.536	50.97
783.929	50.96
784.322	50.97
784.714	50.96
785.107	50.98
785.499	50.98
785.891	50.98
786.284	50.99
786.676	51
787.068	51.01
787.46	51.02
787.852	51.01
788.245	51.02
788.636	51.02
789.028	51
789.42	50.98
789.812	51
790.204	51.02
790.595	51.02
790.987	51.01
791.378	51.03
791.77	51.02
792.161	51.01
792.553	51.01
792.944	50.99
793.335	51.04
793.726	51.04
794.117	51
794.508	50.95
794.899	50.95
795.29	50.96
795.681	50.93
796.072	50.92
796.463	50.96
796.853	50.95
797.244	50.96
797.634	50.95
798.025	50.99
798.415	51.01
798.806	51.03
799.196	51.03
799.586	51.04
799.976	51.06
800.366	51.07
800.756	51.06
801.146	51.08
801.536	51.07
801.926	51.05
802.316	51.02
802.706	51.05
803.095	51.05
803.485	51.03
803.874	51.05
804.264	51.05
804.653	51.08
805.043	51.07
805.432	51.08
805.821	51.09
806.21	51.11
806.599	51.12
806.988	51.12
807.377	51.12
807.766	51.13
808.155	51.1
808.544	51.09
808.933	51.09
809.321	51.09
809.71	51.08
810.098	51.07
810.487	51.02
810.875	51
811.264	50.99
811.652	51
812.04	51.01
812.428	51.05
812.816	51.06
813.204	51.02
813.592	51.02
813.98	51.06
814.368	51.08
814.756	51.11
815.144	51.09
815.531	51.08
815.919	51.05
816.306	51.05
816.694	51.02
817.081	51.03
817.469	51.06
817.856	51.03
818.243	51
818.63	50.97
819.017	50.98
819.404	51.02
819.791	51.03
820.178	51.04
820.565	51.06
820.952	51.05
821.339	51.03
821.725	51.02
822.112	51.06
822.498	51.08
822.885	51.1
823.271	51.1
823.657	51.07
824.044	51.08
824.43	51.1
824.816	51.09
825.202	51.09
825.588	51.09
825.974	51.08
826.36	51.07
826.746	51.03
827.132	51.02
827.517	51.01
827.903	51.04
828.289	51.03
828.674	51.02
829.06	51.01
829.445	51
829.83	51.01
830.216	51
830.601	51.02
830.986	51.05
831.371	51.06
831.756	51.06
832.141	51.07
832.526	51.08
832.911	51.08
833.295	51.09
833.68	51.11
834.065	51.11
834.449	51.11
834.834	51.11
835.218	51.12
835.603	51.1
835.987	51.06
836.371	51.04
836.755	51
837.139	50.98
837.524	50.99
837.908	50.99
838.291	51
838.675	51
839.059	50.99
839.443	50.97
839.827	50.97
840.21	51.01
840.594	51.02
840.977	51.04
841.361	51.05
841.744	51.03
842.127	51
842.511	50.99
842.894	50.98
843.277	50.97
843.66	50.94
844.043	50.94
844.426	50.95
844.809	50.94
845.191	50.94
845.574	50.95
845.957	50.97
846.339	50.97
846.722	50.99
847.104	51.02
847.487	51.01
847.869	51.04
848.252	51.06
848.634	51.05
849.016	51.06
849.398	51.08
849.78	51.09
850.162	51.08
850.544	51.09
850.926	51.09
851.307	51.07
851.689	51.09
852.071	51.09
852.452	51.08
852.834	51.11
853.215	51.11
853.597	51.09
853.978	51.09
854.359	51.09
854.741	51.1
855.122	51.1
855.503	51.08
855.884	51.08
856.265	51.07
856.646	51.06
857.026	51.06
857.407	51.06
857.788	51.06
858.169	51.07
858.549	51.07
858.93	51.07
859.31	51.08
859.69	51.1
860.071	51.11
860.451	51.1
860.831	51.11
861.211	51.08
861.591	51.07
861.971	51.07
862.351	51.07
862.731	51.06
863.111	51.05
863.491	51.06
863.87	51.05
864.25	51.04
864.629	51.05
865.009	51.05
865.388	51.04
865.768	51.06
866.147	51.06
866.526	51.05
866.905	51.04
867.284	51.03
867.663	51.02
868.042	51.02
868.421	51.04
868.8	51.04
869.179	51.06
869.558	51.08
869.936	51.06
870.315	51.04
870.693	51.06
871.072	51.08
871.45	51.11
871.828	51.11
872.207	51.11
872.585	51.1
872.963	51.1
873.341	51.08
873.719	51.08
874.097	51.06
874.475	51.09
874.853	51.08
875.23	51.08
875.608	51.07
875.986	51.08
876.363	51.09
876.741	51.11
877.118	51.11
877.495	51.12
877.873	51.12
878.25	51.17
878.627	51.17
879.004	51.18
879.381	51.16
879.758	51.12
880.135	51.1
880.512	51.07
880.889	51.06
881.265	51.04
881.642	51.03
882.019	51.04
882.395	50.98
882.772	50.96
883.148	50.93
883.524	50.94
883.901	50.95
884.277	50.97
884.653	50.97
885.029	50.96
885.405	50.97
885.781	50.97
886.157	50.96
886.532	50.97
886.908	50.97
887.284	50.99
887.659	50.96
888.035	50.96
888.411	50.92
888.786	50.94
889.161	50.94
889.537	50.94
889.912	50.93
890.287	50.91
890.662	50.91
891.037	50.92
891.412	50.9
891.787	50.89
892.162	50.89
892.536	50.89
892.911	50.88
893.286	50.87
893.66	50.88
894.035	50.88
894.409	50.89
894.784	50.91
895.158	50.91
895.532	50.91
895.906	50.92
896.281	50.92
896.655	50.93
897.029	50.94
897.402	50.93
897.776	50.95
898.15	50.96
898.524	50.99
898.898	50.97
899.271	50.96
899.645	51
900.018	51.02
900.392	51.03
900.765	51.06
901.138	51.05
901.511	51.07
901.884	51.06
902.258	51.07
902.631	51.05
903.003	51.08
903.376	51.07
903.749	51.06
904.122	51.05
904.495	51.05
904.867	51.04
905.24	51.07
905.612	51.09
905.985	51.07
906.357	51.05
906.729	51.05
907.102	51.03
907.474	51.06
907.846	51.06
908.218	51.07
908.59	51.09
908.962	51.1
909.334	51.08
909.705	51.06
910.077	51.08
910.449	51.08
910.82	51.07
911.192	51.09
911.563	51.08
911.935	51.08
912.306	51.09
912.677	51.09
913.048	51.11
913.419	51.09
913.79	51.09
914.161	51.09
914.532	51.06
914.903	51.09
915.274	51.09
915.645	51.1
916.015	51.08
916.386	51.06
916.756	51.05
917.127	51.02
917.497	51.06
917.868	51.05
918.238	51.05
918.608	51.08
918.978	51.08
919.348	51.08
919.718	51.09
920.088	51.1
920.458	51.1
920.828	51.06
921.198	51.06
921.567	51.06
921.937	51.07
922.306	51.06
922.676	51.05
923.045	51.03
923.415	51
923.784	50.95
924.153	50.96
924.522	50.98
924.891	50.98
925.26	51
925.629	50.99
925.998	51.01
926.367	51.02
926.736	51.04
927.104	51.03
927.473	51.02
927.842	51
928.21	51.02
928.578	50.98
928.947	51.01
929.315	50.99
929.683	51
930.051	50.93
930.42	50.92
930.788	50.84
931.156	50.84
931.523	50.85
931.891	50.9
932.259	50.89
932.627	50.89
932.994	50.86
933.362	50.83
933.729	50.82
934.097	50.83
934.464	50.83
934.831	50.87
935.199	50.84
935.566	50.84
935.933	50.8
936.3	50.74
936.667	50.73
937.034	50.75
937.401	50.78
937.767	50.77
938.134	50.79
938.501	50.8
938.867	50.83
939.234	50.86
939.6	50.84
939.967	50.86
940.333	50.88
940.699	50.95
941.065	50.89
941.431	50.91
941.798	50.89
942.163	50.87
942.529	50.87
942.895	50.84
943.261	50.85
943.627	50.86
943.992	50.84
944.358	50.83
944.723	50.78
945.089	50.74
945.454	50.75
945.82	50.77
946.185	50.8
946.55	50.72
946.915	50.68
947.28	50.62
947.645	50.65
948.01	50.69
948.375	50.68
948.74	50.66
949.104	50.74
949.469	50.69
949.834	50.6
950.198	50.55
950.562	50.54
950.927	50.51
951.291	50.45
951.655	50.35
952.02	50.26
952.384	50.23
952.748	50.19
953.112	50.1
953.476	50.06
953.839	50.02
954.203	50.01
954.567	50.01
954.931	49.96
955.294	50
955.658	50.06
956.021	50.07
956.385	50.05
956.748	50
957.111	49.99
957.474	49.98
957.837	49.97
958.2	49.93
958.563	49.93
958.926	49.91
959.289	49.88
959.652	49.83
960.015	49.77
960.377	49.74
960.74	49.79
961.102	49.8
961.465	49.83
961.827	49.89
962.189	49.86
962.552	49.83
962.914	49.86
963.276	49.9
963.638	49.93
964	49.96
964.362	50.05
964.724	50
965.085	50
965.447	49.94
965.809	49.89
966.17	49.93
966.532	49.98
966.893	50.02
967.255	50.01
967.616	50
967.977	49.99
968.338	49.93
968.699	49.95
969.061	49.95
969.421	50
969.782	50.03
970.143	50.04
970.504	50.03
970.865	50.02
971.225	50
971.586	49.92
971.946	49.92
972.307	49.89
972.667	49.84
973.027	49.86
973.388	49.81
973.748	49.77
974.108	49.8
974.468	49.74
974.828	49.76
975.188	49.72
975.548	49.77
975.907	49.84
976.267	49.88
976.627	49.91
976.986	49.87
977.346	49.87
977.705	49.84
978.064	49.78
978.424	49.8
978.783	49.73
979.142	49.72
979.501	49.72
979.86	49.68
980.219	49.68
980.578	49.68
980.937	49.7
981.296	49.68
981.654	49.7
982.013	49.69
982.371	49.69
982.73	49.74
983.088	49.68
983.447	49.65
983.805	49.57
984.163	49.57
984.521	49.53
984.879	49.45
985.237	49.47
985.595	49.51
985.953	49.56
986.311	49.48
986.669	49.47
987.026	49.54
987.384	49.57
987.741	49.57
988.099	49.61
988.456	49.61
988.814	49.66
989.171	49.65
989.528	49.67
989.885	49.65
990.242	49.7
990.599	49.77
990.956	49.84
991.313	49.84
991.67	49.85
992.027	49.95
992.383	50
992.74	50.06
993.096	50.08
993.453	50.02
993.809	49.98
994.165	50
994.522	50.04
994.878	49.98
995.234	50.04
995.59	50.04
995.946	49.9
996.302	49.88
996.658	49.85
997.013	49.84
997.369	49.91
997.725	49.99
998.08	50.1
998.436	49.96
998.791	50.03
999.147	50.04
999.502	50.09
999.857	50.06
1000.212	50.03
1000.567	50.07
1000.922	50
1001.277	49.98
1001.632	49.89
1001.987	49.84
1002.342	49.98
1002.696	49.9
1003.051	49.88
1003.406	49.93
1003.76	50.05
1004.114	50.12
1004.469	50.12
1004.823	50.42
1005.177	50.41
1005.531	50.55
1005.885	50.55
1006.239	50.46
1006.593	50.52
1006.947	50.52
1007.301	50.4
1007.655	50.34
1008.008	50.29
1008.362	50.36
1008.715	50.15
1009.069	50.26
1009.422	50.2
1009.776	50.07
1010.129	50.08
1010.482	50.01
1010.835	50.06
1011.188	50.1
1011.541	50.11
1011.894	50.28
1012.247	50.24
1012.6	50.17
1012.952	50.03
1013.305	50
1013.657	50.22
1014.01	50.36
1014.362	50.39
1014.715	50.46
1015.067	50.7
1015.419	50.77
1015.771	50.62
1016.123	50.69
1016.475	50.82
1016.827	50.78
1017.179	51.01
1017.531	50.95
1017.883	50.88
1018.234	50.93
1018.586	50.93
1018.938	50.97
1019.289	50.83
1019.64	51.01
1019.992	50.9
1020.343	50.81
1020.694	51
1021.045	50.84
1021.396	50.99
1021.747	51.03
1022.098	51
1022.449	50.81
1022.8	50.7
1023.151	50.83
1023.501	50.94
1023.852	51.25
1024.202	51.48
1024.553	51.53
1024.903	51.86
1025.253	51.83
1025.604	51.86
1025.954	51.76
1026.304	51.8
1026.654	51.91
1027.004	51.92
1027.354	51.67
1027.703	51.45
1028.053	51.59
1028.403	51.62
1028.753	51.03
1029.102	51.22
1029.452	51.36
1029.801	51.83
1030.15	52.01
1030.499	51.91
897.758	1310.02
901.051	1319.12
904.343	1312.31
907.636	1338.43
910.928	1297.29
914.22	1297.15
917.511	1275.89
920.803	1223.42
924.094	1220.73
927.384	1191.15
930.675	1145.95
933.965	1137.78
937.255	1070.12
940.544	1029.37
943.834	977.07
947.123	971.68
950.411	913.35
953.7	894.71
956.988	847.18
960.276	811.63
963.563	799.74
966.851	769.18
970.138	764.73
973.424	740.54
976.711	742.96
979.997	707.85
983.283	705.57
986.568	691.17
989.853	669.41
993.138	657.9
996.423	631.72
999.708	614.11
1002.992	609.02
1006.275	580.95
1009.559	576.02
1012.842	555.76
1016.125	540.62
1019.408	529.46
1022.69	522.96
1025.972	512.42
1029.254	500.54
1032.536	492.81
1035.817	481.61
1039.098	475.08
1042.379	465.91
1045.659	460.53
1048.939	448.88
1052.219	439.77
1055.498	433.22
1058.778	423.7
1062.057	413.81
1065.335	409.05
1068.614	404.17
1071.892	400.53
1075.17	386.64
1078.447	378.96
1081.724	376.49
1085.001	374.39
1088.278	367.23
1091.554	360.22
1094.83	360.4
1098.106	358.39
1101.382	355.37
1104.657	353.05
1107.932	347.28
1111.206	350.31
1114.481	341.54
1117.755	337.83
1121.029	335.02
1124.302	334.18
1127.575	327.68
1130.848	323.55
1134.121	320.39
1137.393	317.94
1140.665	311.92
1143.937	309.94
1147.208	308.27
1150.48	307.54
1153.75	304
1157.021	299.27
1160.291	299.53
1163.561	296.93
1166.831	296.62
1170.101	294.22
1173.37	293.62
1176.639	294
1179.907	291.02
1183.176	286.61
1186.444	287.92
1189.711	286.62
1192.979	286.16
1196.246	284.56
1199.513	284.71
1202.78	283.02
1206.046	283.4
1209.312	280.07
1212.578	280.23
1215.843	282.98
1219.108	282.18
1222.373	286.57
1225.638	289.1
1228.902	292.84
1232.166	293.32
1235.43	296.66
1238.693	299.8
1241.956	300.99
1245.219	306.72
1248.482	306.71
1251.744	306.41
1255.006	306.56
1258.268	299.51
1261.529	296.9
1264.79	294.91
1268.051	292.88
1271.312	288.88
1274.572	285.49
1277.832	283.54
1281.092	278.42
1284.351	275.88
1287.61	275.98
1290.869	272.63
1294.128	270.56
1297.386	271.07
1300.644	267.92
1303.902	268.47
1307.159	267.99
1310.416	268.33
1313.673	267.48
1316.93	270.43
1320.186	270.39
1323.442	270.88
1326.697	274.95
1329.953	275.98
1333.208	276.73
1336.463	280.09
1339.717	280.67
1342.972	284.01
1346.226	287.12
1349.479	287.19
1352.733	288.84
1355.986	290.89
1359.238	290.63
1362.491	292.46
1365.743	294.84
1368.995	294.68
1372.247	294.29
1375.498	294.32
1378.749	295.9
1382	292.26
1385.251	292.98
1388.501	291.97
1391.751	292.6
1395	291.84
1398.25	289.67
1401.499	288.65
1404.748	288.32
1407.996	285.78
1411.244	284.51
1414.492	282.87
1417.74	280.24
1420.987	276.62
1424.234	276.7
1427.481	272.72
1430.728	272.26
1433.974	270.28
1437.22	267.5
1440.465	266.95
1443.711	265.18
1446.956	263.76
1450.201	260.45
1453.445	258.07
1456.689	257.58
1459.933	251.92
1463.177	250.59
1466.42	246.51
1469.663	243.47
1472.906	242.47
1476.148	236.24
1479.391	233.91
1482.633	231.46
1485.874	227.92
1489.115	226.7
1492.356	223.81
1495.597	224.43
1498.838	220.51
1502.078	219.52
1505.318	218.32
1508.557	217.89
1511.797	217.89
1515.036	216.11
1518.274	215.47
1521.513	213.72
1524.751	213.73
1527.989	213.33
1531.227	211.65
1534.464	212.49
1537.701	210.91
1540.938	210.42
1544.174	207.9
1547.41	207.58
1550.646	206.6
1553.882	206.44
1557.117	203.97
1560.352	202.65
1563.587	201.86
1566.821	200.29
1570.055	198.67
1573.289	197.09
1576.523	196.87
1579.756	195.9
1582.989	194.15
1586.222	193.95
1589.454	192.54
1592.686	194.4
1595.918	192.99
1599.15	192.67
1602.381	193.08
1605.612	192.68
1608.843	193.52
1612.073	193.21
1615.303	193.74
1618.533	194.16
1621.762	194.01
1624.992	194.62
1628.221	194.02
1631.449	194.27
1634.678	193.55
1637.906	194.68
1641.134	194.67
1644.361	194.14
1647.588	195.05
1650.815	194.12
1654.042	193.48
1657.269	194.8
1660.495	194.92
1663.72	193.77
1666.946	194.62
1670.171	195.3
1673.396	194.77
1676.621	194.71
1679.845	195.18
1683.069	194.59
1686.293	196.16
1689.517	197.67
1692.74	197.03
1695.963	197.33
1699.185	199.68
1702.408	199.21
1705.63	199.78
1708.852	200.15
1712.073	200.63
1715.294	201.09
1718.515	202.33
1721.736	201.9
1724.956	202.11
1728.176	202.37
1731.396	204.73
1734.616	203.61
1737.835	204.87
1741.054	203.65
1744.272	204.33
1747.491	206.37
1750.709	206.52
1753.927	206.52
1757.144	205.63
1760.361	206.61
1763.578	207.12
1766.795	206.17
1770.011	208.04
1773.227	207.48
1776.443	210.3
1779.658	211.53
1782.874	210.99
1786.089	211.75
1789.303	212.38
1792.518	215.69
1795.732	215.69
1798.945	217.38
1802.159	217.65
1805.372	218.19
1808.585	222.64
1811.797	222.71
1815.01	222.98
1818.222	224.9
1821.434	226.33
1824.645	227.38
1827.856	230.8
1831.067	231.92
1834.278	230.52
1837.488	232.86
1840.698	234.64
1843.908	231.97
1847.117	233.74
1850.326	234.37
1853.535	234.33
1856.744	238.15
1859.952	237.46
1863.16	235.46
1866.368	234.79
1869.575	238.4
1872.782	234.5
1875.989	233.32
1879.196	232.8
1882.402	231.01
1885.608	232.31
1888.814	232.25
1892.019	231.31
1895.224	231.22
1898.429	229.71
1901.634	231.39
1904.838	231.7
1908.042	234.09
1911.246	235.04
1914.449	236.47
1917.652	237.1
1920.855	236.7
1924.058	235.95
1927.26	234.66
1930.462	235.94
1933.664	239.06
1936.865	236.4
1940.066	235.76
1943.267	234.5
1946.467	233.81
1949.668	235.31
1952.868	237.74
1956.067	237.33
1959.267	238.45
1962.466	239.48
1965.665	238.2
1968.863	238.74
1972.061	242.58
1975.259	244.95
1978.457	246.83
1981.654	249.28
1984.852	249.78
1988.048	248.93
1991.245	251.68
1994.441	254.02
1997.637	256.14
2000.833	260.37
2004.028	264.03
2007.223	264.79
2010.418	267.36
2013.613	271.94
2016.807	275.19
2020.001	277
2023.194	280.97
2026.388	287.01
2029.581	294.36
2032.774	295.81
2035.966	302.33
2039.158	302.73
2042.35	309.19
2045.542	310.09
2048.733	314.92
2051.924	318.85
2055.115	324.64
2058.306	325.11
2061.496	328.27
2064.686	326.84
2067.875	333.92
2071.065	334.71
2074.254	332.98
2077.442	336.24
2080.631	339.07
2083.819	341.86
2087.007	341.37
2090.195	345.48
2093.382	349.4
2096.569	346.66
2099.756	352.27
2102.942	352.36
2106.128	355.56
2109.314	363.39
2112.5	361.76
2115.685	369.02
2118.87	369.19
2122.055	377.09
2125.239	379.18
2128.424	382.91
2131.608	386.62
2134.791	390.55
2137.974	393.58
2141.157	394.48
2144.34	395.44
2147.523	401.96
2150.705	399.12
2153.887	403.87
2157.068	404.77
2160.25	402.22
2163.431	404.92
2166.611	408.88
2169.792	417.01
2172.972	420.99
2176.152	423.13
2179.331	429.47
2182.511	436.51
2185.69	440.9
2188.868	449
2192.047	449.95
2195.225	462.17
2198.403	472.7
2201.58	481.35
2204.758	490.3
2207.935	499.29
2211.111	508.15
2214.288	513.07
2217.464	513.48
2220.64	522.39
2223.815	528.83
2226.991	551.76
2230.166	552.11
2233.34	561.74
2236.515	570.46
2239.689	573.32
2242.863	576.42
2246.036	593.34
2249.209	589.04
2252.382	599.56
2255.555	616.73
2258.727	618.51
2261.9	621.95
2265.071	628.34
2268.243	637.14
2271.414	644.11
2274.585	657.61
2277.756	663.88
2280.926	670.63
2284.096	686.71
2287.266	702.63
2290.436	707.28
2293.605	724.07
2296.774	742.98
2299.942	767.98
2303.111	772
2306.279	790.73
2309.447	800.98
2312.614	820.67
2315.781	839.66
2318.948	880.56
2322.115	866.6
2325.281	914.08
2328.447	896.06
2331.613	932.78
2334.779	920.35
2337.944	962.19
2341.109	970.98
2344.274	993.8
2347.438	1031.51
2350.602	1032.49
2353.766	1063.6
2356.929	1078.6
2360.092	1071.86
2363.255	1148.54
2366.418	1144.58
2369.58	1168.53
2372.742	1238.79
2375.904	1271
2379.066	1264.89
2382.227	1241.72
2385.388	1344.88
2388.548	1339.3
2391.709	1359.4
2394.869	1508.97
2398.029	1448.87
2401.188	1486.08
2404.347	1473.51
2407.506	1448.85
2410.665	1491.18
2413.823	1585.26
2416.981	1676.25
2420.139	1620.93
2423.296	1604.88
2426.453	1669.89
2429.61	1615.19
2432.767	1684.1
2435.923	1673.69
2439.079	1826.57
2442.235	1852.3
2445.391	1835.52
2448.546	1819.89
2451.701	1764.54
2454.855	1763.48
2458.009	1874.32
2461.163	1953.89
2464.317	2018.89
2467.471	2068.94
2470.624	2073.5
2473.777	2028.13
2476.929	1976.16
2480.082	1914.82
2483.234	1893.54
2486.385	1990.42
2489.537	2003.64
2492.688	2076.68
2495.839	2016.66
2498.989	1969.5
2502.14	1985.86
2505.29	2000.55
2508.439	2031.25
2511.589	2023.55
2514.738	2212.28
2517.887	2162.02
2521.035	2282.98
2524.183	2306.6
2527.331	2317.04
2530.479	2310.4
2533.627	2330.73
