Data from N_2_DIV_OH_2N_Splice17_13-23-37-946.txt Node
Date: Sat Mar 07 13:23:37 EST 2020
User: sa697716
Spectrometer: NQ5500242
Trigger mode: 0
Integration Time (sec): 1.450000E-1
Scans to average: 20
Nonlinearity correction enabled: false
Boxcar width: 5
Storing dark spectrum: false
XAxis mode: Wavelengths
Number of Pixels in Spectrum: 512
>>>>>Begin Spectral Data<<<<<
187.83	219.91
188.298	229.72
188.766	209.44
189.233	160.56
189.701	158.42
190.169	182.75
190.636	192.26
191.104	269.08
191.571	21.21
192.039	69.52
192.506	-54.45
192.974	141
193.441	92.89
193.908	82.72
194.375	38.36
194.842	-22.15
195.31	16.17
195.777	167.11
196.244	70.54
196.711	53.01
197.177	53.68
197.644	50.89
198.111	49.86
198.578	50.16
199.045	49.81
199.511	49.97
199.978	49.82
200.445	49.81
200.911	49.64
201.378	49.49
201.844	49.32
202.31	49.25
202.777	49.19
203.243	48.99
203.709	48.71
204.176	48.36
204.642	47.83
205.108	47.67
205.574	47.21
206.04	46.16
206.506	45.72
206.972	45.41
207.438	44.74
207.903	43.92
208.369	43.07
208.835	41.93
209.301	40.95
209.766	39.8
210.232	38.76
210.697	37.3
211.163	36.58
211.628	35.44
212.094	34.49
212.559	33.75
213.024	33.08
213.49	32.47
213.955	31.8
214.42	30.84
214.885	29.82
215.35	28.75
215.815	27.6
216.28	25.75
216.745	23.58
217.21	21.48
217.675	19.48
218.14	17.85
218.604	16.33
219.069	15.09
219.534	14.13
219.998	13.3
220.463	12.53
220.927	11.9
221.392	11.37
221.856	11.01
222.32	10.63
222.785	10.33
223.249	10.04
223.713	9.8
224.177	9.6
224.642	9.39
225.106	9.17
225.57	8.97
226.034	8.79
226.497	8.64
226.961	8.47
227.425	8.34
227.889	8.2
228.353	8.07
228.816	7.92
229.28	7.79
229.744	7.67
230.207	7.56
230.671	7.45
231.134	7.34
231.597	7.26
232.061	7.17
232.524	7.06
232.987	6.97
233.45	6.88
233.914	6.81
234.377	6.72
234.84	6.64
235.303	6.58
235.766	6.51
236.229	6.43
236.691	6.34
237.154	6.28
237.617	6.23
238.08	6.16
238.542	6.09
239.005	6.04
239.468	5.97
239.93	5.92
240.393	5.86
240.855	5.8
241.317	5.74
241.78	5.69
242.242	5.61
242.704	5.56
243.166	5.51
243.629	5.46
244.091	5.4
244.553	5.36
245.015	5.29
245.477	5.24
245.939	5.2
246.4	5.15
246.862	5.1
247.324	5.07
247.786	5.01
248.247	4.96
248.709	4.91
249.17	4.85
249.632	4.81
250.093	4.78
250.555	4.73
251.016	4.69
251.477	4.64
251.939	4.62
252.4	4.58
252.861	4.55
253.322	4.52
253.783	4.5
254.244	4.48
254.705	4.44
255.166	4.41
255.627	4.38
256.088	4.36
256.549	4.33
257.009	4.3
257.47	4.26
257.931	4.22
258.391	4.18
258.852	4.13
259.312	4.1
259.773	4.07
260.233	4.04
260.694	4
261.154	3.97
261.614	3.94
262.074	3.9
262.534	3.87
262.994	3.85
263.455	3.83
263.915	3.81
264.374	3.78
264.834	3.76
265.294	3.73
265.754	3.72
266.214	3.69
266.673	3.67
267.133	3.66
267.593	3.64
268.052	3.63
268.512	3.61
268.971	3.6
269.431	3.59
269.89	3.57
270.349	3.56
270.809	3.54
271.268	3.53
271.727	3.51
272.186	3.5
272.645	3.49
273.104	3.48
273.563	3.47
274.022	3.45
274.481	3.44
274.94	3.43
275.399	3.42
275.857	3.41
276.316	3.4
276.775	3.39
277.233	3.38
277.692	3.37
278.15	3.37
278.609	3.36
279.067	3.35
279.525	3.35
279.984	3.34
280.442	3.34
280.9	3.34
281.358	3.34
281.816	3.34
282.274	3.33
282.732	3.33
283.19	3.32
283.648	3.31
284.106	3.3
284.564	3.29
285.021	3.29
285.479	3.28
285.937	3.27
286.394	3.27
286.852	3.25
287.309	3.24
287.767	3.22
288.224	3.21
288.682	3.19
289.139	3.18
289.596	3.16
290.053	3.13
290.511	3.12
290.968	3.11
291.425	3.09
291.882	3.07
292.339	3.06
292.796	3.05
293.252	3.04
293.709	3.03
294.166	3.02
294.623	3.01
295.079	3.01
295.536	3
295.992	2.99
296.449	2.98
296.905	2.98
297.362	2.97
297.818	2.97
298.274	2.97
298.731	2.96
299.187	2.95
299.643	2.95
300.099	2.94
300.555	2.93
301.011	2.93
301.467	2.92
301.923	2.91
302.379	2.91
302.835	2.91
303.291	2.9
303.746	2.9
304.202	2.9
304.658	2.9
305.113	2.89
305.569	2.89
306.024	2.89
306.479	2.88
306.935	2.88
307.39	2.88
307.845	2.88
308.301	2.88
308.756	2.88
309.211	2.88
309.666	2.88
310.121	2.88
310.576	2.88
311.031	2.88
311.486	2.89
311.94	2.89
312.395	2.89
312.85	2.9
313.305	2.89
313.759	2.88
314.214	2.89
314.668	2.88
315.123	2.88
315.577	2.88
316.032	2.88
316.486	2.87
316.94	2.86
317.394	2.85
317.849	2.83
318.303	2.82
318.757	2.82
319.211	2.81
319.665	2.79
320.119	2.78
320.572	2.77
321.026	2.76
321.48	2.74
321.934	2.73
322.387	2.73
322.841	2.72
323.295	2.72
323.748	2.72
324.202	2.72
324.655	2.72
325.108	2.72
325.562	2.73
326.015	2.73
326.468	2.73
326.921	2.74
327.374	2.73
327.827	2.74
328.28	2.73
328.733	2.73
329.186	2.72
329.639	2.72
330.092	2.72
330.545	2.71
330.997	2.71
331.45	2.71
331.903	2.72
332.355	2.72
332.808	2.72
333.26	2.72
333.713	2.72
334.165	2.73
334.617	2.74
335.069	2.73
335.522	2.75
335.974	2.75
336.426	2.75
336.878	2.74
337.33	2.74
337.782	2.74
338.234	2.74
338.686	2.74
339.137	2.74
339.589	2.74
340.041	2.74
340.493	2.73
340.944	2.71
341.396	2.7
341.847	2.7
342.299	2.69
342.75	2.67
343.201	2.66
343.653	2.64
344.104	2.62
344.555	2.61
345.006	2.59
345.457	2.58
345.908	2.58
346.359	2.57
346.81	2.56
347.261	2.55
347.712	2.55
348.163	2.54
348.613	2.55
349.064	2.55
349.515	2.55
349.965	2.55
350.416	2.55
350.866	2.55
351.317	2.54
351.767	2.54
352.217	2.54
352.668	2.54
353.118	2.54
353.568	2.53
354.018	2.53
354.468	2.53
354.918	2.54
355.368	2.54
355.818	2.55
356.268	2.55
356.718	2.56
357.168	2.56
357.617	2.56
358.067	2.55
358.517	2.57
358.966	2.58
359.416	2.58
359.865	2.57
360.315	2.57
360.764	2.57
361.213	2.57
361.663	2.56
362.112	2.56
362.561	2.58
363.01	2.58
363.459	2.56
363.908	2.56
364.357	2.56
364.806	2.56
365.255	2.56
365.703	2.57
366.152	2.57
366.601	2.59
367.05	2.59
367.498	2.58
367.947	2.59
368.395	2.6
368.844	2.6
369.292	2.6
369.74	2.61
370.189	2.62
370.637	2.62
371.085	2.62
371.533	2.63
371.981	2.63
372.429	2.64
372.877	2.65
373.325	2.66
373.773	2.67
374.221	2.67
374.669	2.67
375.116	2.67
375.564	2.67
376.012	2.68
376.459	2.69
376.907	2.7
377.354	2.71
377.801	2.73
378.249	2.74
378.696	2.74
379.143	2.76
379.591	2.78
380.038	2.79
380.485	2.8
380.932	2.81
381.379	2.82
381.826	2.84
382.273	2.85
382.72	2.84
383.166	2.86
383.613	2.87
384.06	2.89
384.506	2.89
384.953	2.9
385.4	2.92
385.846	2.94
386.292	2.95
386.739	2.97
387.185	2.99
387.631	3.02
388.078	3.03
388.524	3.05
388.97	3.06
389.416	3.08
389.862	3.1
390.308	3.12
390.754	3.14
391.2	3.16
391.645	3.17
392.091	3.19
392.537	3.21
392.983	3.21
393.428	3.23
393.874	3.25
394.319	3.27
394.765	3.29
395.21	3.29
395.655	3.31
396.101	3.33
396.546	3.35
396.991	3.37
397.436	3.39
397.881	3.42
398.326	3.44
398.771	3.46
399.216	3.47
399.661	3.48
400.106	3.5
400.551	3.51
400.995	3.51
401.44	3.51
401.885	3.51
402.329	3.52
402.774	3.52
403.218	3.54
403.663	3.55
404.107	3.56
404.551	3.56
404.995	3.56
405.44	3.56
405.884	3.56
406.328	3.57
406.772	3.57
407.216	3.58
407.66	3.58
408.104	3.57
408.547	3.57
408.991	3.57
409.435	3.58
409.879	3.61
410.322	3.62
410.766	3.63
411.209	3.63
411.653	3.65
412.096	3.66
412.54	3.67
412.983	3.68
413.426	3.71
413.869	3.72
414.312	3.73
414.756	3.74
415.199	3.75
415.642	3.76
416.085	3.76
416.527	3.76
416.97	3.75
417.413	3.74
417.856	3.74
418.298	3.72
418.741	3.72
419.184	3.72
419.626	3.71
420.069	3.72
420.511	3.73
420.953	3.73
421.396	3.73
421.838	3.75
422.28	3.76
422.722	3.79
423.164	3.8
423.606	3.8
424.048	3.8
424.49	3.8
424.932	3.8
425.374	3.77
425.816	3.75
426.258	3.73
426.699	3.72
427.141	3.71
427.582	3.71
428.024	3.71
428.465	3.71
428.907	3.7
429.348	3.68
429.789	3.69
430.231	3.71
430.672	3.74
431.113	3.77
431.554	3.78
431.995	3.81
432.436	3.81
432.877	3.82
433.318	3.84
433.759	3.88
434.2	3.9
434.64	3.93
435.081	3.93
435.522	3.94
435.962	3.95
436.403	3.97
436.843	3.98
437.284	3.97
437.724	3.98
438.164	3.97
438.604	3.96
439.045	3.97
439.485	3.97
439.925	3.97
440.365	3.97
440.805	3.98
441.245	3.99
441.685	4
442.125	4.03
442.564	4.03
443.004	4.03
443.444	4.05
443.883	4.07
444.323	4.06
444.762	4.07
445.202	4.08
445.641	4.1
446.081	4.09
446.52	4.09
446.959	4.11
447.398	4.12
447.837	4.13
448.276	4.13
448.716	4.13
449.154	4.16
449.593	4.18
450.032	4.18
450.471	4.17
450.91	4.17
451.349	4.19
451.787	4.17
452.226	4.16
452.664	4.16
453.103	4.15
453.541	4.15
453.98	4.15
454.418	4.13
454.856	4.12
455.295	4.1
455.733	4.07
456.171	4.05
456.609	4.04
457.047	4.03
457.485	4.02
457.923	4.01
458.361	4
458.798	4
459.236	3.99
459.674	3.98
460.111	3.99
460.549	4
460.987	4.02
461.424	4.02
461.862	4.03
462.299	4.03
462.736	4.04
463.173	4.05
463.611	4.05
464.048	4.06
464.485	4.08
464.922	4.08
465.359	4.08
465.796	4.08
466.233	4.09
466.67	4.09
467.106	4.1
467.543	4.1
467.98	4.09
468.416	4.07
468.853	4.06
469.29	4.05
469.726	4.06
470.162	4.06
470.599	4.05
471.035	4.03
471.471	4.01
471.907	4
472.344	4
472.78	4
473.216	4
473.652	4
474.088	3.99
474.523	3.99
474.959	3.97
475.395	3.95
475.831	3.94
476.266	3.94
476.702	3.92
477.138	3.91
477.573	3.91
478.008	3.9
478.444	3.89
478.879	3.9
479.314	3.89
479.75	3.89
480.185	3.88
480.62	3.87
481.055	3.86
481.49	3.86
481.925	3.86
482.36	3.86
482.795	3.84
483.229	3.83
483.664	3.82
484.099	3.81
484.534	3.81
484.968	3.81
485.403	3.82
485.837	3.82
486.271	3.83
486.706	3.82
487.14	3.82
487.574	3.83
488.009	3.84
488.443	3.85
488.877	3.87
489.311	3.88
489.745	3.9
490.179	3.92
490.613	3.95
491.046	3.96
491.48	3.99
491.914	4.01
492.348	4.04
492.781	4.07
493.215	4.1
493.648	4.12
494.082	4.15
494.515	4.18
494.948	4.22
495.382	4.25
495.815	4.29
496.248	4.34
496.681	4.39
497.114	4.43
497.547	4.48
497.98	4.54
498.413	4.6
498.846	4.66
499.279	4.72
499.711	4.77
500.144	4.85
500.577	4.92
501.009	4.98
501.442	5.07
501.874	5.15
502.306	5.25
502.739	5.35
503.171	5.44
503.603	5.53
504.036	5.65
504.468	5.76
504.9	5.87
505.332	5.99
505.764	6.12
506.196	6.25
506.627	6.39
507.059	6.53
507.491	6.66
507.923	6.83
508.354	6.99
508.786	7.16
509.217	7.33
509.649	7.51
510.08	7.7
510.512	7.9
510.943	8.08
511.374	8.28
511.805	8.47
512.237	8.68
512.668	8.88
513.099	9.09
513.53	9.31
513.961	9.55
514.391	9.78
514.822	10.03
515.253	10.26
515.684	10.51
516.114	10.76
516.545	11.01
516.975	11.26
517.406	11.52
517.836	11.78
518.267	12.04
518.697	12.29
519.127	12.54
519.558	12.79
519.988	13.05
520.418	13.29
520.848	13.54
521.278	13.79
521.708	14.19
522.138	14.43
522.567	14.67
522.997	14.9
523.427	15.12
523.857	15.35
524.286	15.55
524.716	15.76
525.145	15.95
525.575	16.16
526.004	16.35
526.433	16.38
526.863	16.55
527.292	16.72
527.721	16.89
528.15	17.06
528.579	17.21
529.008	17.37
529.437	17.51
529.866	17.66
530.295	17.79
530.724	17.91
531.152	18.03
531.581	18.15
532.01	18.27
532.438	18.38
532.867	18.48
533.295	18.58
533.723	18.66
534.152	18.74
534.58	18.82
535.008	18.9
535.436	18.98
535.865	19.04
536.293	19.11
536.721	19.15
537.149	19.2
537.576	19.26
538.004	19.32
538.432	19.36
538.86	19.42
539.287	19.45
539.715	19.49
540.143	19.51
540.57	19.55
540.998	19.57
541.425	19.6
541.852	19.63
542.28	19.66
542.707	19.69
543.134	19.72
543.561	19.75
543.988	19.79
544.415	19.81
544.842	19.83
545.269	19.87
545.696	19.91
546.123	19.94
546.549	19.96
546.976	19.98
547.403	20
547.829	20.01
548.256	20.03
548.682	20.04
549.108	20.05
549.535	20.09
549.961	20.1
550.387	20.11
550.813	20.11
551.24	20.11
551.666	20.11
552.092	20.1
552.518	20.09
552.943	20.06
553.369	20.04
553.795	20.03
554.221	19.99
554.646	19.94
555.072	19.91
555.498	19.85
555.923	19.81
556.349	19.76
556.774	19.7
557.199	19.64
557.625	19.57
558.05	19.52
558.475	19.44
558.9	19.39
559.325	19.32
559.75	19.23
560.175	19.15
560.6	19.05
561.025	18.96
561.449	18.87
561.874	18.76
562.299	18.67
562.723	18.54
563.148	18.41
563.572	18.26
563.997	18.13
564.421	17.99
564.846	17.84
565.27	17.72
565.694	17.59
566.118	17.44
566.542	17.31
566.966	17.16
567.39	17.02
567.814	16.89
568.238	16.76
568.662	16.63
569.086	16.5
569.509	16.37
569.933	16.22
570.357	16.08
570.78	15.94
571.204	15.8
571.627	15.68
572.05	15.55
572.474	15.44
572.897	15.32
573.32	15.2
573.743	15.09
574.166	14.98
574.589	14.87
575.012	14.77
575.435	14.66
575.858	14.57
576.281	14.47
576.704	14.38
577.126	14.28
577.549	14.18
577.972	14.09
578.394	14
578.817	13.92
579.239	13.83
579.661	13.76
580.084	13.69
580.506	13.61
580.928	13.54
581.35	13.47
581.772	13.39
582.194	13.32
582.616	13.25
583.038	13.18
583.46	13.11
583.882	13.04
584.303	12.96
584.725	12.88
585.147	12.81
585.568	12.75
585.99	12.69
586.411	12.64
586.833	12.58
587.254	12.52
587.675	12.47
588.096	12.41
588.518	12.36
588.939	12.33
589.36	12.29
589.781	12.25
590.202	12.22
590.623	12.18
591.043	12.13
591.464	12.09
591.885	12.05
592.305	12.01
592.726	11.99
593.147	11.95
593.567	11.91
593.987	11.87
594.408	11.84
594.828	11.8
595.248	11.76
595.669	11.74
596.089	11.71
596.509	11.69
596.929	11.66
597.349	11.61
597.769	11.59
598.189	11.55
598.608	11.53
599.028	11.5
599.448	11.46
599.867	11.43
600.287	11.39
600.706	11.36
601.126	11.31
601.545	11.28
601.965	11.24
602.384	11.2
602.803	11.16
603.222	11.11
603.641	11.05
604.061	11.02
604.48	10.96
604.898	10.9
605.317	10.85
605.736	10.8
606.155	10.74
606.574	10.68
606.992	10.62
607.411	10.57
607.829	10.49
608.248	10.42
608.666	10.35
609.085	10.29
609.503	10.24
609.921	10.19
610.339	10.13
610.758	10.07
611.176	10
611.594	9.93
612.012	9.87
612.43	9.83
612.847	9.78
613.265	9.72
613.683	9.67
614.101	9.59
614.518	9.53
614.936	9.47
615.353	9.41
615.771	9.36
616.188	9.32
616.606	9.26
617.023	9.21
617.44	9.18
617.857	9.13
618.274	9.08
618.691	9.05
619.108	9
619.525	8.97
619.942	8.94
620.359	8.91
620.776	8.88
621.192	8.85
621.609	8.83
622.026	8.8
622.442	8.78
622.859	8.77
623.275	8.75
623.691	8.73
624.108	8.71
624.524	8.69
624.94	8.69
625.356	8.69
625.772	8.67
626.188	8.66
626.604	8.65
627.02	8.65
627.436	8.64
627.852	8.64
628.268	8.64
628.683	8.63
629.099	8.63
629.514	8.61
629.93	8.59
630.345	8.57
630.761	8.54
631.176	8.51
631.591	8.47
632.007	8.44
632.422	8.39
632.837	8.34
633.252	8.29
633.667	8.23
634.082	8.17
634.497	8.12
634.911	8.05
635.326	7.98
635.741	7.91
636.155	7.83
636.57	7.75
636.984	7.67
637.399	7.59
637.813	7.49
638.228	7.38
638.642	7.28
639.056	7.18
639.47	7.09
639.884	7
640.298	6.9
640.712	6.8
641.126	6.72
641.54	6.62
641.954	6.51
642.368	6.44
642.781	6.36
643.195	6.29
643.609	6.21
644.022	6.12
644.436	6.05
644.849	5.97
645.262	5.91
645.676	5.84
646.089	5.77
646.502	5.72
646.915	5.67
647.328	5.63
647.741	5.58
648.154	5.53
648.567	5.5
648.98	5.47
649.393	5.44
649.805	5.42
650.218	5.39
650.631	5.37
651.043	5.35
651.456	5.33
651.868	5.3
652.28	5.27
652.693	5.26
653.105	5.24
653.517	5.21
653.929	5.18
654.341	5.14
654.753	5.1
655.165	5.07
655.577	5.03
655.989	5
656.401	4.96
656.813	4.92
657.224	4.87
657.636	4.8
658.047	4.77
658.459	4.72
658.87	4.68
659.282	4.63
659.693	4.57
660.104	4.51
660.515	4.46
660.926	4.42
661.338	4.37
661.749	4.33
662.159	4.3
662.57	4.25
662.981	4.21
663.392	4.16
663.803	4.13
664.213	4.1
664.624	4.08
665.035	4.06
665.445	4.03
665.855	4.01
666.266	3.99
666.676	3.97
667.086	3.96
667.497	3.95
667.907	3.95
668.317	3.95
668.727	3.95
669.137	3.95
669.547	3.95
669.956	3.95
670.366	3.95
670.776	3.95
671.186	3.96
671.595	3.97
672.005	3.98
672.414	3.99
672.824	4
673.233	4.01
673.642	4.02
674.052	4.04
674.461	4.06
674.87	4.08
675.279	4.11
675.688	4.14
676.097	4.17
676.506	4.2
676.915	4.23
677.323	4.26
677.732	4.3
678.141	4.34
678.549	4.37
678.958	4.4
679.366	4.44
679.775	4.48
680.183	4.52
680.592	4.59
681	4.65
681.408	4.71
681.816	4.77
682.224	4.85
682.632	4.93
683.04	5.02
683.448	5.13
683.856	5.23
684.264	5.35
684.671	5.48
685.079	5.62
685.487	5.77
685.894	5.95
686.302	6.15
686.709	6.36
687.116	6.59
687.524	6.85
687.931	7.13
688.338	7.43
688.745	7.76
689.152	8.11
689.559	8.49
689.966	8.89
690.373	9.32
690.78	9.76
691.187	10.21
691.593	10.68
692	11.16
692.407	11.64
692.813	12.17
693.22	12.68
693.626	13.2
694.032	13.73
694.439	14.27
694.845	14.83
695.251	15.37
695.657	15.92
696.063	16.48
696.469	17.05
696.875	17.6
697.281	18.15
697.687	18.71
698.093	19.26
698.498	19.81
698.904	20.35
699.31	20.88
699.715	21.43
700.12	21.95
700.526	22.48
700.931	22.99
701.337	23.51
701.742	24
702.147	24.49
702.552	24.98
702.957	25.45
703.362	25.92
703.767	26.37
704.172	26.83
704.577	27.29
704.981	27.73
705.386	28.18
705.791	28.61
706.195	29.05
706.6	29.49
707.004	29.89
707.408	30.29
707.813	30.71
708.217	31.11
708.621	31.5
709.025	31.86
709.43	32.24
709.834	32.62
710.237	32.98
710.641	33.33
711.045	33.66
711.449	34.03
711.853	34.39
712.256	34.71
712.66	35.03
713.064	35.35
713.467	35.69
713.87	36.03
714.274	36.32
714.677	36.62
715.08	36.91
715.484	37.23
715.887	37.53
716.29	37.8
716.693	38.11
717.096	38.4
717.499	38.66
717.901	38.94
718.304	39.19
718.707	39.47
719.109	39.74
719.512	39.98
719.915	40.22
720.317	40.45
720.719	40.67
721.122	40.88
721.524	41.11
721.926	41.35
722.328	41.59
722.731	41.79
723.133	41.98
723.535	42.17
723.937	42.4
724.338	42.57
724.74	42.76
725.142	43.04
725.544	43.2
725.945	43.39
726.347	43.52
726.748	43.63
727.15	43.77
727.551	43.93
727.952	44.03
728.354	44.18
728.755	44.29
729.156	44.39
729.557	44.41
729.958	44.52
730.359	44.6
730.76	44.72
731.161	44.87
731.562	44.97
731.962	45.04
732.363	45.14
732.763	45.22
733.164	45.29
733.564	45.4
733.965	45.48
734.365	45.58
734.766	45.66
735.166	45.74
735.566	45.79
735.966	45.88
736.366	45.95
736.766	46
737.166	46.06
737.566	46.14
737.966	46.19
738.365	46.25
738.765	46.31
739.165	46.35
739.564	46.4
739.964	46.43
740.363	46.43
740.763	46.48
741.162	46.55
741.561	46.59
741.96	46.61
742.36	46.64
742.759	46.69
743.158	46.72
743.557	46.72
743.955	46.77
744.354	46.81
744.753	46.87
745.152	46.93
745.55	46.94
745.949	46.96
746.348	47.01
746.746	47
747.144	47.04
747.543	47.04
747.941	47.09
748.339	47.09
748.737	47.08
749.136	47.09
749.534	47.06
749.932	47.07
750.33	47.08
750.727	47.1
751.125	47.13
751.523	47.11
751.921	47.14
752.318	47.15
752.716	47.16
753.113	47.18
753.511	47.2
753.908	47.24
754.305	47.26
754.703	47.27
755.1	47.27
755.497	47.28
755.894	47.3
756.291	47.32
756.688	47.33
757.085	47.33
757.482	47.34
757.878	47.35
758.275	47.32
758.672	47.32
759.068	47.34
759.465	47.33
759.861	47.34
760.258	47.35
760.654	47.32
761.05	47.34
761.447	47.35
761.843	47.35
762.239	47.35
762.635	47.36
763.031	47.35
763.427	47.35
763.822	47.34
764.218	47.34
764.614	47.35
765.01	47.36
765.405	47.34
765.801	47.32
766.196	47.33
766.592	47.32
766.987	47.35
767.382	47.35
767.778	47.36
768.173	47.35
768.568	47.34
768.963	47.33
769.358	47.33
769.753	47.33
770.148	47.34
770.542	47.34
770.937	47.35
771.332	47.34
771.726	47.35
772.121	47.33
772.515	47.36
772.91	47.36
773.304	47.36
773.699	47.37
774.093	47.34
774.487	47.34
774.881	47.36
775.275	47.35
775.669	47.32
776.063	47.3
776.457	47.3
776.851	47.28
777.245	47.26
777.638	47.25
778.032	47.25
778.425	47.28
778.819	47.28
779.212	47.28
779.606	47.29
779.999	47.29
780.392	47.32
780.786	47.3
781.179	47.32
781.572	47.37
781.965	47.39
782.358	47.42
782.751	47.41
783.143	47.4
783.536	47.41
783.929	47.4
784.322	47.44
784.714	47.45
785.107	47.5
785.499	47.49
785.891	47.47
786.284	47.47
786.676	47.47
787.068	47.47
787.46	47.46
787.852	47.46
788.245	47.48
788.636	47.45
789.028	47.44
789.42	47.42
789.812	47.44
790.204	47.45
790.595	47.45
790.987	47.44
791.378	47.46
791.77	47.48
792.161	47.46
792.553	47.45
792.944	47.44
793.335	47.46
793.726	47.46
794.117	47.43
794.508	47.38
794.899	47.39
795.29	47.4
795.681	47.37
796.072	47.39
796.463	47.43
796.853	47.42
797.244	47.42
797.634	47.39
798.025	47.41
798.415	47.4
798.806	47.43
799.196	47.43
799.586	47.44
799.976	47.47
800.366	47.47
800.756	47.46
801.146	47.48
801.536	47.49
801.926	47.52
802.316	47.52
802.706	47.56
803.095	47.57
803.485	47.57
803.874	47.55
804.264	47.54
804.653	47.52
805.043	47.52
805.432	47.53
805.821	47.56
806.21	47.55
806.599	47.54
806.988	47.52
807.377	47.5
807.766	47.5
808.155	47.51
808.544	47.53
808.933	47.54
809.321	47.57
809.71	47.55
810.098	47.51
810.487	47.5
810.875	47.5
811.264	47.49
811.652	47.5
812.04	47.5
812.428	47.52
812.816	47.52
813.204	47.51
813.592	47.47
813.98	47.49
814.368	47.52
814.756	47.53
815.144	47.51
815.531	47.52
815.919	47.52
816.306	47.54
816.694	47.52
817.081	47.52
817.469	47.52
817.856	47.54
818.243	47.52
818.63	47.49
819.017	47.49
819.404	47.48
819.791	47.47
820.178	47.49
820.565	47.44
820.952	47.44
821.339	47.45
821.725	47.48
822.112	47.51
822.498	47.53
822.885	47.58
823.271	47.57
823.657	47.56
824.044	47.56
824.43	47.59
824.816	47.58
825.202	47.57
825.588	47.55
825.974	47.52
826.36	47.47
826.746	47.46
827.132	47.43
827.517	47.45
827.903	47.5
828.289	47.51
828.674	47.48
829.06	47.5
829.445	47.51
829.83	47.53
830.216	47.52
830.601	47.54
830.986	47.52
831.371	47.51
831.756	47.51
832.141	47.49
832.526	47.48
832.911	47.46
833.295	47.5
833.68	47.51
834.065	47.51
834.449	47.51
834.834	47.49
835.218	47.52
835.603	47.51
835.987	47.49
836.371	47.5
836.755	47.48
837.139	47.48
837.524	47.45
837.908	47.46
838.291	47.47
838.675	47.47
839.059	47.47
839.443	47.45
839.827	47.46
840.21	47.45
840.594	47.45
840.977	47.45
841.361	47.47
841.744	47.45
842.127	47.43
842.511	47.41
842.894	47.4
843.277	47.4
843.66	47.39
844.043	47.4
844.426	47.41
844.809	47.42
845.191	47.43
845.574	47.42
845.957	47.41
846.339	47.42
846.722	47.43
847.104	47.45
847.487	47.44
847.869	47.45
848.252	47.45
848.634	47.46
849.016	47.46
849.398	47.46
849.78	47.46
850.162	47.48
850.544	47.48
850.926	47.47
851.307	47.46
851.689	47.48
852.071	47.48
852.452	47.48
852.834	47.46
853.215	47.44
853.597	47.45
853.978	47.44
854.359	47.42
854.741	47.42
855.122	47.41
855.503	47.42
855.884	47.42
856.265	47.41
856.646	47.41
857.026	47.43
857.407	47.46
857.788	47.44
858.169	47.48
858.549	47.5
858.93	47.51
859.31	47.51
859.69	47.51
860.071	47.53
860.451	47.54
860.831	47.54
861.211	47.53
861.591	47.53
861.971	47.53
862.351	47.53
862.731	47.55
863.111	47.54
863.491	47.55
863.87	47.55
864.25	47.52
864.629	47.53
865.009	47.55
865.388	47.55
865.768	47.53
866.147	47.53
866.526	47.52
866.905	47.5
867.284	47.5
867.663	47.49
868.042	47.49
868.421	47.5
868.8	47.51
869.179	47.5
869.558	47.51
869.936	47.52
870.315	47.52
870.693	47.53
871.072	47.54
871.45	47.54
871.828	47.55
872.207	47.56
872.585	47.54
872.963	47.56
873.341	47.54
873.719	47.53
874.097	47.53
874.475	47.52
874.853	47.52
875.23	47.53
875.608	47.52
875.986	47.55
876.363	47.55
876.741	47.58
877.118	47.55
877.495	47.56
877.873	47.56
878.25	47.57
878.627	47.6
879.004	47.57
879.381	47.56
879.758	47.54
880.135	47.52
880.512	47.5
880.889	47.48
881.265	47.47
881.642	47.47
882.019	47.49
882.395	47.47
882.772	47.44
883.148	47.44
883.524	47.46
883.901	47.46
884.277	47.45
884.653	47.43
885.029	47.43
885.405	47.43
885.781	47.42
886.157	47.39
886.532	47.38
886.908	47.37
887.284	47.34
887.659	47.29
888.035	47.29
888.411	47.28
888.786	47.3
889.161	47.29
889.537	47.28
889.912	47.26
890.287	47.27
890.662	47.27
891.037	47.28
891.412	47.28
891.787	47.28
892.162	47.26
892.536	47.26
892.911	47.24
893.286	47.24
893.66	47.24
894.035	47.26
894.409	47.25
894.784	47.25
895.158	47.24
895.532	47.25
895.906	47.25
896.281	47.26
896.655	47.26
897.029	47.27
897.402	47.28
897.776	47.29
898.15	47.3
898.524	47.34
898.898	47.32
899.271	47.33
899.645	47.35
900.018	47.38
900.392	47.37
900.765	47.38
901.138	47.39
901.511	47.38
901.884	47.38
902.258	47.36
902.631	47.34
903.003	47.38
903.376	47.39
903.749	47.38
904.122	47.38
904.495	47.42
904.867	47.44
905.24	47.46
905.612	47.5
905.985	47.49
906.357	47.5
906.729	47.52
907.102	47.51
907.474	47.51
907.846	47.52
908.218	47.5
908.59	47.51
908.962	47.51
909.334	47.52
909.705	47.47
910.077	47.48
910.449	47.49
910.82	47.49
911.192	47.48
911.563	47.47
911.935	47.46
912.306	47.49
912.677	47.5
913.048	47.49
913.419	47.46
913.79	47.48
914.161	47.52
914.532	47.53
914.903	47.53
915.274	47.54
915.645	47.54
916.015	47.57
916.386	47.57
916.756	47.56
917.127	47.59
917.497	47.61
917.868	47.63
918.238	47.6
918.608	47.62
918.978	47.64
919.348	47.64
919.718	47.64
920.088	47.64
920.458	47.63
920.828	47.62
921.198	47.55
921.567	47.57
921.937	47.56
922.306	47.53
922.676	47.49
923.045	47.47
923.415	47.47
923.784	47.48
924.153	47.49
924.522	47.49
924.891	47.5
925.26	47.54
925.629	47.55
925.998	47.55
926.367	47.54
926.736	47.55
927.104	47.55
927.473	47.54
927.842	47.5
928.21	47.47
928.578	47.45
928.947	47.44
929.315	47.4
929.683	47.38
930.051	47.35
930.42	47.4
930.788	47.37
931.156	47.35
931.523	47.33
931.891	47.39
932.259	47.4
932.627	47.4
932.994	47.4
933.362	47.38
933.729	47.38
934.097	47.41
934.464	47.4
934.831	47.42
935.199	47.44
935.566	47.46
935.933	47.41
936.3	47.38
936.667	47.37
937.034	47.37
937.401	47.42
937.767	47.41
938.134	47.42
938.501	47.41
938.867	47.42
939.234	47.43
939.6	47.41
939.967	47.44
940.333	47.44
940.699	47.5
941.065	47.46
941.431	47.42
941.798	47.38
942.163	47.34
942.529	47.34
942.895	47.33
943.261	47.28
943.627	47.3
943.992	47.3
944.358	47.34
944.723	47.29
945.089	47.25
945.454	47.28
945.82	47.31
946.185	47.25
946.55	47.14
946.915	47.06
947.28	47.08
947.645	47.03
948.01	47.02
948.375	47
948.74	47.03
949.104	47.11
949.469	47.08
949.834	47.06
950.198	47.09
950.562	47.15
950.927	47.19
951.291	47.08
951.655	47.03
952.02	47
952.384	46.95
952.748	46.89
953.112	46.82
953.476	46.75
953.839	46.73
954.203	46.7
954.567	46.63
954.931	46.58
955.294	46.62
955.658	46.72
956.021	46.71
956.385	46.68
956.748	46.73
957.111	46.69
957.474	46.73
957.837	46.7
958.2	46.68
958.563	46.68
958.926	46.7
959.289	46.73
959.652	46.63
960.015	46.63
960.377	46.63
960.74	46.6
961.102	46.64
961.465	46.67
961.827	46.75
962.189	46.79
962.552	46.8
962.914	46.81
963.276	46.8
963.638	46.85
964	46.82
964.362	46.82
964.724	46.78
965.085	46.78
965.447	46.71
965.809	46.63
966.17	46.63
966.532	46.66
966.893	46.67
967.255	46.62
967.616	46.62
967.977	46.64
968.338	46.61
968.699	46.63
969.061	46.59
969.421	46.59
969.782	46.63
970.143	46.64
970.504	46.62
970.865	46.64
971.225	46.63
971.586	46.58
971.946	46.56
972.307	46.58
972.667	46.61
973.027	46.61
973.388	46.68
973.748	46.67
974.108	46.73
974.468	46.74
974.828	46.76
975.188	46.76
975.548	46.79
975.907	46.83
976.267	46.83
976.627	46.81
976.986	46.82
977.346	46.73
977.705	46.7
978.064	46.62
978.424	46.63
978.783	46.54
979.142	46.54
979.501	46.53
979.86	46.57
980.219	46.61
980.578	46.58
980.937	46.67
981.296	46.66
981.654	46.65
982.013	46.69
982.371	46.65
982.73	46.73
983.088	46.8
983.447	46.79
983.805	46.8
984.163	46.76
984.521	46.76
984.879	46.65
985.237	46.7
985.595	46.77
985.953	46.73
986.311	46.69
986.669	46.66
987.026	46.62
987.384	46.69
987.741	46.64
988.099	46.72
988.456	46.7
988.814	46.77
989.171	46.79
989.528	46.83
989.885	46.82
990.242	46.91
990.599	46.93
990.956	47.01
991.313	46.98
991.67	46.99
992.027	46.98
992.383	47.06
992.74	47.16
993.096	47.14
993.453	47.08
993.809	47.15
994.165	47.16
994.522	47.18
994.878	47.14
995.234	47.17
995.59	47.2
995.946	47.22
996.302	47.24
996.658	47.19
997.013	47.23
997.369	47.24
997.725	47.27
998.08	47.28
998.436	47.32
998.791	47.36
999.147	47.32
999.502	47.42
999.857	47.4
1000.212	47.36
1000.567	47.26
1000.922	47.24
1001.277	47.29
1001.632	47.23
1001.987	47.22
1002.342	47.14
1002.696	47.07
1003.051	47.16
1003.406	47.27
1003.76	47.22
1004.114	47.24
1004.469	47.37
1004.823	47.68
1005.177	47.73
1005.531	47.89
1005.885	48.04
1006.239	48.15
1006.593	48.16
1006.947	48.21
1007.301	48.03
1007.655	48.14
1008.008	48.21
1008.362	48.35
1008.715	48.14
1009.069	48.27
1009.422	48.19
1009.776	48.09
1010.129	47.95
1010.482	48.08
1010.835	48.12
1011.188	48.06
1011.541	48.06
1011.894	48.15
1012.247	47.94
1012.6	47.92
1012.952	47.8
1013.305	47.82
1013.657	47.88
1014.01	48.05
1014.362	48.03
1014.715	48.04
1015.067	48.21
1015.419	48.36
1015.771	48.25
1016.123	48.37
1016.475	48.55
1016.827	48.68
1017.179	48.82
1017.531	48.89
1017.883	48.79
1018.234	48.92
1018.586	48.97
1018.938	49.11
1019.289	48.82
1019.64	48.75
1019.992	48.69
1020.343	48.53
1020.694	48.31
1021.045	48.15
1021.396	48.22
1021.747	48.44
1022.098	48.53
1022.449	48.5
1022.8	48.43
1023.151	48.59
1023.501	48.98
1023.852	48.9
1024.202	48.72
1024.553	48.7
1024.903	48.92
1025.253	48.99
1025.604	49.03
1025.954	48.83
1026.304	48.75
1026.654	48.87
1027.004	49
1027.354	48.87
1027.703	49.02
1028.053	49.27
1028.403	49.44
1028.753	49.07
1029.102	48.99
1029.452	48.94
1029.801	49.12
1030.15	49.08
1030.499	48.82
897.758	1389.55
901.051	1397.99
904.343	1390.86
907.636	1413.73
910.928	1373.58
914.22	1377.76
917.511	1359.16
920.803	1303.86
924.094	1296.53
927.384	1263.87
930.675	1216.75
933.965	1209.1
937.255	1136.15
940.544	1091.1
943.834	1039.43
947.123	1032.94
950.411	970.09
953.7	950.36
956.988	897.46
960.276	861.86
963.563	851.7
966.851	817.94
970.138	810.1
973.424	786.29
976.711	792.84
979.997	754.23
983.283	749.24
986.568	733.37
989.853	710.94
993.138	698.94
996.423	671.38
999.708	651.35
1002.992	645.52
1006.275	616.94
1009.559	610.31
1012.842	587.45
1016.125	570.71
1019.408	560.6
1022.69	552.46
1025.972	542.97
1029.254	530.25
1032.536	522.36
1035.817	509.92
1039.098	503.37
1042.379	493.76
1045.659	489.12
1048.939	476.89
1052.219	467.84
1055.498	460.87
1058.778	450.98
1062.057	438.48
1065.335	433.06
1068.614	428.72
1071.892	424.43
1075.17	410.43
1078.447	402.55
1081.724	399.65
1085.001	396.84
1088.278	388.33
1091.554	381.07
1094.83	382.21
1098.106	380.08
1101.382	376.6
1104.657	373.52
1107.932	368.02
1111.206	369.73
1114.481	360.78
1117.755	357.38
1121.029	354.84
1124.302	355.54
1127.575	347.78
1130.848	342.93
1134.121	340.04
1137.393	338.37
1140.665	330.93
1143.937	329.28
1147.208	327.41
1150.48	326.55
1153.75	321.84
1157.021	316.56
1160.291	316.83
1163.561	313.96
1166.831	314.61
1170.101	312.05
1173.37	311.04
1176.639	311.84
1179.907	308.66
1183.176	304.89
1186.444	304.68
1189.711	304.68
1192.979	303.99
1196.246	301.61
1199.513	302.56
1202.78	300
1206.046	299.85
1209.312	297.04
1212.578	297.27
1215.843	300.14
1219.108	297.86
1222.373	304.36
1225.638	306.33
1228.902	310.83
1232.166	310.88
1235.43	313.37
1238.693	317.62
1241.956	319.28
1245.219	324.31
1248.482	324.06
1251.744	323.62
1255.006	325.9
1258.268	317
1261.529	313.76
1264.79	311.64
1268.051	309.9
1271.312	306.84
1274.572	302.07
1277.832	299.71
1281.092	295.12
1284.351	293.16
1287.61	292.7
1290.869	288.13
1294.128	286.6
1297.386	287.09
1300.644	283.34
1303.902	284.68
1307.159	283.19
1310.416	283.44
1313.673	282.79
1316.93	285.71
1320.186	285.97
1323.442	286.48
1326.697	291.83
1329.953	293.1
1333.208	293.83
1336.463	297.67
1339.717	297.72
1342.972	301.16
1346.226	303.95
1349.479	304.48
1352.733	305.85
1355.986	307.11
1359.238	307.58
1362.491	308.74
1365.743	311.14
1368.995	311.35
1372.247	310.38
1375.498	310.27
1378.749	312.99
1382	309.51
1385.251	310.37
1388.501	308.34
1391.751	310.12
1395	307.93
1398.25	305.67
1401.499	303.91
1404.748	303.2
1407.996	300.85
1411.244	299.66
1414.492	297.23
1417.74	294.65
1420.987	290.15
1424.234	290.14
1427.481	285.63
1430.728	285.8
1433.974	282.82
1437.22	280.45
1440.465	279.67
1443.711	277.53
1446.956	275.51
1450.201	272.18
1453.445	269.86
1456.689	269.32
1459.933	264.3
1463.177	262.35
1466.42	258.14
1469.663	255.23
1472.906	253.62
1476.148	247.33
1479.391	244.17
1482.633	242.21
1485.874	238.51
1489.115	236.83
1492.356	233.91
1495.597	234.22
1498.838	230.69
1502.078	229.37
1505.318	228.48
1508.557	228.28
1511.797	227.73
1515.036	226.49
1518.274	225.97
1521.513	224
1524.751	223.19
1527.989	222.9
1531.227	221
1534.464	221.95
1537.701	220.5
1540.938	219.72
1544.174	217.04
1547.41	216.89
1550.646	216.29
1553.882	216.12
1557.117	213.56
1560.352	212.85
1563.587	211.96
1566.821	210.69
1570.055	208.2
1573.289	206.92
1576.523	206.6
1579.756	205.19
1582.989	204.23
1586.222	203.95
1589.454	202.55
1592.686	204.56
1595.918	203.33
1599.15	202.56
1602.381	203.01
1605.612	202.93
1608.843	203.41
1612.073	203.25
1615.303	204.59
1618.533	204.4
1621.762	203.87
1624.992	204.19
1628.221	203.36
1631.449	203.46
1634.678	203.09
1637.906	203.47
1641.134	203.69
1644.361	203.26
1647.588	203.9
1650.815	202.67
1654.042	201.98
1657.269	202.96
1660.495	202.79
1663.72	202.03
1666.946	203.19
1670.171	203.72
1673.396	203.66
1676.621	203.45
1679.845	203.97
1683.069	203.48
1686.293	205.39
1689.517	206.59
1692.74	206.3
1695.963	206.84
1699.185	209.19
1702.408	208.64
1705.63	209.46
1708.852	209.87
1712.073	210.97
1715.294	211.25
1718.515	212.72
1721.736	211.87
1724.956	212.72
1728.176	212.73
1731.396	214.7
1734.616	213.59
1737.835	214.79
1741.054	213.22
1744.272	213.88
1747.491	215.46
1750.709	215.6
1753.927	215.54
1757.144	214.81
1760.361	215.51
1763.578	215.91
1766.795	215.33
1770.011	217.18
1773.227	216.48
1776.443	219.79
1779.658	220.64
1782.874	219.97
1786.089	220.92
1789.303	221.54
1792.518	224.8
1795.732	224.7
1798.945	226.77
1802.159	226.57
1805.372	227.22
1808.585	231.96
1811.797	232.02
1815.01	232.08
1818.222	234.18
1821.434	235.52
1824.645	236.5
1827.856	239.73
1831.067	241.36
1834.278	241.31
1837.488	243.65
1840.698	244.86
1843.908	242.46
1847.117	243.93
1850.326	245.84
1853.535	244.84
1856.744	249.68
1859.952	249.19
1863.16	247.53
1866.368	245.49
1869.575	248.07
1872.782	244.41
1875.989	243.65
1879.196	242.6
1882.402	240.64
1885.608	241.49
1888.814	241.72
1892.019	239.47
1895.224	238.88
1898.429	237.69
1901.634	239.33
1904.838	239.47
1908.042	241.5
1911.246	242.66
1914.449	243.98
1917.652	245.06
1920.855	243.91
1924.058	243.78
1927.26	242.72
1930.462	243.6
1933.664	246.37
1936.865	244.52
1940.066	243.82
1943.267	242.54
1946.467	241.84
1949.668	243.87
1952.868	245.72
1956.067	245.95
1959.267	247.18
1962.466	248.21
1965.665	246.98
1968.863	247.81
1972.061	251.99
1975.259	253.74
1978.457	256.47
1981.654	258.39
1984.852	258.41
1988.048	258.16
1991.245	260.64
1994.441	262.93
1997.637	264.83
2000.833	270.7
2004.028	274.01
2007.223	274.63
2010.418	277.45
2013.613	281.91
2016.807	285.43
2020.001	287.15
2023.194	291.53
2026.388	298.21
2029.581	304.6
2032.774	307.79
2035.966	312.68
2039.158	313.31
2042.35	319.48
2045.542	322.46
2048.733	327.6
2051.924	331.11
2055.115	337.41
2058.306	337.89
2061.496	341.29
2064.686	342
2067.875	347.61
2071.065	348.59
2074.254	347.58
2077.442	351.73
2080.631	352.78
2083.819	355.58
2087.007	357.74
2090.195	361.43
2093.382	364.65
2096.569	362.05
2099.756	366.81
2102.942	367.89
2106.128	372.15
2109.314	379.78
2112.5	378.17
2115.685	386.85
2118.87	387
2122.055	394.43
2125.239	397.74
2128.424	403.02
2131.608	406.59
2134.791	412.54
2137.974	414.79
2141.157	415.51
2144.34	416.94
2147.523	423.74
2150.705	420.6
2153.887	424.78
2157.068	425.14
2160.25	420.87
2163.431	423.35
2166.611	427.68
2169.792	435.65
2172.972	439.51
2176.152	442.95
2179.331	448.72
2182.511	455.94
2185.69	461.45
2188.868	471.35
2192.047	471.24
2195.225	485.85
2198.403	496.75
2201.58	506.09
2204.758	515.19
2207.935	526.56
2211.111	535.44
2214.288	541.14
2217.464	542.54
2220.64	550.6
2223.815	557.8
2226.991	581.27
2230.166	581.95
2233.34	591.14
2236.515	601.07
2239.689	600.25
2242.863	603.12
2246.036	621.94
2249.209	617.73
2252.382	628.69
2255.555	648.01
2258.727	649.57
2261.9	654.05
2265.071	660.89
2268.243	671.87
2271.414	680.82
2274.585	698.4
2277.756	706.55
2280.926	710.13
2284.096	725.63
2287.266	742.69
2290.436	746.23
2293.605	763.11
2296.774	787.42
2299.942	809.9
2303.111	816.07
2306.279	831.62
2309.447	842.55
2312.614	862.13
2315.781	884.64
2318.948	930.1
2322.115	913.83
2325.281	964.62
2328.447	944.57
2331.613	982.77
2334.779	973.38
2337.944	1016.09
2341.109	1026.28
2344.274	1052.08
2347.438	1092.06
2350.602	1091.01
2353.766	1122.58
2356.929	1138.67
2360.092	1133.05
2363.255	1217.79
2366.418	1212.13
2369.58	1236.91
2372.742	1312.47
2375.904	1346.98
2379.066	1339.77
2382.227	1310.69
2385.388	1426.48
2388.548	1420.64
2391.709	1441.53
2394.869	1608.7
2398.029	1534.76
2401.188	1579
2404.347	1568.28
2407.506	1539.63
2410.665	1582.25
2413.823	1681.78
2416.981	1782.27
2420.139	1720.73
2423.296	1707.68
2426.453	1782.35
2429.61	1703.69
2432.767	1786.23
2435.923	1764.25
2439.079	1934.2
2442.235	1958.99
2445.391	1946.87
2448.546	1930.46
2451.701	1871.83
2454.855	1871.69
2458.009	1989.64
2461.163	2064.45
2464.317	2145.84
2467.471	2199.87
2470.624	2199.12
2473.777	2140.83
2476.929	2089.89
2480.082	2021.44
2483.234	1996.74
2486.385	2104.84
2489.537	2114.65
2492.688	2188.59
2495.839	2124.78
2498.989	2081.34
2502.14	2091.63
2505.29	2117.14
2508.439	2146.35
2511.589	2137.95
2514.738	2333.84
2517.887	2286.17
2521.035	2414.65
2524.183	2429.38
2527.331	2446.05
2530.479	2443.87
2533.627	2459.42
