Data from N_2_DIV_IL_4N_Splice17_13-37-17-130.txt Node
Date: Sat Mar 07 13:37:17 EST 2020
User: sa697716
Spectrometer: NQ5500242
Trigger mode: 0
Integration Time (sec): 1.450000E-1
Scans to average: 20
Nonlinearity correction enabled: false
Boxcar width: 5
Storing dark spectrum: false
XAxis mode: Wavelengths
Number of Pixels in Spectrum: 512
>>>>>Begin Spectral Data<<<<<
187.83	214.32
188.298	221.89
188.766	209.61
189.233	174.36
189.701	170.71
190.169	180.44
190.636	210.78
191.104	317.52
191.571	172.65
192.039	-93.87
192.506	-545.97
192.974	206.88
193.441	252.29
193.908	66.59
194.375	60.37
194.842	-8.83
195.31	-20.04
195.777	15.03
196.244	83.76
196.711	84.84
197.177	88.41
197.644	88.51
198.111	88.18
198.578	88.04
199.045	88.46
199.511	87.69
199.978	87.69
200.445	87.7
200.911	87.42
201.378	87.15
201.844	86.87
202.31	85.81
202.777	85.04
203.243	84.33
203.709	83.47
204.176	82.54
204.642	81.77
205.108	80.98
205.574	79.94
206.04	78.65
206.506	77.84
206.972	76.86
207.438	75.84
207.903	74.46
208.369	72.63
208.835	70.89
209.301	68.91
209.766	66.65
210.232	64.43
210.697	62.31
211.163	60.42
211.628	58.53
212.094	56.51
212.559	55
213.024	53.51
213.49	52.09
213.955	50.67
214.42	49.07
214.885	47.15
215.35	44.85
215.815	41.89
216.28	38.06
216.745	33.81
217.21	29.77
217.675	25.81
218.14	22.47
218.604	19.54
219.069	16.99
219.534	15.02
219.998	13.39
220.463	11.98
220.927	10.75
221.392	9.86
221.856	9.1
222.32	8.43
222.785	7.89
223.249	7.37
223.713	6.94
224.177	6.6
224.642	6.24
225.106	5.91
225.57	5.62
226.034	5.38
226.497	5.17
226.961	4.95
227.425	4.74
227.889	4.56
228.353	4.39
228.816	4.22
229.28	4.07
229.744	3.93
230.207	3.81
230.671	3.68
231.134	3.56
231.597	3.46
232.061	3.37
232.524	3.27
232.987	3.18
233.45	3.12
233.914	3.04
234.377	2.97
234.84	2.9
235.303	2.85
235.766	2.8
236.229	2.76
236.691	2.7
237.154	2.66
237.617	2.63
238.08	2.6
238.542	2.56
239.005	2.54
239.468	2.51
239.93	2.48
240.393	2.45
240.855	2.4
241.317	2.37
241.78	2.33
242.242	2.28
242.704	2.25
243.166	2.22
243.629	2.2
244.091	2.15
244.553	2.11
245.015	2.08
245.477	2.05
245.939	2.03
246.4	2
246.862	1.98
247.324	1.96
247.786	1.93
248.247	1.9
248.709	1.86
249.17	1.83
249.632	1.83
250.093	1.81
250.555	1.79
251.016	1.77
251.477	1.74
251.939	1.73
252.4	1.72
252.861	1.71
253.322	1.7
253.783	1.69
254.244	1.68
254.705	1.66
255.166	1.65
255.627	1.64
256.088	1.63
256.549	1.62
257.009	1.59
257.47	1.57
257.931	1.54
258.391	1.51
258.852	1.49
259.312	1.46
259.773	1.43
260.233	1.41
260.694	1.39
261.154	1.36
261.614	1.34
262.074	1.32
262.534	1.29
262.994	1.27
263.455	1.26
263.915	1.23
264.374	1.21
264.834	1.19
265.294	1.17
265.754	1.16
266.214	1.15
266.673	1.13
267.133	1.12
267.593	1.11
268.052	1.1
268.512	1.1
268.971	1.1
269.431	1.09
269.89	1.08
270.349	1.08
270.809	1.07
271.268	1.07
271.727	1.07
272.186	1.06
272.645	1.06
273.104	1.05
273.563	1.05
274.022	1.05
274.481	1.05
274.94	1.06
275.399	1.05
275.857	1.06
276.316	1.05
276.775	1.06
277.233	1.06
277.692	1.07
278.15	1.08
278.609	1.09
279.067	1.1
279.525	1.11
279.984	1.11
280.442	1.12
280.9	1.14
281.358	1.15
281.816	1.16
282.274	1.17
282.732	1.18
283.19	1.18
283.648	1.19
284.106	1.19
284.564	1.2
285.021	1.21
285.479	1.22
285.937	1.22
286.394	1.23
286.852	1.24
287.309	1.24
287.767	1.24
288.224	1.24
288.682	1.23
289.139	1.23
289.596	1.21
290.053	1.19
290.511	1.17
290.968	1.16
291.425	1.14
291.882	1.13
292.339	1.11
292.796	1.1
293.252	1.09
293.709	1.09
294.166	1.08
294.623	1.07
295.079	1.08
295.536	1.08
295.992	1.08
296.449	1.08
296.905	1.07
297.362	1.07
297.818	1.07
298.274	1.07
298.731	1.07
299.187	1.06
299.643	1.06
300.099	1.05
300.555	1.05
301.011	1.05
301.467	1.06
301.923	1.06
302.379	1.06
302.835	1.07
303.291	1.07
303.746	1.07
304.202	1.09
304.658	1.1
305.113	1.11
305.569	1.11
306.024	1.12
306.479	1.12
306.935	1.13
307.39	1.14
307.845	1.15
308.301	1.17
308.756	1.18
309.211	1.18
309.666	1.2
310.121	1.21
310.576	1.21
311.031	1.22
311.486	1.23
311.94	1.24
312.395	1.25
312.85	1.25
313.305	1.25
313.759	1.26
314.214	1.26
314.668	1.26
315.123	1.27
315.577	1.27
316.032	1.27
316.486	1.26
316.94	1.26
317.394	1.26
317.849	1.25
318.303	1.25
318.757	1.23
319.211	1.23
319.665	1.22
320.119	1.21
320.572	1.21
321.026	1.2
321.48	1.2
321.934	1.19
322.387	1.19
322.841	1.18
323.295	1.19
323.748	1.19
324.202	1.19
324.655	1.2
325.108	1.21
325.562	1.22
326.015	1.23
326.468	1.23
326.921	1.24
327.374	1.24
327.827	1.25
328.28	1.25
328.733	1.26
329.186	1.27
329.639	1.26
330.092	1.27
330.545	1.27
330.997	1.28
331.45	1.29
331.903	1.31
332.355	1.32
332.808	1.33
333.26	1.33
333.713	1.34
334.165	1.34
334.617	1.36
335.069	1.37
335.522	1.37
335.974	1.37
336.426	1.38
336.878	1.37
337.33	1.38
337.782	1.38
338.234	1.39
338.686	1.4
339.137	1.41
339.589	1.4
340.041	1.39
340.493	1.39
340.944	1.38
341.396	1.36
341.847	1.35
342.299	1.34
342.75	1.33
343.201	1.31
343.653	1.29
344.104	1.28
344.555	1.27
345.006	1.25
345.457	1.25
345.908	1.25
346.359	1.25
346.81	1.25
347.261	1.24
347.712	1.24
348.163	1.24
348.613	1.24
349.064	1.25
349.515	1.25
349.965	1.25
350.416	1.24
350.866	1.25
351.317	1.24
351.767	1.25
352.217	1.26
352.668	1.27
353.118	1.28
353.568	1.27
354.018	1.27
354.468	1.29
354.918	1.29
355.368	1.31
355.818	1.31
356.268	1.31
356.718	1.32
357.168	1.31
357.617	1.31
358.067	1.31
358.517	1.33
358.966	1.35
359.416	1.35
359.865	1.35
360.315	1.36
360.764	1.37
361.213	1.37
361.663	1.37
362.112	1.38
362.561	1.39
363.01	1.39
363.459	1.37
363.908	1.36
364.357	1.37
364.806	1.37
365.255	1.36
365.703	1.37
366.152	1.39
366.601	1.4
367.05	1.39
367.498	1.38
367.947	1.39
368.395	1.41
368.844	1.41
369.292	1.4
369.74	1.41
370.189	1.41
370.637	1.4
371.085	1.39
371.533	1.39
371.981	1.39
372.429	1.4
372.877	1.4
373.325	1.39
373.773	1.4
374.221	1.4
374.669	1.4
375.116	1.38
375.564	1.39
376.012	1.39
376.459	1.38
376.907	1.4
377.354	1.4
377.801	1.41
378.249	1.42
378.696	1.42
379.143	1.43
379.591	1.43
380.038	1.45
380.485	1.46
380.932	1.47
381.379	1.49
381.826	1.5
382.273	1.51
382.72	1.51
383.166	1.53
383.613	1.56
384.06	1.58
384.506	1.63
384.953	1.68
385.4	1.75
385.846	1.84
386.292	1.92
386.739	2.03
387.185	2.16
387.631	2.29
388.078	2.41
388.524	2.52
388.97	2.65
389.416	2.8
389.862	3
390.308	3.26
390.754	3.57
391.2	3.88
391.645	4.17
392.091	4.43
392.537	4.73
392.983	5.13
393.428	5.7
393.874	6.39
394.319	7.17
394.765	8
395.21	8.85
395.655	9.77
396.101	10.76
396.546	11.85
396.991	13.09
397.436	14.4
397.881	15.76
398.326	17.05
398.771	18.29
399.216	19.45
399.661	20.53
400.106	21.47
400.551	22.32
400.995	23.06
401.44	23.76
401.885	24.41
402.329	25.09
402.774	25.81
403.218	26.61
403.663	27.45
404.107	28.35
404.551	29.28
404.995	30.2
405.44	31.06
405.884	31.99
406.328	33.01
406.772	34.12
407.216	35.26
407.66	36.29
408.104	37.2
408.547	38.02
408.991	38.77
409.435	39.59
409.879	40.49
410.322	41.55
410.766	42.65
411.209	43.68
411.653	44.59
412.096	45.41
412.54	46.18
412.983	47.01
413.426	47.88
413.869	48.77
414.312	49.6
414.756	50.32
415.199	50.92
415.642	51.43
416.085	51.83
416.527	52.09
416.97	52.16
417.413	52.12
417.856	51.98
418.298	51.87
418.741	51.82
419.184	51.85
419.626	52.04
420.069	52.27
420.511	52.53
420.953	52.85
421.396	53.34
421.838	54.01
422.28	54.75
422.722	55.52
423.164	56.2
423.606	56.78
424.048	57.22
424.49	57.28
424.932	56.94
425.374	56.09
425.816	54.91
426.258	53.67
426.699	52.81
427.141	52.63
427.582	53.03
428.024	53.79
428.465	54.57
428.907	55.21
429.348	55.87
429.789	56.9
430.231	58.62
430.672	60.97
431.113	63.57
431.554	65.96
431.995	67.77
432.436	69.04
432.877	70.03
433.318	70.89
433.759	71.9
434.2	73.16
434.64	74.54
435.081	75.8
435.522	76.91
435.962	77.75
436.403	78.47
436.843	79.03
437.284	79.57
437.724	80.22
438.164	81.05
438.604	82.06
439.045	83.05
439.485	83.91
439.925	84.64
440.365	85.2
440.805	85.64
441.245	85.95
441.685	86.32
442.125	86.7
442.564	87.13
443.004	87.56
443.444	88.12
443.883	88.71
444.323	89.32
444.762	89.93
445.202	90.6
445.641	91.45
446.081	92.59
446.52	93.62
446.959	94.63
447.398	95.35
447.837	95.66
448.276	95.57
448.716	95.4
449.154	95.27
449.593	95.09
450.032	94.69
450.471	94.09
450.91	93.31
451.349	92.59
451.787	91.88
452.226	91.28
452.664	90.88
453.103	90.56
453.541	90.14
453.98	89.61
454.418	88.98
454.856	88.36
455.295	87.88
455.733	87.37
456.171	86.92
456.609	86.62
457.047	86.22
457.485	86.03
457.923	85.99
458.361	86.07
458.798	86.3
459.236	86.5
459.674	86.8
460.111	87.06
460.549	87.45
460.987	87.83
461.424	88.15
461.862	88.62
462.299	88.91
462.736	89.22
463.173	89.67
463.611	90.16
464.048	90.89
464.485	91.66
464.922	92.5
465.359	93.29
465.796	94
466.233	94.74
466.67	95.52
467.106	96.46
467.543	97.47
467.98	98.43
468.416	99.28
468.853	99.96
469.29	100.6
469.726	101.23
470.162	101.88
470.599	102.52
471.035	103.04
471.471	103.4
471.907	103.5
472.344	103.51
472.78	103.42
473.216	103.39
473.652	103.39
474.088	103.25
474.523	103.08
474.959	102.86
475.395	102.58
475.831	102.26
476.266	101.98
476.702	101.74
477.138	101.42
477.573	101.04
478.008	100.52
478.444	99.89
478.879	99.2
479.314	98.42
479.75	97.56
480.185	96.59
480.62	95.47
481.055	93.98
481.49	92.16
481.925	90.16
482.36	88.3
482.795	86.7
483.229	85.37
483.664	84.3
484.099	83.31
484.534	82.43
484.968	81.76
485.403	81.32
485.837	81.31
486.271	81.62
486.706	82
487.14	82.29
487.574	82.36
488.009	82.28
488.443	82.15
488.877	82.06
489.311	82.01
489.745	81.96
490.179	81.97
490.613	81.91
491.046	81.91
491.48	81.98
491.914	82.14
492.348	82.44
492.781	82.77
493.215	83.04
493.648	83.22
494.082	83.33
494.515	83.42
494.948	83.48
495.382	83.53
495.815	83.52
496.248	83.54
496.681	83.46
497.114	83.31
497.547	83.15
497.98	83.11
498.413	83.22
498.846	83.42
499.279	83.58
499.711	83.69
500.144	83.89
500.577	84.2
501.009	84.63
501.442	85.25
501.874	85.9
502.306	86.59
502.739	87.17
503.171	87.63
503.603	88.02
504.036	88.49
504.468	89.04
504.9	89.6
505.332	90.09
505.764	90.5
506.196	90.85
506.627	91.22
507.059	91.68
507.491	92.18
507.923	92.66
508.354	93.2
508.786	93.64
509.217	93.99
509.649	94.27
510.08	94.53
510.512	94.88
510.943	95.27
511.374	95.63
511.805	95.75
512.237	95.63
512.668	95.43
513.099	95.21
513.53	95.13
513.961	95.12
514.391	95.24
514.822	95.52
515.253	95.85
515.684	96.19
516.114	96.62
516.545	97.2
516.975	98.12
517.406	99.18
517.836	100.21
518.267	101.13
518.697	101.98
519.127	102.76
519.558	103.51
519.988	104.2
520.418	104.82
520.848	105.33
521.278	105.74
521.708	106
522.138	106.01
522.567	105.94
522.997	105.93
523.427	106.03
523.857	106.22
524.286	106.4
524.716	106.6
525.145	106.77
525.575	106.98
526.004	107.25
526.433	107.65
526.863	108.33
527.292	109.04
527.721	109.55
528.15	109.83
528.579	109.91
529.008	109.91
529.437	109.8
529.866	109.69
530.295	109.64
530.724	109.65
531.152	109.65
531.581	109.6
532.01	109.52
532.438	109.47
532.867	109.54
533.295	109.67
533.723	109.78
534.152	109.89
534.58	109.95
535.008	109.83
535.436	109.62
535.865	109.26
536.293	108.88
536.721	108.63
537.149	108.55
537.576	108.56
538.004	108.63
538.432	108.61
538.86	108.65
539.287	108.75
539.715	109
540.143	109.36
540.57	109.84
540.998	110.37
541.425	110.86
541.852	111.36
542.28	111.8
542.707	112.19
543.134	112.59
543.561	112.93
543.988	113.27
544.415	113.63
544.842	113.98
545.269	114.33
545.696	114.65
546.123	115.04
546.549	115.33
546.976	115.6
547.403	115.9
547.829	116.22
548.256	116.58
548.682	116.87
549.108	117.17
549.535	117.45
549.961	117.68
550.387	117.91
550.813	118.14
551.24	118.38
551.666	118.52
552.092	118.59
552.518	118.6
552.943	118.54
553.369	118.5
553.795	118.35
554.221	118.07
554.646	117.72
555.072	117.26
555.498	116.78
555.923	116.35
556.349	116.02
556.774	115.73
557.199	115.44
557.625	115.16
558.05	114.9
558.475	114.64
558.9	114.45
559.325	114.29
559.75	114.09
560.175	113.87
560.6	113.52
561.025	113.03
561.449	112.44
561.874	111.81
562.299	111.23
562.723	110.63
563.148	110
563.572	109.3
563.997	108.56
564.421	107.8
564.846	107.06
565.27	106.33
565.694	105.64
566.118	104.91
566.542	104.18
566.966	103.4
567.39	102.72
567.814	102.09
568.238	101.61
568.662	101.22
569.086	100.94
569.509	100.66
569.933	100.43
570.357	100.22
570.78	100.07
571.204	100
571.627	99.94
572.05	99.86
572.474	99.78
572.897	99.69
573.32	99.53
573.743	99.36
574.166	99.16
574.589	99
575.012	98.9
575.435	98.92
575.858	98.98
576.281	99.14
576.704	99.29
577.126	99.41
577.549	99.54
577.972	99.81
578.394	100.12
578.817	100.48
579.239	100.87
579.661	101.24
580.084	101.53
580.506	101.81
580.928	101.96
581.35	102.09
581.772	102.16
582.194	102.22
582.616	102.29
583.038	102.31
583.46	102.27
583.882	102.13
584.303	101.76
584.725	101.24
585.147	100.61
585.568	100.1
585.99	99.69
586.411	99.47
586.833	99.27
587.254	99.05
587.675	98.88
588.096	98.76
588.518	98.76
588.939	98.96
589.36	99.31
589.781	99.8
590.202	100.14
590.623	100.35
591.043	100.43
591.464	100.48
591.885	100.46
592.305	100.46
592.726	100.4
593.147	100.24
593.567	100.08
593.987	99.84
594.408	99.58
594.828	99.39
595.248	99.19
595.669	98.96
596.089	98.63
596.509	98.31
596.929	97.88
597.349	97.46
597.769	97.02
598.189	96.61
598.608	96.35
599.028	96.1
599.448	95.88
599.867	95.67
600.287	95.49
600.706	95.33
601.126	95.18
601.545	95.06
601.965	94.99
602.384	94.98
602.803	94.92
603.222	94.75
603.641	94.57
604.061	94.36
604.48	94.12
604.898	93.89
605.317	93.66
605.736	93.4
606.155	93.15
606.574	92.88
606.992	92.61
607.411	92.38
607.829	92.17
608.248	91.95
608.666	91.71
609.085	91.48
609.503	91.21
609.921	90.94
610.339	90.72
610.758	90.54
611.176	90.31
611.594	90.02
612.012	89.67
612.43	89.27
612.847	88.95
613.265	88.68
613.683	88.5
614.101	88.38
614.518	88.27
614.936	88.15
615.353	87.99
615.771	87.91
616.188	87.91
616.606	87.94
617.023	88.03
617.44	88.05
617.857	87.99
618.274	87.84
618.691	87.62
619.108	87.39
619.525	87.12
619.942	86.84
620.359	86.5
620.776	86.09
621.192	85.69
621.609	85.29
622.026	84.95
622.442	84.68
622.859	84.42
623.275	84.13
623.691	83.82
624.108	83.5
624.524	83.24
624.94	83
625.356	82.79
625.772	82.57
626.188	82.41
626.604	82.2
627.02	81.96
627.436	81.73
627.852	81.6
628.268	81.55
628.683	81.55
629.099	81.53
629.514	81.54
629.93	81.56
630.345	81.63
630.761	81.67
631.176	81.73
631.591	81.72
632.007	81.78
632.422	81.84
632.837	81.88
633.252	81.9
633.667	81.96
634.082	81.97
634.497	82.04
634.911	82.02
635.326	81.96
635.741	81.86
636.155	81.79
636.57	81.66
636.984	81.51
637.399	81.31
637.813	81.15
638.228	80.91
638.642	80.7
639.056	80.45
639.47	80.28
639.884	80.09
640.298	79.95
640.712	79.82
641.126	79.65
641.54	79.45
641.954	79.27
642.368	79
642.781	78.77
643.195	78.52
643.609	78.25
644.022	77.97
644.436	77.7
644.849	77.37
645.262	76.99
645.676	76.67
646.089	76.47
646.502	76.29
646.915	76.18
647.328	76.03
647.741	75.91
648.154	75.81
648.567	75.71
648.98	75.64
649.393	75.65
649.805	75.69
650.218	75.72
650.631	75.56
651.043	75.23
651.456	74.64
651.868	73.83
652.28	72.91
652.693	72.12
653.105	71.45
653.517	70.97
653.929	70.56
654.341	70.25
654.753	69.98
655.165	69.85
655.577	69.91
655.989	70.23
656.401	70.78
656.813	71.49
657.224	72.03
657.636	72.45
658.047	72.71
658.459	72.86
658.87	72.9
659.282	72.89
659.693	72.81
660.104	72.68
660.515	72.52
660.926	72.39
661.338	72.21
661.749	72.03
662.159	71.82
662.57	71.61
662.981	71.4
663.392	71.19
663.803	70.98
664.213	70.81
664.624	70.67
665.035	70.51
665.445	70.31
665.855	70.09
666.266	69.89
666.676	69.67
667.086	69.36
667.497	69.09
667.907	68.84
668.317	68.58
668.727	68.33
669.137	68.06
669.547	67.82
669.956	67.57
670.366	67.34
670.776	67.13
671.186	66.92
671.595	66.77
672.005	66.64
672.414	66.53
672.824	66.39
673.233	66.26
673.642	66.18
674.052	66.06
674.461	65.96
674.87	65.87
675.279	65.81
675.688	65.75
676.097	65.69
676.506	65.64
676.915	65.6
677.323	65.57
677.732	65.55
678.141	65.51
678.549	65.49
678.958	65.5
679.366	65.48
679.775	65.42
680.183	65.39
680.592	65.38
681	65.37
681.408	65.31
681.816	65.2
682.224	64.8
682.632	64.06
683.04	63.01
683.448	61.94
683.856	60.94
684.264	60.1
684.671	59.29
685.079	58.48
685.487	57.75
685.894	57.16
686.302	56.71
686.709	56.65
687.116	57.01
687.524	57.79
687.931	58.66
688.338	59.53
688.745	60.36
689.152	61.17
689.559	61.99
689.966	62.75
690.373	63.44
690.78	64.1
691.187	64.67
691.593	65.21
692	65.69
692.407	66.18
692.813	66.66
693.22	67.06
693.626	67.46
694.032	67.87
694.439	68.24
694.845	68.58
695.251	68.9
695.657	69.17
696.063	69.4
696.469	69.58
696.875	69.71
697.281	69.78
697.687	69.85
698.093	69.89
698.498	69.96
698.904	70.07
699.31	70.21
699.715	70.41
700.12	70.66
700.526	70.95
700.931	71.25
701.337	71.57
701.742	71.86
702.147	72.18
702.552	72.53
702.957	72.79
703.362	73.08
703.767	73.32
704.172	73.53
704.577	73.69
704.981	73.82
705.386	73.93
705.791	74.05
706.195	74.24
706.6	74.4
707.004	74.53
707.408	74.66
707.813	74.77
708.217	74.85
708.621	74.95
709.025	75.02
709.43	75.1
709.834	75.23
710.237	75.29
710.641	75.28
711.045	75.28
711.449	75.27
711.853	75.28
712.256	75.1
712.66	74.8
713.064	74.31
713.467	73.71
713.87	72.97
714.274	72.05
714.677	71.08
715.08	70.06
715.484	69.08
715.887	68.13
716.29	67.26
716.693	66.69
717.096	66.47
717.499	66.58
717.901	66.9
718.304	67.37
718.707	67.94
719.109	68.5
719.512	68.99
719.915	69.44
720.317	69.78
720.719	70.06
721.122	70.21
721.524	70.19
721.926	70.01
722.328	69.78
722.731	69.5
723.133	69.27
723.535	69.14
723.937	69.11
724.338	69.09
724.74	69.12
725.142	69.27
725.544	69.29
725.945	69.35
726.347	69.35
726.748	69.34
727.15	69.37
727.551	69.5
727.952	69.69
728.354	69.92
728.755	70.23
729.156	70.6
729.557	70.88
729.958	71.31
730.359	71.7
730.76	72.12
731.161	72.48
731.562	72.82
731.962	73.04
732.363	73.19
732.763	73.34
733.164	73.44
733.564	73.5
733.965	73.48
734.365	73.38
734.766	73.21
735.166	73.06
735.566	72.99
735.966	72.95
736.366	72.86
736.766	72.78
737.166	72.63
737.566	72.46
737.966	72.33
738.365	72.24
738.765	72.21
739.165	72.26
739.564	72.3
739.964	72.24
740.363	72.18
740.763	72.18
741.162	72.18
741.561	72.2
741.96	72.21
742.36	72.2
742.759	72.17
743.158	72.12
743.557	72.02
743.955	71.92
744.354	71.86
744.753	71.79
745.152	71.69
745.55	71.56
745.949	71.42
746.348	71.3
746.746	71.12
747.144	70.94
747.543	70.75
747.941	70.59
748.339	70.38
748.737	70.17
749.136	69.98
749.534	69.76
749.932	69.61
750.33	69.48
750.727	69.33
751.125	69.2
751.523	69.06
751.921	68.91
752.318	68.75
752.716	68.6
753.113	68.43
753.511	68.26
753.908	68.11
754.305	67.86
754.703	67.28
755.1	66.12
755.497	64.12
755.894	61.16
756.291	57.54
756.688	53.61
757.085	49.84
757.482	46.36
757.878	43.12
758.275	39.96
758.672	36.74
759.068	33.8
759.465	31.47
759.861	30.19
760.258	30.07
760.654	30.89
761.05	32.26
761.447	33.77
761.843	35.21
762.239	36.63
762.635	38.28
763.031	40.25
763.427	42.5
763.822	44.9
764.218	47.29
764.614	49.56
765.01	51.64
765.405	53.55
765.801	55.26
766.196	56.8
766.592	58.1
766.987	59.14
767.382	59.94
767.778	60.54
768.173	60.97
768.568	61.27
768.963	61.51
769.358	61.7
769.753	61.78
770.148	61.81
770.542	61.73
770.937	61.68
771.332	61.61
771.726	61.57
772.121	61.5
772.515	61.4
772.91	61.27
773.304	61.11
773.699	60.93
774.093	60.78
774.487	60.64
774.881	60.57
775.275	60.42
775.669	60.25
776.063	60.04
776.457	59.86
776.851	59.66
777.245	59.46
777.638	59.31
778.032	59.22
778.425	59.1
778.819	58.93
779.212	58.71
779.606	58.52
779.999	58.33
780.392	58.16
780.786	57.97
781.179	57.82
781.572	57.67
781.965	57.45
782.358	57.21
782.751	56.96
783.143	56.76
783.536	56.54
783.929	56.31
784.322	56.12
784.714	55.89
785.107	55.64
785.499	55.34
785.891	55.04
786.284	54.78
786.676	54.48
787.068	54.19
787.46	53.88
787.852	53.58
788.245	53.29
788.636	52.94
789.028	52.59
789.42	52.25
789.812	51.96
790.204	51.67
790.595	51.35
790.987	51.06
791.378	50.81
791.77	50.55
792.161	50.29
792.553	50.08
792.944	49.88
793.335	49.73
793.726	49.59
794.117	49.42
794.508	49.24
794.899	49.06
795.29	48.86
795.681	48.57
796.072	48.31
796.463	48.1
796.853	47.84
797.244	47.56
797.634	47.28
798.025	47
798.415	46.67
798.806	46.33
799.196	46.01
799.586	45.72
799.976	45.47
800.366	45.21
800.756	44.88
801.146	44.6
801.536	44.33
801.926	44.05
802.316	43.77
802.706	43.53
803.095	43.31
803.485	43.02
803.874	42.71
804.264	42.43
804.653	42.13
805.043	41.84
805.432	41.51
805.821	41.16
806.21	40.81
806.599	40.44
806.988	40.08
807.377	39.69
807.766	39.32
808.155	38.94
808.544	38.52
808.933	38.07
809.321	37.6
809.71	37.1
810.098	36.56
810.487	36
810.875	35.41
811.264	34.78
811.652	34.18
812.04	33.52
812.428	32.87
812.816	32.26
813.204	31.68
813.592	31.13
813.98	30.63
814.368	30.19
814.756	29.77
815.144	29.37
815.531	29.05
815.919	28.78
816.306	28.63
816.694	28.54
817.081	28.44
817.469	28.35
817.856	28.2
818.243	27.96
818.63	27.66
819.017	27.31
819.404	27.03
819.791	26.8
820.178	26.59
820.565	26.35
820.952	26.09
821.339	25.84
821.725	25.61
822.112	25.47
822.498	25.39
822.885	25.39
823.271	25.4
823.657	25.29
824.044	25.15
824.43	24.94
824.816	24.73
825.202	24.48
825.588	24.24
825.974	24.01
826.36	23.76
826.746	23.52
827.132	23.27
827.517	23.05
827.903	22.89
828.289	22.71
828.674	22.53
829.06	22.35
829.445	22.18
829.83	22.03
830.216	21.85
830.601	21.71
830.986	21.6
831.371	21.48
831.756	21.38
832.141	21.29
832.526	21.2
832.911	21.12
833.295	21.05
833.68	20.99
834.065	20.9
834.449	20.84
834.834	20.74
835.218	20.65
835.603	20.56
835.987	20.46
836.371	20.36
836.755	20.25
837.139	20.14
837.524	20.05
837.908	19.94
838.291	19.85
838.675	19.75
839.059	19.64
839.443	19.52
839.827	19.38
840.21	19.27
840.594	19.16
840.977	19.07
841.361	18.99
841.744	18.86
842.127	18.76
842.511	18.65
842.894	18.53
843.277	18.43
843.66	18.34
844.043	18.26
844.426	18.18
844.809	18.08
845.191	17.95
845.574	17.79
845.957	17.64
846.339	17.49
846.722	17.36
847.104	17.24
847.487	17.12
847.869	17
848.252	16.87
848.634	16.75
849.016	16.64
849.398	16.52
849.78	16.37
850.162	16.2
850.544	16.05
850.926	15.9
851.307	15.76
851.689	15.64
852.071	15.53
852.452	15.44
852.834	15.33
853.215	15.26
853.597	15.24
853.978	15.25
854.359	15.29
854.741	15.33
855.122	15.35
855.503	15.35
855.884	15.33
856.265	15.31
856.646	15.25
857.026	15.23
857.407	15.16
857.788	15.1
858.169	15.04
858.549	15
858.93	14.93
859.31	14.87
859.69	14.82
860.071	14.77
860.451	14.69
860.831	14.62
861.211	14.5
861.591	14.38
861.971	14.23
862.351	14.07
862.731	13.91
863.111	13.75
863.491	13.64
863.87	13.5
864.25	13.39
864.629	13.29
865.009	13.21
865.388	13.15
865.768	13.12
866.147	13.1
866.526	13.12
866.905	13.14
867.284	13.15
867.663	13.12
868.042	13.11
868.421	13.09
868.8	13.08
869.179	13.04
869.558	13.01
869.936	12.97
870.315	12.93
870.693	12.87
871.072	12.81
871.45	12.76
871.828	12.72
872.207	12.69
872.585	12.63
872.963	12.56
873.341	12.53
873.719	12.51
874.097	12.47
874.475	12.44
874.853	12.42
875.23	12.4
875.608	12.36
875.986	12.32
876.363	12.27
876.741	12.22
877.118	12.19
877.495	12.13
877.873	12.07
878.25	12.04
878.627	12.01
879.004	11.94
879.381	11.9
879.758	11.85
880.135	11.8
880.512	11.76
880.889	11.74
881.265	11.69
881.642	11.66
882.019	11.61
882.395	11.56
882.772	11.5
883.148	11.44
883.524	11.39
883.901	11.34
884.277	11.3
884.653	11.25
885.029	11.2
885.405	11.17
885.781	11.12
886.157	11.08
886.532	11.04
886.908	11
887.284	10.97
887.659	10.93
888.035	10.89
888.411	10.84
888.786	10.8
889.161	10.74
889.537	10.67
889.912	10.62
890.287	10.55
890.662	10.48
891.037	10.41
891.412	10.33
891.787	10.24
892.162	10.15
892.536	10.05
892.911	9.95
893.286	9.85
893.66	9.75
894.035	9.64
894.409	9.54
894.784	9.43
895.158	9.32
895.532	9.21
895.906	9.13
896.281	9.05
896.655	8.96
897.029	8.9
897.402	8.83
897.776	8.77
898.15	8.71
898.524	8.67
898.898	8.65
899.271	8.66
899.645	8.68
900.018	8.71
900.392	8.75
900.765	8.81
901.138	8.85
901.511	8.91
901.884	8.99
902.258	9.06
902.631	9.12
903.003	9.16
903.376	9.17
903.749	9.15
904.122	9.13
904.495	9.08
904.867	9.03
905.24	8.97
905.612	8.91
905.985	8.83
906.357	8.75
906.729	8.7
907.102	8.63
907.474	8.6
907.846	8.58
908.218	8.55
908.59	8.55
908.962	8.53
909.334	8.52
909.705	8.51
910.077	8.51
910.449	8.51
910.82	8.49
911.192	8.49
911.563	8.48
911.935	8.46
912.306	8.45
912.677	8.43
913.048	8.42
913.419	8.41
913.79	8.4
914.161	8.39
914.532	8.38
914.903	8.39
915.274	8.4
915.645	8.4
916.015	8.41
916.386	8.44
916.756	8.46
917.127	8.49
917.497	8.51
917.868	8.52
918.238	8.56
918.608	8.59
918.978	8.61
919.348	8.61
919.718	8.63
920.088	8.63
920.458	8.61
920.828	8.58
921.198	8.56
921.567	8.56
921.937	8.55
922.306	8.51
922.676	8.48
923.045	8.45
923.415	8.44
923.784	8.4
924.153	8.41
924.522	8.39
924.891	8.37
925.26	8.34
925.629	8.29
925.998	8.23
926.367	8.18
926.736	8.13
927.104	8.06
927.473	7.96
927.842	7.85
928.21	7.71
928.578	7.58
928.947	7.46
929.315	7.3
929.683	7.16
930.051	7.03
930.42	6.9
930.788	6.75
931.156	6.59
931.523	6.48
931.891	6.4
932.259	6.32
932.627	6.25
932.994	6.17
933.362	6.13
933.729	6.1
934.097	6.11
934.464	6.12
934.831	6.14
935.199	6.19
935.566	6.28
935.933	6.31
936.3	6.4
936.667	6.51
937.034	6.72
937.401	6.86
937.767	7.01
938.134	7.15
938.501	7.31
938.867	7.51
939.234	7.65
939.6	7.76
939.967	7.91
940.333	8
940.699	8.05
941.065	8.01
941.431	8.04
941.798	8.07
942.163	8.04
942.529	8.02
942.895	7.96
943.261	7.89
943.627	7.86
943.992	7.84
944.358	7.84
944.723	7.84
945.089	7.81
945.454	7.78
945.82	7.76
946.185	7.78
946.55	7.77
946.915	7.77
947.28	7.79
947.645	7.76
948.01	7.76
948.375	7.72
948.74	7.68
949.104	7.68
949.469	7.67
949.834	7.64
950.198	7.62
950.562	7.57
950.927	7.56
951.291	7.51
951.655	7.47
952.02	7.42
952.384	7.39
952.748	7.38
953.112	7.36
953.476	7.31
953.839	7.27
954.203	7.23
954.567	7.23
954.931	7.18
955.294	7.19
955.658	7.22
956.021	7.2
956.385	7.19
956.748	7.19
957.111	7.15
957.474	7.16
957.837	7.17
958.2	7.17
958.563	7.15
958.926	7.17
959.289	7.17
959.652	7.16
960.015	7.18
960.377	7.2
960.74	7.2
961.102	7.24
961.465	7.26
961.827	7.36
962.189	7.41
962.552	7.43
962.914	7.47
963.276	7.5
963.638	7.5
964	7.52
964.362	7.57
964.724	7.6
965.085	7.61
965.447	7.62
965.809	7.57
966.17	7.6
966.532	7.64
966.893	7.7
967.255	7.72
967.616	7.84
967.977	7.92
968.338	7.93
968.699	7.98
969.061	8.03
969.421	8.11
969.782	8.18
970.143	8.21
970.504	8.3
970.865	8.33
971.225	8.39
971.586	8.32
971.946	8.29
972.307	8.32
972.667	8.32
973.027	8.34
973.388	8.33
973.748	8.33
974.108	8.38
974.468	8.31
974.828	8.33
975.188	8.34
975.548	8.35
975.907	8.34
976.267	8.37
976.627	8.41
976.986	8.42
977.346	8.42
977.705	8.45
978.064	8.46
978.424	8.51
978.783	8.48
979.142	8.51
979.501	8.59
979.86	8.68
980.219	8.72
980.578	8.77
980.937	8.79
981.296	8.87
981.654	8.92
982.013	8.98
982.371	9.06
982.73	9.14
983.088	9.2
983.447	9.22
983.805	9.29
984.163	9.31
984.521	9.35
984.879	9.36
985.237	9.47
985.595	9.58
985.953	9.59
986.311	9.55
986.669	9.61
987.026	9.63
987.384	9.72
987.741	9.78
988.099	9.93
988.456	9.99
988.814	10.09
989.171	10.11
989.528	10.09
989.885	10.13
990.242	10.23
990.599	10.3
990.956	10.39
991.313	10.44
991.67	10.46
992.027	10.57
992.383	10.62
992.74	10.78
993.096	10.83
993.453	10.9
993.809	11.04
994.165	11.14
994.522	11.25
994.878	11.34
995.234	11.46
995.59	11.57
995.946	11.57
996.302	11.63
996.658	11.61
997.013	11.72
997.369	11.82
997.725	11.86
998.08	11.97
998.436	11.96
998.791	12.03
999.147	12.01
999.502	12.15
999.857	12.23
1000.212	12.25
1000.567	12.33
1000.922	12.36
1001.277	12.4
1001.632	12.45
1001.987	12.52
1002.342	12.52
1002.696	12.61
1003.051	12.87
1003.406	12.95
1003.76	13.02
1004.114	13.2
1004.469	13.33
1004.823	13.64
1005.177	13.69
1005.531	13.82
1005.885	13.89
1006.239	14.14
1006.593	14.4
1006.947	14.42
1007.301	14.35
1007.655	14.37
1008.008	14.51
1008.362	14.78
1008.715	14.7
1009.069	14.84
1009.422	15.06
1009.776	15.1
1010.129	15.18
1010.482	15.2
1010.835	15.27
1011.188	15.59
1011.541	15.79
1011.894	16.09
1012.247	15.97
1012.6	16.05
1012.952	16.24
1013.305	16.24
1013.657	16.68
1014.01	16.95
1014.362	17.09
1014.715	17.51
1015.067	17.6
1015.419	17.75
1015.771	17.63
1016.123	18.03
1016.475	18.21
1016.827	18.36
1017.179	18.7
1017.531	18.74
1017.883	18.65
1018.234	19.03
1018.586	19.01
1018.938	19.38
1019.289	19.47
1019.64	19.79
1019.992	19.89
1020.343	20.23
1020.694	20.56
1021.045	20.66
1021.396	20.78
1021.747	21.39
1022.098	21.43
1022.449	21.59
1022.8	21.8
1023.151	22.04
1023.501	22.48
1023.852	22.68
1024.202	22.8
1024.553	22.88
1024.903	23.35
1025.253	23.91
1025.604	24
1025.954	24.05
1026.304	24.32
1026.654	24.57
1027.004	24.84
1027.354	24.78
1027.703	24.91
1028.053	25.12
1028.403	25.49
1028.753	25.38
1029.102	25.5
1029.452	25.83
1029.801	26.38
1030.15	26.56
1030.499	26.39
897.758	1690.65
901.051	1699.14
904.343	1688.71
907.636	1719.03
910.928	1673.16
914.22	1669.63
917.511	1648.5
920.803	1577.54
924.094	1573.14
927.384	1539.69
930.675	1469.92
933.965	1460.31
937.255	1373.14
940.544	1320.19
943.834	1256.2
947.123	1245.02
950.411	1174.05
953.7	1148.48
956.988	1082.7
960.276	1038.33
963.563	1023.14
966.851	987.89
970.138	980.1
973.424	949.9
976.711	957.85
979.997	909.06
983.283	904.59
986.568	885.41
989.853	856.32
993.138	844.14
996.423	812.5
999.708	788.99
1002.992	779.26
1006.275	741.48
1009.559	733.99
1012.842	706.32
1016.125	687.49
1019.408	675.6
1022.69	665.88
1025.972	653.88
1029.254	637.69
1032.536	625.8
1035.817	611.84
1039.098	604.27
1042.379	592.6
1045.659	586.26
1048.939	571.09
1052.219	559.86
1055.498	549.58
1058.778	537.67
1062.057	523.2
1065.335	517.57
1068.614	510.4
1071.892	506.75
1075.17	488.73
1078.447	479.99
1081.724	477.24
1085.001	473.48
1088.278	463.75
1091.554	454.48
1094.83	453.94
1098.106	452.58
1101.382	447.5
1104.657	445.69
1107.932	437.19
1111.206	442.48
1114.481	429.06
1117.755	424.91
1121.029	421.49
1124.302	421.79
1127.575	413.52
1130.848	408.71
1134.121	403.72
1137.393	402.61
1140.665	392.98
1143.937	391.55
1147.208	386.24
1150.48	388.01
1153.75	381.88
1157.021	375.96
1160.291	375.46
1163.561	372.98
1166.831	372.15
1170.101	369.74
1173.37	368.47
1176.639	369.87
1179.907	365.08
1183.176	362.18
1186.444	361.72
1189.711	361.54
1192.979	360.79
1196.246	358.12
1199.513	358.4
1202.78	356.98
1206.046	356.54
1209.312	352.51
1212.578	353.06
1215.843	357.01
1219.108	354.51
1222.373	361.67
1225.638	364.03
1228.902	370.08
1232.166	369.44
1235.43	373.4
1238.693	378.97
1241.956	380.37
1245.219	387
1248.482	386.13
1251.744	385.63
1255.006	387.48
1258.268	377.55
1261.529	373.86
1264.79	370.53
1268.051	369.5
1271.312	363.84
1274.572	358.78
1277.832	355.23
1281.092	349.94
1284.351	347.43
1287.61	347
1290.869	341.77
1294.128	339.83
1297.386	340.08
1300.644	336.31
1303.902	337.08
1307.159	336.09
1310.416	336.05
1313.673	336.65
1316.93	339.82
1320.186	340.46
1323.442	341.67
1326.697	347.62
1329.953	348.93
1333.208	351.09
1336.463	354.74
1339.717	355.57
1342.972	360.07
1346.226	362.34
1349.479	362.32
1352.733	364.36
1355.986	365.56
1359.238	365.23
1362.491	368.02
1365.743	370.13
1368.995	370.37
1372.247	369.24
1375.498	369.65
1378.749	373.3
1382	369.23
1385.251	371.7
1388.501	368.63
1391.751	371.08
1395	369.08
1398.25	365.77
1401.499	365.44
1404.748	364.73
1407.996	360.68
1411.244	359.24
1414.492	356.54
1417.74	354.26
1420.987	348.7
1424.234	349.37
1427.481	344.05
1430.728	344.12
1433.974	340.77
1437.22	337.65
1440.465	336.01
1443.711	335.03
1446.956	333.24
1450.201	327.85
1453.445	324.86
1456.689	323.71
1459.933	317.4
1463.177	315.21
1466.42	310.55
1469.663	306.79
1472.906	304.81
1476.148	297.1
1479.391	293.43
1482.633	290
1485.874	285.63
1489.115	283.64
1492.356	280.22
1495.597	279.67
1498.838	275.46
1502.078	273.34
1505.318	271.83
1508.557	271.65
1511.797	270.84
1515.036	269.25
1518.274	268.47
1521.513	266.37
1524.751	266.17
1527.989	265.11
1531.227	264.09
1534.464	264.92
1537.701	262.79
1540.938	261.99
1544.174	258.75
1547.41	258.86
1550.646	257.48
1553.882	257.65
1557.117	254.83
1560.352	252.25
1563.587	251.99
1566.821	250.1
1570.055	246.68
1573.289	244.93
1576.523	244.79
1579.756	242.72
1582.989	240.96
1586.222	240.83
1589.454	238.79
1592.686	240.36
1595.918	240
1599.15	238.55
1602.381	239.03
1605.612	239.03
1608.843	240.64
1612.073	239.54
1615.303	241.12
1618.533	241.69
1621.762	240.98
1624.992	241.18
1628.221	241.26
1631.449	241.14
1634.678	240.07
1637.906	240.88
1641.134	241.07
1644.361	240.13
1647.588	241.83
1650.815	240.32
1654.042	239.51
1657.269	240.78
1660.495	241.14
1663.72	239.31
1666.946	239.87
1670.171	241.05
1673.396	240.76
1676.621	240.93
1679.845	241.16
1683.069	240.07
1686.293	242.21
1689.517	243.16
1692.74	242.78
1695.963	243.82
1699.185	247.16
1702.408	247.29
1705.63	248.15
1708.852	249.03
1712.073	249.34
1715.294	249.86
1718.515	252.06
1721.736	251.3
1724.956	251.91
1728.176	252.04
1731.396	254.75
1734.616	252.89
1737.835	254.31
1741.054	253
1744.272	253.52
1747.491	256.15
1750.709	256.51
1753.927	256.12
1757.144	255.29
1760.361	257.08
1763.578	257.45
1766.795	255.95
1770.011	258.65
1773.227	258.55
1776.443	261.57
1779.658	263.12
1782.874	262.02
1786.089	263.3
1789.303	264.04
1792.518	267.58
1795.732	267.09
1798.945	270.17
1802.159	270.59
1805.372	271.26
1808.585	276.24
1811.797	277.3
1815.01	276.75
1818.222	279.51
1821.434	281.42
1824.645	282.55
1827.856	287.14
1831.067	289.79
1834.278	287.55
1837.488	289.88
1840.698	292.12
1843.908	288.95
1847.117	290.68
1850.326	292.89
1853.535	291.61
1856.744	296.7
1859.952	296.49
1863.16	294.8
1866.368	292.66
1869.575	297.8
1872.782	292.84
1875.989	292.02
1879.196	291.12
1882.402	289.08
1885.608	290.73
1888.814	292.34
1892.019	290.58
1895.224	290.26
1898.429	288.93
1901.634	290.93
1904.838	290.77
1908.042	295.28
1911.246	295.8
1914.449	297.82
1917.652	297.92
1920.855	297.19
1924.058	296.7
1927.26	295.55
1930.462	297.11
1933.664	300.61
1936.865	298
1940.066	298.07
1943.267	294.99
1946.467	295.28
1949.668	297.66
1952.868	300.97
1956.067	300.54
1959.267	301.3
1962.466	302.13
1965.665	300.1
1968.863	300.36
1972.061	304.63
1975.259	307.3
1978.457	310.4
1981.654	312.13
1984.852	312.29
1988.048	311.66
1991.245	314.62
1994.441	317.65
1997.637	320.08
2000.833	326.45
2004.028	330.8
2007.223	332.07
2010.418	335.3
2013.613	341.16
2016.807	345.23
2020.001	348.75
2023.194	354.3
2026.388	362.31
2029.581	370.74
2032.774	373.91
2035.966	381.06
2039.158	381.92
2042.35	390.34
2045.542	391.35
2048.733	397.37
2051.924	402.51
2055.115	409.46
2058.306	409.72
2061.496	414.84
2064.686	413.48
2067.875	421.78
2071.065	422.15
2074.254	421.31
2077.442	424.79
2080.631	428.25
2083.819	432.35
2087.007	432.97
2090.195	437.29
2093.382	440.72
2096.569	436.68
2099.756	444.91
2102.942	444.73
2106.128	451.33
2109.314	461.18
2112.5	460.1
2115.685	468.89
2118.87	469.72
2122.055	479.03
2125.239	482.39
2128.424	488.64
2131.608	492.85
2134.791	498.55
2137.974	501.65
2141.157	502.79
2144.34	502.17
2147.523	511.72
2150.705	508.42
2153.887	512.17
2157.068	513.28
2160.25	506.88
2163.431	511.13
2166.611	515.98
2169.792	526.03
2172.972	531.66
2176.152	533.22
2179.331	541.62
2182.511	549.96
2185.69	557.25
2188.868	569.76
2192.047	570.26
2195.225	588.74
2198.403	601.58
2201.58	613.16
2204.758	626.16
2207.935	639.2
2211.111	652.49
2214.288	659.51
2217.464	660.72
2220.64	670.19
2223.815	678.95
2226.991	707.22
2230.166	708.76
2233.34	721.96
2236.515	733.08
2239.689	731.38
2242.863	736.06
2246.036	757.91
2249.209	751.47
2252.382	763.58
2255.555	786.62
2258.727	788.47
2261.9	794.79
2265.071	801.95
2268.243	816.23
2271.414	825.17
2274.585	845.95
2277.756	853.27
2280.926	859.72
2284.096	879.39
2287.266	899.69
2290.436	906.25
2293.605	928.42
2296.774	955.03
2299.942	987.3
2303.111	990.17
2306.279	1016.75
2309.447	1026.39
2312.614	1054.33
2315.781	1081.46
2318.948	1132.72
2322.115	1115.12
2325.281	1176.54
2328.447	1149.16
2331.613	1200.51
2334.779	1184.52
2337.944	1236.42
2341.109	1245.73
2344.274	1281.38
2347.438	1326.45
2350.602	1327.11
2353.766	1365.8
2356.929	1386.8
2360.092	1375.15
2363.255	1480.62
2366.418	1468.96
2369.58	1500.93
2372.742	1595.06
2375.904	1637.28
2379.066	1626.85
2382.227	1591.03
2385.388	1727.57
2388.548	1736.32
2391.709	1760.89
2394.869	1960.33
2398.029	1870.95
2401.188	1927.17
2404.347	1913.54
2407.506	1879.45
2410.665	1932.37
2413.823	2054.25
2416.981	2180.1
2420.139	2098.85
2423.296	2075.34
2426.453	2161.06
2429.61	2078.56
2432.767	2179.82
2435.923	2156.85
2439.079	2354.74
2442.235	2387.17
2445.391	2365.13
2448.546	2349.02
2451.701	2283.94
2454.855	2290.42
2458.009	2424.97
2461.163	2518.73
2464.317	2617.71
2467.471	2686.48
2470.624	2687.56
2473.777	2617.94
2476.929	2555.74
2480.082	2486.19
2483.234	2449.16
2486.385	2570.22
2489.537	2582.59
2492.688	2679.31
2495.839	2608.92
2498.989	2552.98
2502.14	2563.63
2505.29	2592.82
2508.439	2635.97
2511.589	2625.06
2514.738	2860.77
2517.887	2801.55
2521.035	2963.38
2524.183	2982.27
2527.331	3005.81
2530.479	2999.23
2533.627	3017.05
