Data from N_2_DEC_ON_6N_Splice17_13-14-49-626.txt Node
Date: Sat Mar 07 13:14:49 EST 2020
User: sa697716
Spectrometer: NQ5500242
Trigger mode: 0
Integration Time (sec): 1.450000E-1
Scans to average: 20
Nonlinearity correction enabled: false
Boxcar width: 5
Storing dark spectrum: false
XAxis mode: Wavelengths
Number of Pixels in Spectrum: 512
>>>>>Begin Spectral Data<<<<<
187.83	146.09
188.298	147.77
188.766	134.18
189.233	114.33
189.701	129.36
190.169	152.43
190.636	147.54
191.104	222.8
191.571	117.83
192.039	111.31
192.506	-154.28
192.974	23.51
193.441	9.81
193.908	61.11
194.375	43.77
194.842	21.97
195.31	49.2
195.777	12.75
196.244	52.06
196.711	52.68
197.177	53.67
197.644	53.45
198.111	53.39
198.578	53.96
199.045	53.7
199.511	53.53
199.978	53.68
200.445	53.85
200.911	53.83
201.378	53.8
201.844	53.53
202.31	53.17
202.777	53.26
203.243	53.52
203.709	53.16
204.176	53.03
204.642	52.91
205.108	52.78
205.574	52.43
206.04	52.08
206.506	51.7
206.972	51.63
207.438	51.58
207.903	51.02
208.369	50.03
208.835	49.13
209.301	47.98
209.766	46.77
210.232	45.66
210.697	44.67
211.163	43.74
211.628	43.08
212.094	42.02
212.559	41.33
213.024	40.63
213.49	40.1
213.955	39.43
214.42	38.88
214.885	38.18
215.35	37.09
215.815	35.83
216.28	34.1
216.745	32.03
217.21	30.22
217.675	28.2
218.14	26.55
218.604	25.22
219.069	24.09
219.534	23.16
219.998	22.4
220.463	21.84
220.927	21.2
221.392	20.71
221.856	20.34
222.32	19.97
222.785	19.69
223.249	19.43
223.713	19.13
224.177	18.89
224.642	18.63
225.106	18.37
225.57	18.08
226.034	17.87
226.497	17.63
226.961	17.41
227.425	17.2
227.889	16.99
228.353	16.78
228.816	16.54
229.28	16.33
229.744	16.14
230.207	15.94
230.671	15.74
231.134	15.55
231.597	15.4
232.061	15.2
232.524	15.04
232.987	14.87
233.45	14.72
233.914	14.58
234.377	14.42
234.84	14.26
235.303	14.13
235.766	14.01
236.229	13.87
236.691	13.73
237.154	13.62
237.617	13.5
238.08	13.36
238.542	13.21
239.005	13.09
239.468	12.97
239.93	12.85
240.393	12.72
240.855	12.6
241.317	12.48
241.78	12.37
242.242	12.24
242.704	12.14
243.166	12.04
243.629	11.96
244.091	11.85
244.553	11.75
245.015	11.65
245.477	11.55
245.939	11.45
246.4	11.36
246.862	11.26
247.324	11.17
247.786	11.06
248.247	10.96
248.709	10.87
249.17	10.77
249.632	10.71
250.093	10.63
250.555	10.55
251.016	10.48
251.477	10.41
251.939	10.35
252.4	10.29
252.861	10.23
253.322	10.16
253.783	10.1
254.244	10.05
254.705	9.98
255.166	9.91
255.627	9.85
256.088	9.8
256.549	9.74
257.009	9.66
257.47	9.58
257.931	9.51
258.391	9.44
258.852	9.37
259.312	9.31
259.773	9.25
260.233	9.19
260.694	9.13
261.154	9.06
261.614	9.01
262.074	8.96
262.534	8.91
262.994	8.87
263.455	8.83
263.915	8.79
264.374	8.75
264.834	8.71
265.294	8.67
265.754	8.64
266.214	8.61
266.673	8.58
267.133	8.55
267.593	8.53
268.052	8.5
268.512	8.48
268.971	8.45
269.431	8.42
269.89	8.39
270.349	8.37
270.809	8.35
271.268	8.33
271.727	8.3
272.186	8.27
272.645	8.25
273.104	8.22
273.563	8.2
274.022	8.17
274.481	8.15
274.94	8.13
275.399	8.1
275.857	8.08
276.316	8.05
276.775	8.03
277.233	8.01
277.692	7.99
278.15	7.97
278.609	7.94
279.067	7.92
279.525	7.9
279.984	7.87
280.442	7.85
280.9	7.83
281.358	7.82
281.816	7.81
282.274	7.79
282.732	7.77
283.19	7.74
283.648	7.72
284.106	7.69
284.564	7.67
285.021	7.65
285.479	7.63
285.937	7.59
286.394	7.57
286.852	7.53
287.309	7.51
287.767	7.48
288.224	7.45
288.682	7.42
289.139	7.39
289.596	7.36
290.053	7.33
290.511	7.3
290.968	7.28
291.425	7.25
291.882	7.24
292.339	7.22
292.796	7.2
293.252	7.18
293.709	7.17
294.166	7.16
294.623	7.16
295.079	7.14
295.536	7.13
295.992	7.13
296.449	7.11
296.905	7.09
297.362	7.08
297.818	7.07
298.274	7.07
298.731	7.06
299.187	7.04
299.643	7.03
300.099	7.03
300.555	7.02
301.011	7.01
301.467	7.01
301.923	6.99
302.379	6.99
302.835	6.98
303.291	6.97
303.746	6.96
304.202	6.96
304.658	6.95
305.113	6.95
305.569	6.95
306.024	6.94
306.479	6.94
306.935	6.93
307.39	6.93
307.845	6.93
308.301	6.92
308.756	6.92
309.211	6.92
309.666	6.93
310.121	6.92
310.576	6.92
311.031	6.92
311.486	6.92
311.94	6.92
312.395	6.92
312.85	6.91
313.305	6.9
313.759	6.91
314.214	6.89
314.668	6.88
315.123	6.87
315.577	6.86
316.032	6.85
316.486	6.83
316.94	6.82
317.394	6.81
317.849	6.8
318.303	6.78
318.757	6.76
319.211	6.75
319.665	6.73
320.119	6.72
320.572	6.7
321.026	6.69
321.48	6.68
321.934	6.66
322.387	6.65
322.841	6.63
323.295	6.62
323.748	6.62
324.202	6.61
324.655	6.61
325.108	6.61
325.562	6.61
326.015	6.61
326.468	6.62
326.921	6.62
327.374	6.62
327.827	6.62
328.28	6.62
328.733	6.62
329.186	6.62
329.639	6.62
330.092	6.6
330.545	6.6
330.997	6.59
331.45	6.58
331.903	6.59
332.355	6.59
332.808	6.59
333.26	6.58
333.713	6.57
334.165	6.56
334.617	6.56
335.069	6.55
335.522	6.55
335.974	6.56
336.426	6.54
336.878	6.53
337.33	6.52
337.782	6.51
338.234	6.51
338.686	6.5
339.137	6.5
339.589	6.48
340.041	6.48
340.493	6.46
340.944	6.43
341.396	6.42
341.847	6.41
342.299	6.39
342.75	6.37
343.201	6.35
343.653	6.34
344.104	6.31
344.555	6.3
345.006	6.29
345.457	6.27
345.908	6.27
346.359	6.27
346.81	6.26
347.261	6.25
347.712	6.25
348.163	6.23
348.613	6.23
349.064	6.24
349.515	6.23
349.965	6.23
350.416	6.22
350.866	6.21
351.317	6.2
351.767	6.2
352.217	6.2
352.668	6.21
353.118	6.22
353.568	6.21
354.018	6.21
354.468	6.22
354.918	6.22
355.368	6.23
355.818	6.23
356.268	6.23
356.718	6.22
357.168	6.21
357.617	6.2
358.067	6.2
358.517	6.21
358.966	6.21
359.416	6.2
359.865	6.19
360.315	6.18
360.764	6.18
361.213	6.18
361.663	6.18
362.112	6.19
362.561	6.19
363.01	6.2
363.459	6.17
363.908	6.16
364.357	6.16
364.806	6.15
365.255	6.16
365.703	6.16
366.152	6.18
366.601	6.19
367.05	6.19
367.498	6.19
367.947	6.19
368.395	6.21
368.844	6.22
369.292	6.21
369.74	6.23
370.189	6.22
370.637	6.22
371.085	6.2
371.533	6.2
371.981	6.2
372.429	6.21
372.877	6.21
373.325	6.21
373.773	6.22
374.221	6.23
374.669	6.22
375.116	6.22
375.564	6.22
376.012	6.23
376.459	6.24
376.907	6.25
377.354	6.24
377.801	6.25
378.249	6.26
378.696	6.26
379.143	6.27
379.591	6.29
380.038	6.29
380.485	6.3
380.932	6.31
381.379	6.31
381.826	6.32
382.273	6.33
382.72	6.31
383.166	6.33
383.613	6.33
384.06	6.34
384.506	6.35
384.953	6.37
385.4	6.38
385.846	6.4
386.292	6.42
386.739	6.43
387.185	6.44
387.631	6.47
388.078	6.49
388.524	6.51
388.97	6.52
389.416	6.55
389.862	6.57
390.308	6.6
390.754	6.63
391.2	6.65
391.645	6.68
392.091	6.72
392.537	6.74
392.983	6.76
393.428	6.79
393.874	6.8
394.319	6.82
394.765	6.83
395.21	6.84
395.655	6.85
396.101	6.87
396.546	6.88
396.991	6.89
397.436	6.91
397.881	6.94
398.326	6.96
398.771	6.98
399.216	6.99
399.661	7.01
400.106	7.01
400.551	7.02
400.995	7.01
401.44	7.01
401.885	7.02
402.329	7.02
402.774	7.03
403.218	7.05
403.663	7.06
404.107	7.07
404.551	7.07
404.995	7.08
405.44	7.09
405.884	7.11
406.328	7.13
406.772	7.12
407.216	7.12
407.66	7.11
408.104	7.09
408.547	7.08
408.991	7.08
409.435	7.07
409.879	7.07
410.322	7.08
410.766	7.1
411.209	7.1
411.653	7.11
412.096	7.13
412.54	7.14
412.983	7.15
413.426	7.19
413.869	7.2
414.312	7.22
414.756	7.24
415.199	7.22
415.642	7.22
416.085	7.22
416.527	7.19
416.97	7.17
417.413	7.17
417.856	7.16
418.298	7.13
418.741	7.12
419.184	7.12
419.626	7.1
420.069	7.1
420.511	7.1
420.953	7.1
421.396	7.12
421.838	7.12
422.28	7.12
422.722	7.14
423.164	7.15
423.606	7.15
424.048	7.14
424.49	7.15
424.932	7.14
425.374	7.12
425.816	7.1
426.258	7.08
426.699	7.07
427.141	7.06
427.582	7.06
428.024	7.06
428.465	7.06
428.907	7.06
429.348	7.05
429.789	7.04
430.231	7.06
430.672	7.08
431.113	7.11
431.554	7.12
431.995	7.14
432.436	7.14
432.877	7.16
433.318	7.16
433.759	7.18
434.2	7.2
434.64	7.24
435.081	7.24
435.522	7.26
435.962	7.26
436.403	7.29
436.843	7.29
437.284	7.3
437.724	7.31
438.164	7.31
438.604	7.31
439.045	7.31
439.485	7.31
439.925	7.3
440.365	7.3
440.805	7.3
441.245	7.29
441.685	7.29
442.125	7.31
442.564	7.31
443.004	7.32
443.444	7.33
443.883	7.35
444.323	7.36
444.762	7.37
445.202	7.36
445.641	7.38
446.081	7.4
446.52	7.41
446.959	7.44
447.398	7.46
447.837	7.48
448.276	7.5
448.716	7.52
449.154	7.56
449.593	7.58
450.032	7.59
450.471	7.59
450.91	7.61
451.349	7.62
451.787	7.6
452.226	7.58
452.664	7.57
453.103	7.56
453.541	7.55
453.98	7.54
454.418	7.52
454.856	7.52
455.295	7.5
455.733	7.47
456.171	7.45
456.609	7.45
457.047	7.43
457.485	7.41
457.923	7.42
458.361	7.4
458.798	7.39
459.236	7.38
459.674	7.39
460.111	7.39
460.549	7.39
460.987	7.41
461.424	7.41
461.862	7.41
462.299	7.42
462.736	7.41
463.173	7.42
463.611	7.43
464.048	7.43
464.485	7.43
464.922	7.42
465.359	7.43
465.796	7.43
466.233	7.43
466.67	7.46
467.106	7.46
467.543	7.46
467.98	7.45
468.416	7.45
468.853	7.44
469.29	7.44
469.726	7.44
470.162	7.43
470.599	7.42
471.035	7.41
471.471	7.38
471.907	7.37
472.344	7.37
472.78	7.38
473.216	7.34
473.652	7.35
474.088	7.32
474.523	7.33
474.959	7.33
475.395	7.32
475.831	7.31
476.266	7.31
476.702	7.31
477.138	7.3
477.573	7.29
478.008	7.31
478.444	7.29
478.879	7.3
479.314	7.29
479.75	7.26
480.185	7.25
480.62	7.23
481.055	7.22
481.49	7.2
481.925	7.2
482.36	7.19
482.795	7.18
483.229	7.17
483.664	7.18
484.099	7.17
484.534	7.17
484.968	7.18
485.403	7.19
485.837	7.2
486.271	7.23
486.706	7.23
487.14	7.25
487.574	7.26
488.009	7.29
488.443	7.3
488.877	7.33
489.311	7.36
489.745	7.38
490.179	7.43
490.613	7.47
491.046	7.5
491.48	7.55
491.914	7.59
492.348	7.64
492.781	7.7
493.215	7.76
493.648	7.81
494.082	7.87
494.515	7.93
494.948	7.99
495.382	8.06
495.815	8.14
496.248	8.21
496.681	8.28
497.114	8.38
497.547	8.46
497.98	8.56
498.413	8.65
498.846	8.75
499.279	8.87
499.711	8.97
500.144	9.09
500.577	9.21
501.009	9.34
501.442	9.49
501.874	9.64
502.306	9.79
502.739	9.95
503.171	10.12
503.603	10.29
504.036	10.48
504.468	10.67
504.9	10.86
505.332	11.07
505.764	11.28
506.196	11.49
506.627	11.72
507.059	11.95
507.491	12.18
507.923	12.43
508.354	12.71
508.786	12.98
509.217	13.26
509.649	13.54
510.08	13.84
510.512	14.14
510.943	14.45
511.374	14.76
511.805	15.09
512.237	15.42
512.668	15.75
513.099	16.07
513.53	16.41
513.961	16.77
514.391	17.13
514.822	17.49
515.253	17.85
515.684	18.21
516.114	18.59
516.545	18.96
516.975	19.34
517.406	19.73
517.836	20.11
518.267	20.5
518.697	20.86
519.127	21.24
519.558	21.62
519.988	21.99
520.418	22.36
520.848	22.73
521.278	23.09
521.708	23.5
522.138	23.84
522.567	24.17
522.997	24.5
523.427	24.84
523.857	25.14
524.286	25.43
524.716	25.72
525.145	26
525.575	26.27
526.004	26.53
526.433	26.73
526.863	26.98
527.292	27.23
527.721	27.46
528.15	27.65
528.579	27.88
529.008	28.1
529.437	28.3
529.866	28.48
530.295	28.66
530.724	28.84
531.152	28.99
531.581	29.15
532.01	29.3
532.438	29.43
532.867	29.59
533.295	29.71
533.723	29.8
534.152	29.9
534.58	30.01
535.008	30.08
535.436	30.18
535.865	30.27
536.293	30.35
536.721	30.43
537.149	30.5
537.576	30.55
538.004	30.63
538.432	30.7
538.86	30.76
539.287	30.8
539.715	30.88
540.143	30.92
540.57	30.97
540.998	31.02
541.425	31.05
541.852	31.09
542.28	31.15
542.707	31.16
543.134	31.2
543.561	31.25
543.988	31.29
544.415	31.32
544.842	31.34
545.269	31.37
545.696	31.39
546.123	31.41
546.549	31.45
546.976	31.47
547.403	31.5
547.829	31.52
548.256	31.54
548.682	31.55
549.108	31.57
549.535	31.58
549.961	31.57
550.387	31.59
550.813	31.6
551.24	31.59
551.666	31.58
552.092	31.57
552.518	31.56
552.943	31.53
553.369	31.51
553.795	31.47
554.221	31.44
554.646	31.39
555.072	31.34
555.498	31.27
555.923	31.19
556.349	31.11
556.774	31.01
557.199	30.92
557.625	30.83
558.05	30.74
558.475	30.63
558.9	30.55
559.325	30.46
559.75	30.34
560.175	30.23
560.6	30.11
561.025	29.99
561.449	29.86
561.874	29.71
562.299	29.56
562.723	29.4
563.148	29.26
563.572	29.06
563.997	28.88
564.421	28.69
564.846	28.51
565.27	28.34
565.694	28.16
566.118	27.96
566.542	27.78
566.966	27.59
567.39	27.4
567.814	27.19
568.238	27
568.662	26.81
569.086	26.61
569.509	26.42
569.933	26.24
570.357	26.03
570.78	25.85
571.204	25.66
571.627	25.49
572.05	25.3
572.474	25.13
572.897	24.95
573.32	24.77
573.743	24.61
574.166	24.45
574.589	24.28
575.012	24.12
575.435	23.97
575.858	23.81
576.281	23.65
576.704	23.49
577.126	23.34
577.549	23.2
577.972	23.06
578.394	22.93
578.817	22.81
579.239	22.67
579.661	22.55
580.084	22.42
580.506	22.31
580.928	22.2
581.35	22.08
581.772	21.97
582.194	21.86
582.616	21.75
583.038	21.63
583.46	21.53
583.882	21.45
584.303	21.35
584.725	21.27
585.147	21.2
585.568	21.13
585.99	21.05
586.411	20.97
586.833	20.9
587.254	20.81
587.675	20.74
588.096	20.66
588.518	20.59
588.939	20.53
589.36	20.44
589.781	20.36
590.202	20.28
590.623	20.22
591.043	20.16
591.464	20.12
591.885	20.08
592.305	20.03
592.726	19.99
593.147	19.94
593.567	19.89
593.987	19.84
594.408	19.8
594.828	19.76
595.248	19.73
595.669	19.68
596.089	19.63
596.509	19.6
596.929	19.55
597.349	19.49
597.769	19.44
598.189	19.38
598.608	19.35
599.028	19.31
599.448	19.24
599.867	19.19
600.287	19.14
600.706	19.09
601.126	19.04
601.545	18.98
601.965	18.94
602.384	18.89
602.803	18.83
603.222	18.74
603.641	18.67
604.061	18.62
604.48	18.54
604.898	18.46
605.317	18.38
605.736	18.28
606.155	18.19
606.574	18.09
606.992	17.99
607.411	17.89
607.829	17.79
608.248	17.67
608.666	17.56
609.085	17.46
609.503	17.36
609.921	17.26
610.339	17.16
610.758	17.05
611.176	16.95
611.594	16.85
612.012	16.75
612.43	16.66
612.847	16.57
613.265	16.47
613.683	16.37
614.101	16.27
614.518	16.16
614.936	16.06
615.353	15.97
615.771	15.88
616.188	15.8
616.606	15.72
617.023	15.64
617.44	15.57
617.857	15.51
618.274	15.44
618.691	15.37
619.108	15.31
619.525	15.25
619.942	15.2
620.359	15.16
620.776	15.11
621.192	15.07
621.609	15.04
622.026	15
622.442	14.96
622.859	14.94
623.275	14.91
623.691	14.88
624.108	14.88
624.524	14.85
624.94	14.82
625.356	14.81
625.772	14.79
626.188	14.78
626.604	14.76
627.02	14.75
627.436	14.73
627.852	14.72
628.268	14.73
628.683	14.71
629.099	14.7
629.514	14.68
629.93	14.66
630.345	14.64
630.761	14.59
631.176	14.56
631.591	14.52
632.007	14.48
632.422	14.43
632.837	14.36
633.252	14.29
633.667	14.22
634.082	14.13
634.497	14.04
634.911	13.94
635.326	13.86
635.741	13.76
636.155	13.64
636.57	13.53
636.984	13.42
637.399	13.29
637.813	13.16
638.228	13.03
638.642	12.91
639.056	12.77
639.47	12.65
639.884	12.5
640.298	12.36
640.712	12.23
641.126	12.09
641.54	11.95
641.954	11.81
642.368	11.67
642.781	11.55
643.195	11.42
643.609	11.3
644.022	11.16
644.436	11.04
644.849	10.92
645.262	10.8
645.676	10.69
646.089	10.61
646.502	10.52
646.915	10.44
647.328	10.35
647.741	10.28
648.154	10.2
648.567	10.15
648.98	10.1
649.393	10.04
649.805	10
650.218	9.94
650.631	9.89
651.043	9.84
651.456	9.78
651.868	9.74
652.28	9.68
652.693	9.64
653.105	9.57
653.517	9.51
653.929	9.45
654.341	9.38
654.753	9.32
655.165	9.25
655.577	9.17
655.989	9.1
656.401	9.01
656.813	8.93
657.224	8.83
657.636	8.74
658.047	8.66
658.459	8.56
658.87	8.46
659.282	8.36
659.693	8.28
660.104	8.17
660.515	8.08
660.926	7.99
661.338	7.9
661.749	7.83
662.159	7.75
662.57	7.67
662.981	7.6
663.392	7.52
663.803	7.46
664.213	7.39
664.624	7.33
665.035	7.28
665.445	7.23
665.855	7.18
666.266	7.13
666.676	7.11
667.086	7.06
667.497	7.03
667.907	7.01
668.317	6.99
668.727	6.97
669.137	6.97
669.547	6.96
669.956	6.95
670.366	6.95
670.776	6.95
671.186	6.94
671.595	6.95
672.005	6.95
672.414	6.96
672.824	6.96
673.233	6.98
673.642	6.99
674.052	7.01
674.461	7.03
674.87	7.05
675.279	7.08
675.688	7.11
676.097	7.14
676.506	7.17
676.915	7.2
677.323	7.25
677.732	7.28
678.141	7.33
678.549	7.36
678.958	7.42
679.366	7.48
679.775	7.54
680.183	7.62
680.592	7.69
681	7.78
681.408	7.87
681.816	7.96
682.224	8.07
682.632	8.19
683.04	8.33
683.448	8.49
683.856	8.65
684.264	8.84
684.671	9.05
685.079	9.28
685.487	9.54
685.894	9.83
686.302	10.15
686.709	10.5
687.116	10.87
687.524	11.29
687.931	11.71
688.338	12.16
688.745	12.65
689.152	13.17
689.559	13.74
689.966	14.32
690.373	14.91
690.78	15.53
691.187	16.17
691.593	16.83
692	17.51
692.407	18.2
692.813	18.92
693.22	19.65
693.626	20.39
694.032	21.12
694.439	21.87
694.845	22.63
695.251	23.4
695.657	24.14
696.063	24.9
696.469	25.64
696.875	26.39
697.281	27.14
697.687	27.87
698.093	28.59
698.498	29.3
698.904	30.01
699.31	30.71
699.715	31.4
700.12	32.09
700.526	32.78
700.931	33.45
701.337	34.1
701.742	34.73
702.147	35.39
702.552	36.01
702.957	36.6
703.362	37.18
703.767	37.71
704.172	38.3
704.577	38.83
704.981	39.37
705.386	39.9
705.791	40.42
706.195	40.94
706.6	41.45
707.004	41.96
707.408	42.46
707.813	42.98
708.217	43.48
708.621	43.95
709.025	44.41
709.43	44.85
709.834	45.31
710.237	45.75
710.641	46.18
711.045	46.6
711.449	47.02
711.853	47.47
712.256	47.87
712.66	48.29
713.064	48.68
713.467	49.08
713.87	49.5
714.274	49.87
714.677	50.25
715.08	50.62
715.484	51
715.887	51.38
716.29	51.71
716.693	52.06
717.096	52.38
717.499	52.72
717.901	53.06
718.304	53.39
718.707	53.73
719.109	54.05
719.512	54.34
719.915	54.63
720.317	54.85
720.719	55.1
721.122	55.36
721.524	55.62
721.926	55.88
722.328	56.13
722.731	56.35
723.133	56.57
723.535	56.8
723.937	57.05
724.338	57.24
724.74	57.49
725.142	57.8
725.544	57.99
725.945	58.22
726.347	58.4
726.748	58.55
727.15	58.7
727.551	58.88
727.952	59.01
728.354	59.14
728.755	59.29
729.156	59.42
729.557	59.47
729.958	59.59
730.359	59.72
730.76	59.85
731.161	59.99
731.562	60.11
731.962	60.19
732.363	60.33
732.763	60.44
733.164	60.52
733.564	60.62
733.965	60.7
734.365	60.81
734.766	60.87
735.166	60.94
735.566	60.99
735.966	61.07
736.366	61.16
736.766	61.21
737.166	61.29
737.566	61.36
737.966	61.42
738.365	61.47
738.765	61.56
739.165	61.61
739.564	61.68
739.964	61.73
740.363	61.79
740.763	61.82
741.162	61.88
741.561	61.91
741.96	61.92
742.36	61.97
742.759	62.02
743.158	62.04
743.557	62.05
743.955	62.07
744.354	62.11
744.753	62.14
745.152	62.18
745.55	62.21
745.949	62.24
746.348	62.31
746.746	62.35
747.144	62.37
747.543	62.38
747.941	62.43
748.339	62.43
748.737	62.46
749.136	62.46
749.534	62.49
749.932	62.5
750.33	62.51
750.727	62.52
751.125	62.52
751.523	62.5
751.921	62.5
752.318	62.5
752.716	62.53
753.113	62.53
753.511	62.57
753.908	62.6
754.305	62.63
754.703	62.63
755.1	62.63
755.497	62.66
755.894	62.68
756.291	62.69
756.688	62.69
757.085	62.68
757.482	62.68
757.878	62.66
758.275	62.62
758.672	62.61
759.068	62.65
759.465	62.65
759.861	62.63
760.258	62.65
760.654	62.66
761.05	62.69
761.447	62.7
761.843	62.68
762.239	62.69
762.635	62.7
763.031	62.67
763.427	62.63
763.822	62.64
764.218	62.65
764.614	62.65
765.01	62.63
765.405	62.61
765.801	62.58
766.196	62.62
766.592	62.61
766.987	62.63
767.382	62.64
767.778	62.67
768.173	62.67
768.568	62.65
768.963	62.65
769.358	62.67
769.753	62.65
770.148	62.7
770.542	62.69
770.937	62.71
771.332	62.69
771.726	62.68
772.121	62.65
772.515	62.64
772.91	62.63
773.304	62.62
773.699	62.63
774.093	62.61
774.487	62.58
774.881	62.61
775.275	62.6
775.669	62.57
776.063	62.59
776.457	62.6
776.851	62.57
777.245	62.57
777.638	62.56
778.032	62.56
778.425	62.64
778.819	62.62
779.212	62.61
779.606	62.63
779.999	62.65
780.392	62.65
780.786	62.64
781.179	62.65
781.572	62.71
781.965	62.73
782.358	62.76
782.751	62.7
783.143	62.71
783.536	62.7
783.929	62.69
784.322	62.71
784.714	62.71
785.107	62.74
785.499	62.74
785.891	62.7
786.284	62.72
786.676	62.72
787.068	62.74
787.46	62.74
787.852	62.76
788.245	62.76
788.636	62.78
789.028	62.8
789.42	62.8
789.812	62.84
790.204	62.87
790.595	62.84
790.987	62.81
791.378	62.81
791.77	62.81
792.161	62.8
792.553	62.81
792.944	62.79
793.335	62.81
793.726	62.81
794.117	62.76
794.508	62.72
794.899	62.72
795.29	62.73
795.681	62.69
796.072	62.71
796.463	62.73
796.853	62.7
797.244	62.68
797.634	62.63
798.025	62.63
798.415	62.65
798.806	62.64
799.196	62.66
799.586	62.67
799.976	62.71
800.366	62.7
800.756	62.69
801.146	62.73
801.536	62.77
801.926	62.77
802.316	62.78
802.706	62.79
803.095	62.8
803.485	62.79
803.874	62.79
804.264	62.79
804.653	62.79
805.043	62.77
805.432	62.74
805.821	62.72
806.21	62.73
806.599	62.73
806.988	62.71
807.377	62.74
807.766	62.74
808.155	62.74
808.544	62.72
808.933	62.71
809.321	62.71
809.71	62.73
810.098	62.72
810.487	62.68
810.875	62.69
811.264	62.7
811.652	62.69
812.04	62.68
812.428	62.68
812.816	62.69
813.204	62.69
813.592	62.66
813.98	62.65
814.368	62.66
814.756	62.68
815.144	62.65
815.531	62.64
815.919	62.63
816.306	62.65
816.694	62.62
817.081	62.63
817.469	62.63
817.856	62.66
818.243	62.65
818.63	62.66
819.017	62.66
819.404	62.66
819.791	62.66
820.178	62.67
820.565	62.63
820.952	62.66
821.339	62.63
821.725	62.64
822.112	62.65
822.498	62.68
822.885	62.69
823.271	62.69
823.657	62.68
824.044	62.67
824.43	62.68
824.816	62.68
825.202	62.66
825.588	62.68
825.974	62.65
826.36	62.62
826.746	62.58
827.132	62.57
827.517	62.58
827.903	62.61
828.289	62.62
828.674	62.62
829.06	62.63
829.445	62.63
829.83	62.62
830.216	62.61
830.601	62.62
830.986	62.63
831.371	62.62
831.756	62.63
832.141	62.61
832.526	62.62
832.911	62.59
833.295	62.6
833.68	62.6
834.065	62.61
834.449	62.59
834.834	62.59
835.218	62.59
835.603	62.61
835.987	62.57
836.371	62.55
836.755	62.51
837.139	62.52
837.524	62.51
837.908	62.54
838.291	62.54
838.675	62.57
839.059	62.56
839.443	62.54
839.827	62.51
840.21	62.51
840.594	62.52
840.977	62.52
841.361	62.52
841.744	62.48
842.127	62.46
842.511	62.43
842.894	62.42
843.277	62.42
843.66	62.38
844.043	62.41
844.426	62.39
844.809	62.4
845.191	62.42
845.574	62.43
845.957	62.45
846.339	62.45
846.722	62.44
847.104	62.47
847.487	62.47
847.869	62.5
848.252	62.49
848.634	62.49
849.016	62.49
849.398	62.47
849.78	62.46
850.162	62.44
850.544	62.45
850.926	62.44
851.307	62.43
851.689	62.42
852.071	62.41
852.452	62.42
852.834	62.44
853.215	62.42
853.597	62.42
853.978	62.42
854.359	62.41
854.741	62.39
855.122	62.4
855.503	62.39
855.884	62.39
856.265	62.39
856.646	62.37
857.026	62.38
857.407	62.39
857.788	62.41
858.169	62.43
858.549	62.44
858.93	62.44
859.31	62.45
859.69	62.44
860.071	62.45
860.451	62.45
860.831	62.46
861.211	62.42
861.591	62.39
861.971	62.36
862.351	62.35
862.731	62.37
863.111	62.37
863.491	62.38
863.87	62.36
864.25	62.33
864.629	62.32
865.009	62.32
865.388	62.33
865.768	62.35
866.147	62.34
866.526	62.33
866.905	62.32
867.284	62.32
867.663	62.32
868.042	62.35
868.421	62.37
868.8	62.38
869.179	62.38
869.558	62.39
869.936	62.39
870.315	62.39
870.693	62.42
871.072	62.41
871.45	62.41
871.828	62.4
872.207	62.42
872.585	62.43
872.963	62.44
873.341	62.43
873.719	62.41
874.097	62.39
874.475	62.41
874.853	62.38
875.23	62.4
875.608	62.41
875.986	62.42
876.363	62.39
876.741	62.39
877.118	62.39
877.495	62.41
877.873	62.44
878.25	62.48
878.627	62.49
879.004	62.5
879.381	62.49
879.758	62.46
880.135	62.45
880.512	62.41
880.889	62.37
881.265	62.34
881.642	62.34
882.019	62.31
882.395	62.26
882.772	62.24
883.148	62.19
883.524	62.19
883.901	62.2
884.277	62.21
884.653	62.22
885.029	62.22
885.405	62.24
885.781	62.24
886.157	62.24
886.532	62.26
886.908	62.23
887.284	62.25
887.659	62.22
888.035	62.19
888.411	62.15
888.786	62.16
889.161	62.17
889.537	62.17
889.912	62.15
890.287	62.15
890.662	62.15
891.037	62.17
891.412	62.14
891.787	62.14
892.162	62.15
892.536	62.15
892.911	62.14
893.286	62.13
893.66	62.1
894.035	62.12
894.409	62.1
894.784	62.09
895.158	62.08
895.532	62.1
895.906	62.09
896.281	62.08
896.655	62.09
897.029	62.11
897.402	62.09
897.776	62.09
898.15	62.07
898.524	62.09
898.898	62.09
899.271	62.09
899.645	62.12
900.018	62.16
900.392	62.2
900.765	62.21
901.138	62.21
901.511	62.23
901.884	62.26
902.258	62.29
902.631	62.28
903.003	62.3
903.376	62.31
903.749	62.28
904.122	62.26
904.495	62.25
904.867	62.26
905.24	62.27
905.612	62.29
905.985	62.3
906.357	62.27
906.729	62.28
907.102	62.29
907.474	62.31
907.846	62.31
908.218	62.32
908.59	62.34
908.962	62.32
909.334	62.31
909.705	62.27
910.077	62.26
910.449	62.29
910.82	62.29
911.192	62.29
911.563	62.23
911.935	62.21
912.306	62.23
912.677	62.23
913.048	62.27
913.419	62.25
913.79	62.29
914.161	62.3
914.532	62.28
914.903	62.29
915.274	62.29
915.645	62.35
916.015	62.4
916.386	62.39
916.756	62.37
917.127	62.37
917.497	62.38
917.868	62.38
918.238	62.35
918.608	62.38
918.978	62.37
919.348	62.4
919.718	62.39
920.088	62.4
920.458	62.4
920.828	62.37
921.198	62.35
921.567	62.37
921.937	62.36
922.306	62.34
922.676	62.32
923.045	62.31
923.415	62.26
923.784	62.26
924.153	62.24
924.522	62.26
924.891	62.27
925.26	62.27
925.629	62.25
925.998	62.23
926.367	62.25
926.736	62.26
927.104	62.26
927.473	62.25
927.842	62.19
928.21	62.21
928.578	62.18
928.947	62.2
929.315	62.18
929.683	62.18
930.051	62.2
930.42	62.18
930.788	62.12
931.156	62.1
931.523	62.12
931.891	62.17
932.259	62.15
932.627	62.11
932.994	62.08
933.362	62.06
933.729	62.03
934.097	62
934.464	62
934.831	62.05
935.199	62.04
935.566	62
935.933	61.91
936.3	61.86
936.667	61.86
937.034	61.89
937.401	61.91
937.767	61.92
938.134	61.95
938.501	61.96
938.867	61.96
939.234	61.97
939.6	61.95
939.967	61.98
940.333	61.98
940.699	62.02
941.065	61.93
941.431	61.9
941.798	61.86
942.163	61.8
942.529	61.78
942.895	61.77
943.261	61.72
943.627	61.71
943.992	61.68
944.358	61.65
944.723	61.6
945.089	61.56
945.454	61.61
945.82	61.6
946.185	61.58
946.55	61.55
946.915	61.55
947.28	61.54
947.645	61.52
948.01	61.57
948.375	61.55
948.74	61.57
949.104	61.61
949.469	61.58
949.834	61.55
950.198	61.54
950.562	61.46
950.927	61.39
951.291	61.32
951.655	61.28
952.02	61.25
952.384	61.23
952.748	61.17
953.112	61.17
953.476	61.09
953.839	61.09
954.203	61.06
954.567	61.06
954.931	61
955.294	61.01
955.658	61.07
956.021	61.02
956.385	60.99
956.748	60.94
957.111	60.87
957.474	60.86
957.837	60.81
958.2	60.8
958.563	60.83
958.926	60.9
959.289	60.95
959.652	60.87
960.015	60.88
960.377	60.86
960.74	60.94
961.102	61.02
961.465	61.09
961.827	61.12
962.189	61.19
962.552	61.16
962.914	61.17
963.276	61.2
963.638	61.24
964	61.26
964.362	61.32
964.724	61.28
965.085	61.18
965.447	61.11
965.809	61.13
966.17	61.06
966.532	61.09
966.893	61.07
967.255	60.97
967.616	60.98
967.977	60.96
968.338	60.93
968.699	60.94
969.061	60.95
969.421	61.02
969.782	60.98
970.143	61.02
970.504	61.04
970.865	61.09
971.225	61.12
971.586	61.09
971.946	61.07
972.307	61.06
972.667	61.01
973.027	61.08
973.388	61.06
973.748	61.11
974.108	61.14
974.468	61.11
974.828	61.07
975.188	61.08
975.548	61.13
975.907	61.19
976.267	61.23
976.627	61.27
976.986	61.17
977.346	61.13
977.705	61.04
978.064	61
978.424	61.07
978.783	61.06
979.142	61.02
979.501	61.04
979.86	61.04
980.219	61.04
980.578	61.08
980.937	61.18
981.296	61.12
981.654	61.15
982.013	61.2
982.371	61.14
982.73	61.11
983.088	61.06
983.447	60.96
983.805	60.93
984.163	60.87
984.521	60.78
984.879	60.7
985.237	60.83
985.595	60.89
985.953	60.88
986.311	60.83
986.669	60.84
987.026	60.94
987.384	60.98
987.741	60.96
988.099	60.99
988.456	60.98
988.814	61
989.171	60.96
989.528	60.97
989.885	60.89
990.242	60.96
990.599	61.01
990.956	61
991.313	60.99
991.67	61.05
992.027	61.15
992.383	61.16
992.74	61.18
993.096	61.16
993.453	61.18
993.809	61.25
994.165	61.27
994.522	61.33
994.878	61.4
995.234	61.42
995.59	61.37
995.946	61.35
996.302	61.42
996.658	61.51
997.013	61.48
997.369	61.5
997.725	61.44
998.08	61.53
998.436	61.42
998.791	61.42
999.147	61.39
999.502	61.39
999.857	61.32
1000.212	61.29
1000.567	61.32
1000.922	61.4
1001.277	61.36
1001.632	61.34
1001.987	61.25
1002.342	61.3
1002.696	61.24
1003.051	61.39
1003.406	61.59
1003.76	61.66
1004.114	61.66
1004.469	61.7
1004.823	61.88
1005.177	61.81
1005.531	61.88
1005.885	61.89
1006.239	61.95
1006.593	62.03
1006.947	61.93
1007.301	61.72
1007.655	61.6
1008.008	61.72
1008.362	61.54
1008.715	61.31
1009.069	61.46
1009.422	61.54
1009.776	61.47
1010.129	61.5
1010.482	61.41
1010.835	61.46
1011.188	61.52
1011.541	61.58
1011.894	61.58
1012.247	61.7
1012.6	61.78
1012.952	61.63
1013.305	61.65
1013.657	61.77
1014.01	61.66
1014.362	61.84
1014.715	61.79
1015.067	61.98
1015.419	62.12
1015.771	62.02
1016.123	62.16
1016.475	62.12
1016.827	62.36
1017.179	62.34
1017.531	62.25
1017.883	62.35
1018.234	62.49
1018.586	62.54
1018.938	62.62
1019.289	62.6
1019.64	62.64
1019.992	62.27
1020.343	62.42
1020.694	62.38
1021.045	62.38
1021.396	62.4
1021.747	62.56
1022.098	62.57
1022.449	62.52
1022.8	62.48
1023.151	62.38
1023.501	62.38
1023.852	62.6
1024.202	62.36
1024.553	62.24
1024.903	62.35
1025.253	62.52
1025.604	62.18
1025.954	61.71
1026.304	61.89
1026.654	61.7
1027.004	61.56
1027.354	61.5
1027.703	61.43
1028.053	61.64
1028.403	61.74
1028.753	61.28
1029.102	61.16
1029.452	61.28
1029.801	61.41
1030.15	61.18
1030.499	61.1
897.758	1303.93
901.051	1317.82
904.343	1310.85
907.636	1334.68
910.928	1296.82
914.22	1296.09
917.511	1277.15
920.803	1224.09
924.094	1219.86
927.384	1190.45
930.675	1146.33
933.965	1140.04
937.255	1071.07
940.544	1030.37
943.834	981.24
947.123	975
950.411	916.27
953.7	898.34
956.988	849.93
960.276	816.26
963.563	805.77
966.851	776.21
970.138	770.65
973.424	746.31
976.711	751.04
979.997	715.56
983.283	712.41
986.568	700.18
989.853	678.57
993.138	667.3
996.423	642.02
999.708	624.55
1002.992	618.53
1006.275	590.41
1009.559	586.44
1012.842	564.85
1016.125	549.77
1019.408	539.16
1022.69	533
1025.972	523.39
1029.254	511.67
1032.536	503.83
1035.817	492.06
1039.098	486.52
1042.379	478.25
1045.659	472.48
1048.939	461.48
1052.219	453.05
1055.498	446.31
1058.778	436.05
1062.057	425.91
1065.335	421.52
1068.614	416.62
1071.892	412.98
1075.17	399.51
1078.447	391.79
1081.724	388.98
1085.001	386.87
1088.278	379.22
1091.554	372.22
1094.83	371.89
1098.106	369.76
1101.382	366.5
1104.657	364.31
1107.932	358.63
1111.206	360.59
1114.481	352.07
1117.755	348.97
1121.029	345.73
1124.302	345.67
1127.575	339.43
1130.848	335.48
1134.121	332.52
1137.393	330.67
1140.665	323.91
1143.937	321.7
1147.208	320.28
1150.48	319.56
1153.75	315.83
1157.021	311.18
1160.291	311.05
1163.561	307.99
1166.831	308.32
1170.101	305.54
1173.37	304.73
1176.639	305.33
1179.907	302.92
1183.176	298.83
1186.444	299.46
1189.711	298.72
1192.979	298.37
1196.246	296.14
1199.513	296.53
1202.78	294.97
1206.046	295.35
1209.312	292.3
1212.578	292.54
1215.843	295.16
1219.108	293.86
1222.373	299.02
1225.638	301.42
1228.902	305.63
1232.166	305.55
1235.43	309.27
1238.693	312.55
1241.956	313.39
1245.219	318.66
1248.482	318.9
1251.744	318.61
1255.006	319.49
1258.268	312.12
1261.529	308.99
1264.79	306.55
1268.051	304.95
1271.312	301.08
1274.572	297.55
1277.832	296.05
1281.092	290.58
1284.351	287.93
1287.61	288.01
1290.869	284.14
1294.128	282.1
1297.386	283.11
1300.644	279.94
1303.902	281.1
1307.159	279.73
1310.416	280.06
1313.673	279.19
1316.93	282.16
1320.186	282.41
1323.442	282.81
1326.697	287.28
1329.953	288.32
1333.208	288.44
1336.463	291.81
1339.717	292.42
1342.972	295.76
1346.226	298.29
1349.479	298.42
1352.733	300.44
1355.986	302.53
1359.238	302.35
1362.491	303.68
1365.743	306.14
1368.995	305.66
1372.247	304.67
1375.498	304.33
1378.749	306.26
1382	301.96
1385.251	302.52
1388.501	300.69
1391.751	300.67
1395	298.82
1398.25	296.86
1401.499	294.78
1404.748	294.54
1407.996	291.4
1411.244	289.96
1414.492	287.99
1417.74	285.8
1420.987	281.12
1424.234	280.83
1427.481	276.89
1430.728	276.64
1433.974	273.7
1437.22	271.61
1440.465	270.11
1443.711	268.36
1446.956	266.68
1450.201	263.87
1453.445	261.07
1456.689	261.06
1459.933	255.82
1463.177	254.01
1466.42	250.19
1469.663	247.54
1472.906	245.77
1476.148	240.32
1479.391	238.03
1482.633	235.94
1485.874	232.39
1489.115	231.26
1492.356	228.37
1495.597	228.69
1498.838	225.63
1502.078	224.42
1505.318	223.72
1508.557	223.94
1511.797	224
1515.036	222.59
1518.274	222.42
1521.513	220.59
1524.751	220.38
1527.989	220.52
1531.227	219.35
1534.464	220.04
1537.701	218.5
1540.938	217.8
1544.174	215.51
1547.41	215.25
1550.646	214.64
1553.882	214.37
1557.117	211.85
1560.352	210.92
1563.587	210.15
1566.821	208.76
1570.055	207.25
1573.289	206.1
1576.523	205.99
1579.756	204.45
1582.989	203.38
1586.222	203.01
1589.454	201.28
1592.686	203.36
1595.918	202.05
1599.15	201.7
1602.381	202.22
1605.612	201.67
1608.843	202.73
1612.073	202.53
1615.303	203.61
1618.533	203.93
1621.762	203.81
1624.992	204.41
1628.221	203.93
1631.449	204.08
1634.678	203.59
1637.906	204.63
1641.134	204.69
1644.361	204.18
1647.588	204.93
1650.815	203.91
1654.042	203.29
1657.269	204.56
1660.495	205.03
1663.72	203.87
1666.946	204.8
1670.171	205.32
1673.396	204.8
1676.621	204.77
1679.845	205.11
1683.069	204.22
1686.293	205.63
1689.517	207.27
1692.74	206.61
1695.963	207.02
1699.185	209.58
1702.408	209.01
1705.63	209.7
1708.852	210.35
1712.073	210.55
1715.294	211.04
1718.515	212.84
1721.736	212.35
1724.956	211.91
1728.176	212.29
1731.396	214.46
1734.616	213.16
1737.835	214.39
1741.054	213.36
1744.272	213.35
1747.491	215.79
1750.709	215.87
1753.927	215.61
1757.144	214.79
1760.361	216.1
1763.578	216.33
1766.795	215.14
1770.011	217.28
1773.227	216.53
1776.443	219.02
1779.658	220.57
1782.874	219.74
1786.089	220.2
1789.303	221.03
1792.518	224.11
1795.732	223.61
1798.945	225.69
1802.159	226.07
1805.372	226
1808.585	231.01
1811.797	231.31
1815.01	230.96
1818.222	232.91
1821.434	234.48
1824.645	235.26
1827.856	238.77
1831.067	240.24
1834.278	238.84
1837.488	241.12
1840.698	242.93
1843.908	239.88
1847.117	241.48
1850.326	242.75
1853.535	241.98
1856.744	245.35
1859.952	244.67
1863.16	242.63
1866.368	241.37
1869.575	244.16
1872.782	239.3
1875.989	237.3
1879.196	236.06
1882.402	233.32
1885.608	234.17
1888.814	233.44
1892.019	231.59
1895.224	230.53
1898.429	228.9
1901.634	229.72
1904.838	229.49
1908.042	231.38
1911.246	232.52
1914.449	233.98
1917.652	233.5
1920.855	233.34
1924.058	232.74
1927.26	231.76
1930.462	233
1933.664	235.77
1936.865	233.92
1940.066	232.87
1943.267	232.38
1946.467	231.17
1949.668	232.96
1952.868	236.02
1956.067	235.31
1959.267	236.7
1962.466	237.47
1965.665	236.36
1968.863	236.66
1972.061	240.16
1975.259	243.29
1978.457	244.47
1981.654	247.38
1984.852	247.65
1988.048	247.27
1991.245	249.82
1994.441	252.28
1997.637	254.33
2000.833	259.1
2004.028	262.52
2007.223	263.82
2010.418	265.83
2013.613	271.21
2016.807	274.19
2020.001	276.12
2023.194	279.7
2026.388	286.3
2029.581	292.72
2032.774	295
2035.966	301.23
2039.158	301.93
2042.35	308.37
2045.542	309.49
2048.733	314.17
2051.924	317.16
2055.115	322.96
2058.306	324.16
2061.496	326.75
2064.686	326.29
2067.875	332.43
2071.065	333.52
2074.254	332.02
2077.442	334.94
2080.631	337.58
2083.819	340.29
2087.007	341.08
2090.195	345.89
2093.382	349.21
2096.569	346.73
2099.756	352.75
2102.942	353.29
2106.128	356.27
2109.314	364.51
2112.5	363.22
2115.685	370.47
2118.87	370.76
2122.055	379.24
2125.239	380.32
2128.424	384.15
2131.608	388.95
2134.791	393.04
2137.974	395.67
2141.157	397.06
2144.34	397.98
2147.523	404.91
2150.705	402.96
2153.887	406.63
2157.068	407.55
2160.25	404.47
2163.431	406.89
2166.611	411.15
2169.792	418.64
2172.972	422.31
2176.152	424.98
2179.331	430.87
2182.511	437.33
2185.69	441.69
2188.868	451.19
2192.047	451.66
2195.225	465.05
2198.403	475.81
2201.58	483.98
2204.758	494.19
2207.935	503.84
2211.111	511.41
2214.288	516.71
2217.464	517.57
2220.64	525.96
2223.815	532.74
2226.991	555.45
2230.166	555.52
2233.34	566.11
2236.515	574.34
2239.689	575.25
2242.863	579.05
2246.036	595.82
2249.209	591.76
2252.382	601.75
2255.555	619.79
2258.727	620.97
2261.9	624.1
2265.071	630.92
2268.243	639.82
2271.414	645.34
2274.585	659.32
2277.756	665.33
2280.926	672.77
2284.096	685.19
2287.266	702.08
2290.436	706.08
2293.605	722.84
2296.774	743.58
2299.942	766.28
2303.111	769.24
2306.279	785.94
2309.447	798.06
2312.614	816.57
2315.781	833.84
2318.948	877.62
2322.115	861.62
2325.281	908.12
2328.447	888.83
2331.613	923.83
2334.779	912.96
2337.944	954.31
2341.109	966.31
2344.274	987.67
2347.438	1027.63
2350.602	1029.73
2353.766	1059.32
2356.929	1075.14
2360.092	1067.8
2363.255	1145.22
2366.418	1140.8
2369.58	1163.45
2372.742	1236.33
2375.904	1266.69
2379.066	1259.75
2382.227	1231.33
2385.388	1334.16
2388.548	1331.94
2391.709	1348.18
2394.869	1500.36
2398.029	1438.35
2401.188	1476.56
2404.347	1465.91
2407.506	1437.1
2410.665	1478.91
2413.823	1574.15
2416.981	1668.35
2420.139	1609.65
2423.296	1596.54
2426.453	1661.97
2429.61	1601.53
2432.767	1672.99
2435.923	1660.66
2439.079	1816.78
2442.235	1839.05
2445.391	1822.96
2448.546	1806.2
2451.701	1748.67
2454.855	1750.37
2458.009	1853.59
2461.163	1940.35
2464.317	2006.22
2467.471	2057.97
2470.624	2060.34
2473.777	2005.93
2476.929	1957.57
2480.082	1901.61
2483.234	1878.15
2486.385	1976.8
2489.537	1987.16
2492.688	2059.69
2495.839	2000.28
2498.989	1958.43
2502.14	1970.92
2505.29	1989.76
2508.439	2021.91
2511.589	2016.13
2514.738	2199.88
2517.887	2153.03
2521.035	2276.88
2524.183	2303.59
2527.331	2319.49
2530.479	2308.54
2533.627	2326.9
