Data from N_2_DEC_CT_2N_Splice17_13-31-59-552.txt Node
Date: Sat Mar 07 13:31:59 EST 2020
User: sa697716
Spectrometer: NQ5500242
Trigger mode: 0
Integration Time (sec): 1.450000E-1
Scans to average: 20
Nonlinearity correction enabled: false
Boxcar width: 5
Storing dark spectrum: false
XAxis mode: Wavelengths
Number of Pixels in Spectrum: 512
>>>>>Begin Spectral Data<<<<<
187.83	144.24
188.298	156.79
188.766	139.35
189.233	119.27
189.701	123.95
190.169	135.66
190.636	137.47
191.104	172.23
191.571	92.02
192.039	149.24
192.506	113.18
192.974	122.05
193.441	184.23
193.908	85.19
194.375	78.58
194.842	55.06
195.31	68.59
195.777	139.24
196.244	61.74
196.711	64.34
197.177	69.24
197.644	68.69
198.111	67.92
198.578	67.47
199.045	68.15
199.511	67.89
199.978	68.29
200.445	68.57
200.911	68.64
201.378	68.82
201.844	68.79
202.31	68.02
202.777	67.98
203.243	67.79
203.709	67.61
204.176	67.16
204.642	66.98
205.108	66.34
205.574	65.93
206.04	65.23
206.506	64.91
206.972	64.82
207.438	64.48
207.903	63.9
208.369	62.96
208.835	62.51
209.301	61.52
209.766	60.14
210.232	59.16
210.697	58.18
211.163	57.31
211.628	56.58
212.094	55.61
212.559	55.08
213.024	54.26
213.49	53.74
213.955	52.88
214.42	52.23
214.885	51.48
215.35	50.35
215.815	49
216.28	47.09
216.745	44.95
217.21	43.01
217.675	41.36
218.14	39.92
218.604	38.68
219.069	37.74
219.534	36.95
219.998	36.27
220.463	35.74
220.927	35.13
221.392	34.7
221.856	34.38
222.32	34.06
222.785	33.76
223.249	33.51
223.713	33.25
224.177	32.99
224.642	32.67
225.106	32.4
225.57	32.1
226.034	31.9
226.497	31.69
226.961	31.45
227.425	31.23
227.889	30.98
228.353	30.7
228.816	30.47
229.28	30.2
229.744	29.98
230.207	29.73
230.671	29.51
231.134	29.25
231.597	29.03
232.061	28.8
232.524	28.58
232.987	28.37
233.45	28.16
233.914	27.93
234.377	27.72
234.84	27.5
235.303	27.31
235.766	27.12
236.229	26.93
236.691	26.74
237.154	26.55
237.617	26.37
238.08	26.19
238.542	26
239.005	25.84
239.468	25.65
239.93	25.49
240.393	25.32
240.855	25.12
241.317	24.96
241.78	24.77
242.242	24.58
242.704	24.43
243.166	24.27
243.629	24.11
244.091	23.93
244.553	23.77
245.015	23.62
245.477	23.48
245.939	23.33
246.4	23.18
246.862	23.04
247.324	22.91
247.786	22.75
248.247	22.6
248.709	22.46
249.17	22.33
249.632	22.22
250.093	22.1
250.555	21.98
251.016	21.88
251.477	21.77
251.939	21.67
252.4	21.57
252.861	21.47
253.322	21.38
253.783	21.3
254.244	21.22
254.705	21.12
255.166	21.01
255.627	20.92
256.088	20.83
256.549	20.76
257.009	20.66
257.47	20.56
257.931	20.47
258.391	20.38
258.852	20.28
259.312	20.19
259.773	20.12
260.233	20.07
260.694	20
261.154	19.92
261.614	19.86
262.074	19.8
262.534	19.74
262.994	19.71
263.455	19.68
263.915	19.66
264.374	19.63
264.834	19.61
265.294	19.57
265.754	19.56
266.214	19.55
266.673	19.54
267.133	19.54
267.593	19.53
268.052	19.53
268.512	19.52
268.971	19.51
269.431	19.51
269.89	19.5
270.349	19.51
270.809	19.5
271.268	19.49
271.727	19.47
272.186	19.45
272.645	19.46
273.104	19.44
273.563	19.43
274.022	19.41
274.481	19.4
274.94	19.38
275.399	19.35
275.857	19.32
276.316	19.29
276.775	19.28
277.233	19.25
277.692	19.21
278.15	19.18
278.609	19.16
279.067	19.12
279.525	19.09
279.984	19.06
280.442	19.02
280.9	19
281.358	18.97
281.816	18.93
282.274	18.9
282.732	18.85
283.19	18.81
283.648	18.77
284.106	18.72
284.564	18.67
285.021	18.64
285.479	18.6
285.937	18.54
286.394	18.51
286.852	18.47
287.309	18.42
287.767	18.4
288.224	18.36
288.682	18.33
289.139	18.3
289.596	18.26
290.053	18.21
290.511	18.17
290.968	18.15
291.425	18.11
291.882	18.08
292.339	18.04
292.796	18.01
293.252	17.97
293.709	17.94
294.166	17.91
294.623	17.88
295.079	17.86
295.536	17.83
295.992	17.8
296.449	17.76
296.905	17.73
297.362	17.69
297.818	17.66
298.274	17.64
298.731	17.61
299.187	17.56
299.643	17.52
300.099	17.48
300.555	17.45
301.011	17.41
301.467	17.38
301.923	17.34
302.379	17.29
302.835	17.25
303.291	17.21
303.746	17.17
304.202	17.12
304.658	17.09
305.113	17.07
305.569	17.02
306.024	16.98
306.479	16.95
306.935	16.92
307.39	16.9
307.845	16.86
308.301	16.84
308.756	16.82
309.211	16.79
309.666	16.76
310.121	16.73
310.576	16.69
311.031	16.67
311.486	16.63
311.94	16.6
312.395	16.56
312.85	16.54
313.305	16.51
313.759	16.49
314.214	16.46
314.668	16.43
315.123	16.4
315.577	16.37
316.032	16.35
316.486	16.31
316.94	16.26
317.394	16.2
317.849	16.15
318.303	16.1
318.757	16.05
319.211	16.02
319.665	15.98
320.119	15.95
320.572	15.92
321.026	15.89
321.48	15.86
321.934	15.84
322.387	15.82
322.841	15.8
323.295	15.78
323.748	15.75
324.202	15.72
324.655	15.67
325.108	15.63
325.562	15.6
326.015	15.57
326.468	15.54
326.921	15.5
327.374	15.47
327.827	15.45
328.28	15.42
328.733	15.41
329.186	15.38
329.639	15.37
330.092	15.34
330.545	15.32
330.997	15.3
331.45	15.27
331.903	15.26
332.355	15.24
332.808	15.22
333.26	15.19
333.713	15.17
334.165	15.14
334.617	15.13
335.069	15.11
335.522	15.09
335.974	15.07
336.426	15.06
336.878	15.02
337.33	15
337.782	14.98
338.234	14.96
338.686	14.93
339.137	14.93
339.589	14.89
340.041	14.86
340.493	14.83
340.944	14.78
341.396	14.73
341.847	14.71
342.299	14.67
342.75	14.63
343.201	14.59
343.653	14.55
344.104	14.52
344.555	14.49
345.006	14.45
345.457	14.42
345.908	14.4
346.359	14.38
346.81	14.36
347.261	14.33
347.712	14.3
348.163	14.28
348.613	14.27
349.064	14.25
349.515	14.22
349.965	14.2
350.416	14.18
350.866	14.15
351.317	14.13
351.767	14.12
352.217	14.09
352.668	14.09
353.118	14.08
353.568	14.06
354.018	14.06
354.468	14.06
354.918	14.06
355.368	14.06
355.818	14.08
356.268	14.07
356.718	14.08
357.168	14.06
357.617	14.06
358.067	14.04
358.517	14.04
358.966	14.04
359.416	14.02
359.865	14.01
360.315	14
360.764	13.97
361.213	13.95
361.663	13.93
362.112	13.95
362.561	13.93
363.01	13.92
363.459	13.9
363.908	13.88
364.357	13.88
364.806	13.86
365.255	13.84
365.703	13.85
366.152	13.84
366.601	13.82
367.05	13.81
367.498	13.79
367.947	13.78
368.395	13.76
368.844	13.75
369.292	13.73
369.74	13.72
370.189	13.7
370.637	13.66
371.085	13.64
371.533	13.62
371.981	13.59
372.429	13.57
372.877	13.55
373.325	13.52
373.773	13.49
374.221	13.46
374.669	13.44
375.116	13.42
375.564	13.41
376.012	13.39
376.459	13.38
376.907	13.39
377.354	13.38
377.801	13.37
378.249	13.35
378.696	13.34
379.143	13.33
379.591	13.32
380.038	13.31
380.485	13.31
380.932	13.29
381.379	13.28
381.826	13.25
382.273	13.23
382.72	13.2
383.166	13.2
383.613	13.19
384.06	13.19
384.506	13.16
384.953	13.16
385.4	13.15
385.846	13.15
386.292	13.14
386.739	13.13
387.185	13.13
387.631	13.14
388.078	13.14
388.524	13.13
388.97	13.13
389.416	13.13
389.862	13.15
390.308	13.16
390.754	13.17
391.2	13.19
391.645	13.21
392.091	13.23
392.537	13.25
392.983	13.26
393.428	13.28
393.874	13.28
394.319	13.3
394.765	13.29
395.21	13.31
395.655	13.32
396.101	13.34
396.546	13.34
396.991	13.38
397.436	13.4
397.881	13.45
398.326	13.49
398.771	13.53
399.216	13.56
399.661	13.6
400.106	13.63
400.551	13.66
400.995	13.68
401.44	13.71
401.885	13.73
402.329	13.76
402.774	13.78
403.218	13.83
403.663	13.85
404.107	13.9
404.551	13.93
404.995	13.95
405.44	13.98
405.884	14.02
406.328	14.07
406.772	14.08
407.216	14.13
407.66	14.14
408.104	14.15
408.547	14.18
408.991	14.21
409.435	14.24
409.879	14.27
410.322	14.32
410.766	14.37
411.209	14.42
411.653	14.47
412.096	14.5
412.54	14.55
412.983	14.6
413.426	14.67
413.869	14.72
414.312	14.78
414.756	14.84
415.199	14.87
415.642	14.92
416.085	14.95
416.527	14.98
416.97	15
417.413	15.01
417.856	15.04
418.298	15.05
418.741	15.06
419.184	15.07
419.626	15.08
420.069	15.1
420.511	15.12
420.953	15.13
421.396	15.17
421.838	15.2
422.28	15.24
422.722	15.27
423.164	15.29
423.606	15.31
424.048	15.31
424.49	15.33
424.932	15.36
425.374	15.34
425.816	15.33
426.258	15.31
426.699	15.31
427.141	15.3
427.582	15.3
428.024	15.33
428.465	15.35
428.907	15.37
429.348	15.37
429.789	15.38
430.231	15.42
430.672	15.46
431.113	15.5
431.554	15.52
431.995	15.54
432.436	15.56
432.877	15.57
433.318	15.59
433.759	15.63
434.2	15.65
434.64	15.66
435.081	15.67
435.522	15.68
435.962	15.69
436.403	15.7
436.843	15.73
437.284	15.74
437.724	15.76
438.164	15.75
438.604	15.74
439.045	15.76
439.485	15.79
439.925	15.82
440.365	15.85
440.805	15.87
441.245	15.92
441.685	15.96
442.125	15.99
442.564	16.03
443.004	16.06
443.444	16.09
443.883	16.13
444.323	16.16
444.762	16.19
445.202	16.23
445.641	16.27
446.081	16.29
446.52	16.31
446.959	16.36
447.398	16.39
447.837	16.43
448.276	16.47
448.716	16.51
449.154	16.56
449.593	16.6
450.032	16.62
450.471	16.63
450.91	16.64
451.349	16.67
451.787	16.66
452.226	16.66
452.664	16.67
453.103	16.67
453.541	16.65
453.98	16.64
454.418	16.62
454.856	16.6
455.295	16.6
455.733	16.57
456.171	16.56
456.609	16.56
457.047	16.53
457.485	16.52
457.923	16.52
458.361	16.53
458.798	16.53
459.236	16.53
459.674	16.53
460.111	16.52
460.549	16.54
460.987	16.54
461.424	16.55
461.862	16.56
462.299	16.56
462.736	16.55
463.173	16.53
463.611	16.53
464.048	16.5
464.485	16.51
464.922	16.51
465.359	16.5
465.796	16.49
466.233	16.48
466.67	16.47
467.106	16.46
467.543	16.44
467.98	16.43
468.416	16.41
468.853	16.42
469.29	16.41
469.726	16.4
470.162	16.38
470.599	16.38
471.035	16.37
471.471	16.36
471.907	16.36
472.344	16.35
472.78	16.35
473.216	16.32
473.652	16.3
474.088	16.29
474.523	16.29
474.959	16.28
475.395	16.27
475.831	16.25
476.266	16.26
476.702	16.25
477.138	16.26
477.573	16.25
478.008	16.26
478.444	16.26
478.879	16.25
479.314	16.23
479.75	16.23
480.185	16.21
480.62	16.21
481.055	16.19
481.49	16.18
481.925	16.17
482.36	16.17
482.795	16.16
483.229	16.17
483.664	16.17
484.099	16.15
484.534	16.16
484.968	16.18
485.403	16.18
485.837	16.2
486.271	16.23
486.706	16.24
487.14	16.26
487.574	16.3
488.009	16.33
488.443	16.37
488.877	16.43
489.311	16.47
489.745	16.53
490.179	16.59
490.613	16.65
491.046	16.72
491.48	16.8
491.914	16.88
492.348	16.94
492.781	17.02
493.215	17.11
493.648	17.19
494.082	17.29
494.515	17.36
494.948	17.46
495.382	17.56
495.815	17.65
496.248	17.77
496.681	17.87
497.114	17.99
497.547	18.1
497.98	18.23
498.413	18.35
498.846	18.48
499.279	18.62
499.711	18.76
500.144	18.9
500.577	19.05
501.009	19.19
501.442	19.34
501.874	19.5
502.306	19.66
502.739	19.84
503.171	20.03
503.603	20.19
504.036	20.38
504.468	20.57
504.9	20.75
505.332	20.96
505.764	21.16
506.196	21.38
506.627	21.62
507.059	21.84
507.491	22.06
507.923	22.28
508.354	22.55
508.786	22.8
509.217	23.06
509.649	23.34
510.08	23.6
510.512	23.86
510.943	24.12
511.374	24.39
511.805	24.66
512.237	24.93
512.668	25.21
513.099	25.48
513.53	25.74
513.961	26.02
514.391	26.31
514.822	26.59
515.253	26.88
515.684	27.15
516.114	27.43
516.545	27.73
516.975	28.02
517.406	28.28
517.836	28.55
518.267	28.82
518.697	29.08
519.127	29.33
519.558	29.56
519.988	29.82
520.418	30.06
520.848	30.29
521.278	30.51
521.708	30.9
522.138	31.13
522.567	31.34
522.997	31.56
523.427	31.77
523.857	31.97
524.286	32.17
524.716	32.35
525.145	32.54
525.575	32.74
526.004	32.92
526.433	32.92
526.863	33.07
527.292	33.23
527.721	33.38
528.15	33.52
528.579	33.68
529.008	33.82
529.437	33.96
529.866	34.07
530.295	34.18
530.724	34.28
531.152	34.4
531.581	34.53
532.01	34.63
532.438	34.75
532.867	34.84
533.295	34.91
533.723	35.01
534.152	35.09
534.58	35.17
535.008	35.24
535.436	35.34
535.865	35.4
536.293	35.46
536.721	35.53
537.149	35.59
537.576	35.65
538.004	35.73
538.432	35.79
538.86	35.83
539.287	35.88
539.715	35.96
540.143	35.99
540.57	36.03
540.998	36.07
541.425	36.1
541.852	36.14
542.28	36.18
542.707	36.19
543.134	36.23
543.561	36.29
543.988	36.34
544.415	36.34
544.842	36.38
545.269	36.42
545.696	36.47
546.123	36.49
546.549	36.52
546.976	36.54
547.403	36.58
547.829	36.59
548.256	36.59
548.682	36.61
549.108	36.66
549.535	36.69
549.961	36.71
550.387	36.72
550.813	36.74
551.24	36.74
551.666	36.77
552.092	36.78
552.518	36.8
552.943	36.79
553.369	36.78
553.795	36.76
554.221	36.76
554.646	36.73
555.072	36.7
555.498	36.68
555.923	36.67
556.349	36.6
556.774	36.56
557.199	36.53
557.625	36.51
558.05	36.47
558.475	36.42
558.9	36.36
559.325	36.32
559.75	36.28
560.175	36.21
560.6	36.11
561.025	36.06
561.449	35.97
561.874	35.88
562.299	35.8
562.723	35.71
563.148	35.6
563.572	35.49
563.997	35.39
564.421	35.27
564.846	35.16
565.27	35.08
565.694	34.99
566.118	34.89
566.542	34.78
566.966	34.65
567.39	34.54
567.814	34.43
568.238	34.32
568.662	34.21
569.086	34.1
569.509	33.98
569.933	33.85
570.357	33.71
570.78	33.61
571.204	33.5
571.627	33.39
572.05	33.28
572.474	33.2
572.897	33.09
573.32	32.96
573.743	32.86
574.166	32.77
574.589	32.67
575.012	32.58
575.435	32.47
575.858	32.37
576.281	32.27
576.704	32.18
577.126	32.07
577.549	31.98
577.972	31.9
578.394	31.82
578.817	31.74
579.239	31.64
579.661	31.58
580.084	31.51
580.506	31.43
580.928	31.37
581.35	31.29
581.772	31.22
582.194	31.15
582.616	31.08
583.038	31
583.46	30.93
583.882	30.88
584.303	30.81
584.725	30.75
585.147	30.69
585.568	30.61
585.99	30.55
586.411	30.51
586.833	30.43
587.254	30.38
587.675	30.32
588.096	30.24
588.518	30.19
588.939	30.12
589.36	30.07
589.781	30.02
590.202	29.98
590.623	29.93
591.043	29.88
591.464	29.85
591.885	29.8
592.305	29.78
592.726	29.77
593.147	29.71
593.567	29.68
593.987	29.63
594.408	29.58
594.828	29.53
595.248	29.49
595.669	29.44
596.089	29.39
596.509	29.35
596.929	29.3
597.349	29.24
597.769	29.21
598.189	29.15
598.608	29.12
599.028	29.1
599.448	29.05
599.867	29
600.287	28.96
600.706	28.93
601.126	28.89
601.545	28.84
601.965	28.81
602.384	28.76
602.803	28.7
603.222	28.65
603.641	28.58
604.061	28.54
604.48	28.47
604.898	28.41
605.317	28.36
605.736	28.3
606.155	28.26
606.574	28.19
606.992	28.14
607.411	28.09
607.829	28
608.248	27.93
608.666	27.86
609.085	27.8
609.503	27.74
609.921	27.67
610.339	27.6
610.758	27.53
611.176	27.46
611.594	27.38
612.012	27.32
612.43	27.27
612.847	27.22
613.265	27.15
613.683	27.09
614.101	27.02
614.518	26.93
614.936	26.86
615.353	26.78
615.771	26.73
616.188	26.66
616.606	26.59
617.023	26.53
617.44	26.47
617.857	26.42
618.274	26.37
618.691	26.32
619.108	26.27
619.525	26.23
619.942	26.2
620.359	26.14
620.776	26.12
621.192	26.09
621.609	26.07
622.026	26.04
622.442	26.01
622.859	25.99
623.275	25.96
623.691	25.95
624.108	25.93
624.524	25.91
624.94	25.91
625.356	25.89
625.772	25.88
626.188	25.87
626.604	25.86
627.02	25.85
627.436	25.84
627.852	25.83
628.268	25.83
628.683	25.82
629.099	25.82
629.514	25.79
629.93	25.77
630.345	25.74
630.761	25.67
631.176	25.64
631.591	25.59
632.007	25.53
632.422	25.45
632.837	25.38
633.252	25.29
633.667	25.19
634.082	25.07
634.497	24.97
634.911	24.87
635.326	24.77
635.741	24.63
636.155	24.49
636.57	24.34
636.984	24.19
637.399	24.02
637.813	23.86
638.228	23.68
638.642	23.5
639.056	23.3
639.47	23.12
639.884	22.91
640.298	22.69
640.712	22.5
641.126	22.31
641.54	22.11
641.954	21.91
642.368	21.72
642.781	21.53
643.195	21.35
643.609	21.16
644.022	20.98
644.436	20.82
644.849	20.67
645.262	20.51
645.676	20.36
646.089	20.24
646.502	20.12
646.915	20.01
647.328	19.92
647.741	19.83
648.154	19.76
648.567	19.68
648.98	19.6
649.393	19.53
649.805	19.48
650.218	19.43
650.631	19.37
651.043	19.32
651.456	19.27
651.868	19.21
652.28	19.15
652.693	19.11
653.105	19.05
653.517	19
653.929	18.95
654.341	18.88
654.753	18.82
655.165	18.75
655.577	18.69
655.989	18.6
656.401	18.52
656.813	18.45
657.224	18.35
657.636	18.25
658.047	18.14
658.459	18.02
658.87	17.91
659.282	17.79
659.693	17.67
660.104	17.54
660.515	17.43
660.926	17.29
661.338	17.15
661.749	17
662.159	16.89
662.57	16.77
662.981	16.66
663.392	16.54
663.803	16.43
664.213	16.32
664.624	16.21
665.035	16.11
665.445	16.04
665.855	15.94
666.266	15.88
666.676	15.8
667.086	15.7
667.497	15.62
667.907	15.57
668.317	15.5
668.727	15.44
669.137	15.39
669.547	15.35
669.956	15.29
670.366	15.26
670.776	15.22
671.186	15.19
671.595	15.16
672.005	15.14
672.414	15.11
672.824	15.09
673.233	15.08
673.642	15.08
674.052	15.06
674.461	15.05
674.87	15.07
675.279	15.09
675.688	15.11
676.097	15.14
676.506	15.18
676.915	15.22
677.323	15.28
677.732	15.33
678.141	15.39
678.549	15.47
678.958	15.57
679.366	15.67
679.775	15.78
680.183	15.93
680.592	16.09
681	16.27
681.408	16.47
681.816	16.69
682.224	16.95
682.632	17.23
683.04	17.53
683.448	17.86
683.856	18.2
684.264	18.57
684.671	18.97
685.079	19.39
685.487	19.84
685.894	20.34
686.302	20.85
686.709	21.38
687.116	21.93
687.524	22.52
687.931	23.12
688.338	23.75
688.745	24.38
689.152	25.01
689.559	25.69
689.966	26.35
690.373	27.01
690.78	27.69
691.187	28.36
691.593	29.04
692	29.71
692.407	30.35
692.813	31
693.22	31.64
693.626	32.29
694.032	32.91
694.439	33.51
694.845	34.12
695.251	34.7
695.657	35.27
696.063	35.82
696.469	36.35
696.875	36.89
697.281	37.4
697.687	37.9
698.093	38.38
698.498	38.84
698.904	39.29
699.31	39.72
699.715	40.13
700.12	40.55
700.526	40.97
700.931	41.34
701.337	41.72
701.742	42.08
702.147	42.43
702.552	42.79
702.957	43.11
703.362	43.45
703.767	43.75
704.172	44.08
704.577	44.37
704.981	44.65
705.386	44.95
705.791	45.21
706.195	45.48
706.6	45.76
707.004	46.01
707.408	46.24
707.813	46.48
708.217	46.71
708.621	46.93
709.025	47.16
709.43	47.37
709.834	47.59
710.237	47.8
710.641	47.99
711.045	48.17
711.449	48.36
711.853	48.61
712.256	48.78
712.66	48.95
713.064	49.12
713.467	49.28
713.87	49.44
714.274	49.58
714.677	49.74
715.08	49.89
715.484	50.06
715.887	50.22
716.29	50.31
716.693	50.46
717.096	50.6
717.499	50.75
717.901	50.89
718.304	51.01
718.707	51.14
719.109	51.29
719.512	51.39
719.915	51.49
720.317	51.58
720.719	51.66
721.122	51.75
721.524	51.85
721.926	51.95
722.328	52.04
722.731	52.11
723.133	52.2
723.535	52.27
723.937	52.36
724.338	52.44
724.74	52.53
725.142	52.71
725.544	52.79
725.945	52.9
726.347	52.92
726.748	52.97
727.15	53.02
727.551	53.08
727.952	53.12
728.354	53.18
728.755	53.2
729.156	53.23
729.557	53.19
729.958	53.2
730.359	53.22
730.76	53.29
731.161	53.34
731.562	53.4
731.962	53.44
732.363	53.48
732.763	53.51
733.164	53.57
733.564	53.6
733.965	53.62
734.365	53.65
734.766	53.67
735.166	53.67
735.566	53.71
735.966	53.72
736.366	53.72
736.766	53.74
737.166	53.78
737.566	53.8
737.966	53.82
738.365	53.85
738.765	53.89
739.165	53.9
739.564	53.96
739.964	53.97
740.363	53.99
740.763	54.02
741.162	54.04
741.561	54.04
741.96	54.02
742.36	54.02
742.759	54.03
743.158	54.04
743.557	54.06
743.955	54.04
744.354	54.04
744.753	54.07
745.152	54.11
745.55	54.14
745.949	54.13
746.348	54.2
746.746	54.22
747.144	54.26
747.543	54.27
747.941	54.28
748.339	54.28
748.737	54.3
749.136	54.29
749.534	54.24
749.932	54.23
750.33	54.25
750.727	54.24
751.125	54.25
751.523	54.24
751.921	54.23
752.318	54.23
752.716	54.23
753.113	54.25
753.511	54.25
753.908	54.3
754.305	54.31
754.703	54.29
755.1	54.28
755.497	54.28
755.894	54.28
756.291	54.31
756.688	54.32
757.085	54.36
757.482	54.34
757.878	54.33
758.275	54.31
758.672	54.31
759.068	54.34
759.465	54.34
759.861	54.34
760.258	54.34
760.654	54.32
761.05	54.31
761.447	54.3
761.843	54.29
762.239	54.28
762.635	54.27
763.031	54.26
763.427	54.21
763.822	54.22
764.218	54.24
764.614	54.26
765.01	54.27
765.405	54.23
765.801	54.2
766.196	54.19
766.592	54.19
766.987	54.19
767.382	54.19
767.778	54.22
768.173	54.21
768.568	54.17
768.963	54.16
769.358	54.15
769.753	54.17
770.148	54.17
770.542	54.19
770.937	54.19
771.332	54.18
771.726	54.21
772.121	54.22
772.515	54.23
772.91	54.24
773.304	54.24
773.699	54.23
774.093	54.22
774.487	54.22
774.881	54.23
775.275	54.2
775.669	54.2
776.063	54.17
776.457	54.16
776.851	54.17
777.245	54.15
777.638	54.16
778.032	54.18
778.425	54.23
778.819	54.23
779.212	54.22
779.606	54.27
779.999	54.29
780.392	54.32
780.786	54.32
781.179	54.34
781.572	54.38
781.965	54.37
782.358	54.36
782.751	54.36
783.143	54.37
783.536	54.38
783.929	54.38
784.322	54.39
784.714	54.4
785.107	54.43
785.499	54.42
785.891	54.42
786.284	54.44
786.676	54.44
787.068	54.44
787.46	54.46
787.852	54.46
788.245	54.47
788.636	54.44
789.028	54.43
789.42	54.41
789.812	54.41
790.204	54.43
790.595	54.43
790.987	54.45
791.378	54.45
791.77	54.45
792.161	54.45
792.553	54.47
792.944	54.48
793.335	54.5
793.726	54.53
794.117	54.52
794.508	54.48
794.899	54.49
795.29	54.48
795.681	54.47
796.072	54.47
796.463	54.51
796.853	54.51
797.244	54.52
797.634	54.52
798.025	54.55
798.415	54.56
798.806	54.56
799.196	54.57
799.586	54.59
799.976	54.6
800.366	54.62
800.756	54.63
801.146	54.63
801.536	54.65
801.926	54.68
802.316	54.66
802.706	54.66
803.095	54.71
803.485	54.71
803.874	54.71
804.264	54.75
804.653	54.73
805.043	54.73
805.432	54.74
805.821	54.74
806.21	54.73
806.599	54.74
806.988	54.76
807.377	54.74
807.766	54.75
808.155	54.73
808.544	54.73
808.933	54.73
809.321	54.72
809.71	54.73
810.098	54.75
810.487	54.74
810.875	54.73
811.264	54.74
811.652	54.75
812.04	54.74
812.428	54.78
812.816	54.78
813.204	54.8
813.592	54.8
813.98	54.81
814.368	54.81
814.756	54.81
815.144	54.83
815.531	54.85
815.919	54.86
816.306	54.86
816.694	54.84
817.081	54.86
817.469	54.87
817.856	54.87
818.243	54.84
818.63	54.82
819.017	54.84
819.404	54.83
819.791	54.83
820.178	54.83
820.565	54.84
820.952	54.84
821.339	54.8
821.725	54.82
822.112	54.81
822.498	54.82
822.885	54.86
823.271	54.83
823.657	54.81
824.044	54.81
824.43	54.82
824.816	54.83
825.202	54.84
825.588	54.87
825.974	54.84
826.36	54.85
826.746	54.84
827.132	54.81
827.517	54.85
827.903	54.86
828.289	54.87
828.674	54.87
829.06	54.86
829.445	54.84
829.83	54.81
830.216	54.78
830.601	54.79
830.986	54.8
831.371	54.79
831.756	54.77
832.141	54.78
832.526	54.76
832.911	54.75
833.295	54.74
833.68	54.77
834.065	54.79
834.449	54.8
834.834	54.77
835.218	54.76
835.603	54.75
835.987	54.74
836.371	54.73
836.755	54.7
837.139	54.65
837.524	54.66
837.908	54.66
838.291	54.65
838.675	54.66
839.059	54.66
839.443	54.67
839.827	54.67
840.21	54.67
840.594	54.67
840.977	54.7
841.361	54.72
841.744	54.68
842.127	54.64
842.511	54.64
842.894	54.61
843.277	54.62
843.66	54.61
844.043	54.61
844.426	54.62
844.809	54.62
845.191	54.63
845.574	54.64
845.957	54.67
846.339	54.69
846.722	54.69
847.104	54.7
847.487	54.7
847.869	54.7
848.252	54.7
848.634	54.71
849.016	54.72
849.398	54.72
849.78	54.72
850.162	54.73
850.544	54.73
850.926	54.74
851.307	54.73
851.689	54.73
852.071	54.72
852.452	54.72
852.834	54.71
853.215	54.7
853.597	54.7
853.978	54.7
854.359	54.69
854.741	54.7
855.122	54.69
855.503	54.72
855.884	54.73
856.265	54.73
856.646	54.73
857.026	54.75
857.407	54.76
857.788	54.74
858.169	54.77
858.549	54.79
858.93	54.78
859.31	54.8
859.69	54.81
860.071	54.81
860.451	54.82
860.831	54.84
861.211	54.83
861.591	54.84
861.971	54.84
862.351	54.82
862.731	54.81
863.111	54.83
863.491	54.83
863.87	54.81
864.25	54.8
864.629	54.82
865.009	54.82
865.388	54.82
865.768	54.84
866.147	54.84
866.526	54.84
866.905	54.85
867.284	54.87
867.663	54.86
868.042	54.87
868.421	54.9
868.8	54.92
869.179	54.93
869.558	54.94
869.936	54.93
870.315	54.93
870.693	54.95
871.072	54.97
871.45	54.97
871.828	55
872.207	55.02
872.585	55
872.963	54.99
873.341	54.96
873.719	54.95
874.097	54.95
874.475	54.99
874.853	55
875.23	55.01
875.608	55.01
875.986	55.02
876.363	55.02
876.741	55.03
877.118	55.05
877.495	55.08
877.873	55.1
878.25	55.12
878.627	55.08
879.004	55.08
879.381	55.08
879.758	55.05
880.135	55.03
880.512	55.02
880.889	55.01
881.265	55
881.642	55
882.019	54.99
882.395	54.96
882.772	54.95
883.148	54.92
883.524	54.89
883.901	54.89
884.277	54.87
884.653	54.85
885.029	54.83
885.405	54.82
885.781	54.8
886.157	54.79
886.532	54.78
886.908	54.78
887.284	54.78
887.659	54.75
888.035	54.74
888.411	54.74
888.786	54.74
889.161	54.76
889.537	54.76
889.912	54.74
890.287	54.75
890.662	54.76
891.037	54.76
891.412	54.76
891.787	54.77
892.162	54.77
892.536	54.76
892.911	54.75
893.286	54.75
893.66	54.73
894.035	54.73
894.409	54.71
894.784	54.71
895.158	54.69
895.532	54.67
895.906	54.67
896.281	54.66
896.655	54.65
897.029	54.64
897.402	54.64
897.776	54.66
898.15	54.68
898.524	54.68
898.898	54.66
899.271	54.68
899.645	54.73
900.018	54.74
900.392	54.79
900.765	54.84
901.138	54.85
901.511	54.86
901.884	54.89
902.258	54.89
902.631	54.91
903.003	54.95
903.376	54.93
903.749	54.92
904.122	54.95
904.495	54.94
904.867	54.92
905.24	54.93
905.612	54.94
905.985	54.89
906.357	54.88
906.729	54.91
907.102	54.89
907.474	54.91
907.846	54.92
908.218	54.88
908.59	54.92
908.962	54.93
909.334	54.96
909.705	54.95
910.077	54.98
910.449	54.99
910.82	54.98
911.192	54.97
911.563	54.97
911.935	54.95
912.306	54.96
912.677	54.93
913.048	54.95
913.419	54.95
913.79	54.97
914.161	55
914.532	55.01
914.903	55.01
915.274	55.05
915.645	55.07
916.015	55.1
916.386	55.13
916.756	55.12
917.127	55.13
917.497	55.13
917.868	55.12
918.238	55.11
918.608	55.13
918.978	55.15
919.348	55.16
919.718	55.14
920.088	55.12
920.458	55.13
920.828	55.11
921.198	55.07
921.567	55.05
921.937	55.07
922.306	55.06
922.676	55.05
923.045	54.99
923.415	54.96
923.784	54.99
924.153	55.02
924.522	55.02
924.891	55.04
925.26	55.08
925.629	55.1
925.998	55.09
926.367	55.11
926.736	55.1
927.104	55.14
927.473	55.14
927.842	55.1
928.21	55.08
928.578	55.05
928.947	55.04
929.315	54.98
929.683	54.93
930.051	54.88
930.42	54.86
930.788	54.85
931.156	54.81
931.523	54.77
931.891	54.79
932.259	54.83
932.627	54.85
932.994	54.88
933.362	54.85
933.729	54.88
934.097	54.87
934.464	54.87
934.831	54.87
935.199	54.92
935.566	54.95
935.933	54.88
936.3	54.81
936.667	54.8
937.034	54.81
937.401	54.89
937.767	54.92
938.134	54.95
938.501	54.99
938.867	55.04
939.234	55.03
939.6	55.05
939.967	55.14
940.333	55.16
940.699	55.19
941.065	55.14
941.431	55.17
941.798	55.17
942.163	55.16
942.529	55.1
942.895	55.09
943.261	55.08
943.627	55.05
943.992	55.08
944.358	55.11
944.723	55.03
945.089	55.01
945.454	54.97
945.82	54.93
946.185	54.94
946.55	54.93
946.915	54.93
947.28	54.9
947.645	54.91
948.01	54.88
948.375	54.84
948.74	54.81
949.104	54.79
949.469	54.77
949.834	54.79
950.198	54.81
950.562	54.81
950.927	54.76
951.291	54.71
951.655	54.64
952.02	54.57
952.384	54.5
952.748	54.53
953.112	54.54
953.476	54.49
953.839	54.38
954.203	54.37
954.567	54.32
954.931	54.26
955.294	54.24
955.658	54.33
956.021	54.33
956.385	54.33
956.748	54.26
957.111	54.22
957.474	54.21
957.837	54.18
958.2	54.1
958.563	54.05
958.926	54.1
959.289	54.08
959.652	53.95
960.015	53.95
960.377	53.99
960.74	54.02
961.102	54.03
961.465	54.07
961.827	54.15
962.189	54.15
962.552	54.12
962.914	54.06
963.276	54.1
963.638	54.17
964	54.18
964.362	54.18
964.724	54.13
965.085	54.13
965.447	54.1
965.809	54.13
966.17	54.11
966.532	54.16
966.893	54.23
967.255	54.26
967.616	54.22
967.977	54.19
968.338	54.12
968.699	54.18
969.061	54.13
969.421	54.17
969.782	54.18
970.143	54.19
970.504	54.24
970.865	54.26
971.225	54.16
971.586	54.14
971.946	54.16
972.307	54.18
972.667	54.12
973.027	54.17
973.388	54.13
973.748	54.14
974.108	54.19
974.468	54.13
974.828	54.13
975.188	54.19
975.548	54.2
975.907	54.24
976.267	54.23
976.627	54.28
976.986	54.28
977.346	54.23
977.705	54.17
978.064	54.19
978.424	54.19
978.783	54.08
979.142	54.05
979.501	54
979.86	53.98
980.219	54
980.578	54.03
980.937	54.09
981.296	54.09
981.654	54.16
982.013	54.14
982.371	54.17
982.73	54.25
983.088	54.28
983.447	54.36
983.805	54.35
984.163	54.39
984.521	54.36
984.879	54.23
985.237	54.26
985.595	54.2
985.953	54.18
986.311	54.11
986.669	54.06
987.026	54.03
987.384	54.05
987.741	53.99
988.099	54.02
988.456	54.01
988.814	54.01
989.171	54
989.528	54.02
989.885	54.04
990.242	54.08
990.599	54.19
990.956	54.2
991.313	54.18
991.67	54.23
992.027	54.3
992.383	54.39
992.74	54.52
993.096	54.52
993.453	54.51
993.809	54.54
994.165	54.59
994.522	54.67
994.878	54.66
995.234	54.69
995.59	54.64
995.946	54.58
996.302	54.54
996.658	54.51
997.013	54.54
997.369	54.63
997.725	54.6
998.08	54.66
998.436	54.55
998.791	54.7
999.147	54.75
999.502	54.9
999.857	54.83
1000.212	54.85
1000.567	54.84
1000.922	54.91
1001.277	54.95
1001.632	54.96
1001.987	54.95
1002.342	54.91
1002.696	54.78
1003.051	54.82
1003.406	54.97
1003.76	55.06
1004.114	55.08
1004.469	55.12
1004.823	55.28
1005.177	55.22
1005.531	55.3
1005.885	55.25
1006.239	55.31
1006.593	55.53
1006.947	55.42
1007.301	55.28
1007.655	55.37
1008.008	55.43
1008.362	55.46
1008.715	55.26
1009.069	55.28
1009.422	55.2
1009.776	55.23
1010.129	55.18
1010.482	55.09
1010.835	55.19
1011.188	55.22
1011.541	55.18
1011.894	55.24
1012.247	55.38
1012.6	55.48
1012.952	55.46
1013.305	55.63
1013.657	55.77
1014.01	55.95
1014.362	55.95
1014.715	56.13
1015.067	56.27
1015.419	56.41
1015.771	56.26
1016.123	56.27
1016.475	56.35
1016.827	56.4
1017.179	56.41
1017.531	56.47
1017.883	56.56
1018.234	56.71
1018.586	56.74
1018.938	56.79
1019.289	56.71
1019.64	56.71
1019.992	56.67
1020.343	56.71
1020.694	56.91
1021.045	57.08
1021.396	57.09
1021.747	57.38
1022.098	57.55
1022.449	57.44
1022.8	57.45
1023.151	57.46
1023.501	57.87
1023.852	57.99
1024.202	57.97
1024.553	58.03
1024.903	58.21
1025.253	58.53
1025.604	58.18
1025.954	57.79
1026.304	57.93
1026.654	57.99
1027.004	58.2
1027.354	58.11
1027.703	58.04
1028.053	58
1028.403	57.99
1028.753	57.5
1029.102	57.26
1029.452	57.39
1029.801	57.79
1030.15	57.71
1030.499	57.54
897.758	1449.92
901.051	1460.87
904.343	1454.29
907.636	1482.21
910.928	1441.58
914.22	1438.54
917.511	1418.58
920.803	1360.67
924.094	1353.57
927.384	1324.15
930.675	1269.97
933.965	1264.08
937.255	1186.23
940.544	1140.25
943.834	1085
947.123	1076.96
950.411	1015.62
953.7	995.67
956.988	937.67
960.276	902.29
963.563	888.09
966.851	856.41
970.138	846.88
973.424	822.4
976.711	827.65
979.997	785.5
983.283	781.68
986.568	765.27
989.853	743.48
993.138	732.65
996.423	704.34
999.708	682.83
1002.992	675.26
1006.275	646.38
1009.559	640.33
1012.842	617.15
1016.125	601.56
1019.408	589.41
1022.69	582.58
1025.972	569.62
1029.254	555.48
1032.536	546.05
1035.817	537.73
1039.098	529.63
1042.379	518.04
1045.659	512.8
1048.939	500.16
1052.219	491.09
1055.498	483.07
1058.778	471.42
1062.057	460.72
1065.335	456.14
1068.614	451.33
1071.892	444.63
1075.17	430.89
1078.447	423.32
1081.724	420.07
1085.001	417.02
1088.278	408.15
1091.554	400.54
1094.83	401.07
1098.106	398.08
1101.382	394.83
1104.657	391.93
1107.932	385.92
1111.206	388.24
1114.481	378.38
1117.755	375.2
1121.029	371.54
1124.302	371.02
1127.575	364.36
1130.848	359.44
1134.121	355.72
1137.393	353.7
1140.665	346.12
1143.937	344.44
1147.208	341.94
1150.48	342
1153.75	336.86
1157.021	333.2
1160.291	333.06
1163.561	329.85
1166.831	329.98
1170.101	327.69
1173.37	326.71
1176.639	327.32
1179.907	324.54
1183.176	321.68
1186.444	320.3
1189.711	320.26
1192.979	318.81
1196.246	316.99
1199.513	317.86
1202.78	316.16
1206.046	316.22
1209.312	313.29
1212.578	313.6
1215.843	315.49
1219.108	313.13
1222.373	320.48
1225.638	322.29
1228.902	327.16
1232.166	326.92
1235.43	330.18
1238.693	333.31
1241.956	335.68
1245.219	341.07
1248.482	340.84
1251.744	340.71
1255.006	342.09
1258.268	334.03
1261.529	331.31
1264.79	327.9
1268.051	326.62
1271.312	322.3
1274.572	318.59
1277.832	315.1
1281.092	309.88
1284.351	307.74
1287.61	308.1
1290.869	303.29
1294.128	301.2
1297.386	300.76
1300.644	298.52
1303.902	299.63
1307.159	297.57
1310.416	298.47
1313.673	298.22
1316.93	301.52
1320.186	301.55
1323.442	301.87
1326.697	307.7
1329.953	309.11
1333.208	309.95
1336.463	313.49
1339.717	313.45
1342.972	318.45
1346.226	320.41
1349.479	320.57
1352.733	321.63
1355.986	323.93
1359.238	323.75
1362.491	325.79
1365.743	327.88
1368.995	328.65
1372.247	327.86
1375.498	327.93
1378.749	330.54
1382	326.07
1385.251	328.3
1388.501	326.39
1391.751	327.32
1395	326.04
1398.25	323.12
1401.499	321.43
1404.748	321.35
1407.996	317.58
1411.244	316.55
1414.492	314.1
1417.74	312.6
1420.987	307.17
1424.234	307.4
1427.481	302.63
1430.728	302.17
1433.974	298.86
1437.22	297.3
1440.465	295.76
1443.711	294.16
1446.956	292.31
1450.201	288.83
1453.445	286.47
1456.689	285.79
1459.933	280.52
1463.177	278.69
1466.42	274.65
1469.663	271.21
1472.906	269.02
1476.148	262.4
1479.391	259.21
1482.633	256.66
1485.874	252.74
1489.115	250.78
1492.356	247.69
1495.597	247.62
1498.838	243.8
1502.078	242.44
1505.318	241.72
1508.557	241.41
1511.797	241.65
1515.036	240.53
1518.274	239.53
1521.513	237.76
1524.751	237.13
1527.989	236.85
1531.227	235.48
1534.464	236.47
1537.701	234.16
1540.938	233.55
1544.174	230.96
1547.41	230.78
1550.646	229
1553.882	229.45
1557.117	226.56
1560.352	225.72
1563.587	224.77
1566.821	223.09
1570.055	220.44
1573.289	219.35
1576.523	219.12
1579.756	216.91
1582.989	215.73
1586.222	216.34
1589.454	214.16
1592.686	216.14
1595.918	214.69
1599.15	213.96
1602.381	214.48
1605.612	214.52
1608.843	215.68
1612.073	215.23
1615.303	216.72
1618.533	216.6
1621.762	216.05
1624.992	216.7
1628.221	216.15
1631.449	216.09
1634.678	214.93
1637.906	216.55
1641.134	216.45
1644.361	215.38
1647.588	216.48
1650.815	215.53
1654.042	214.68
1657.269	216.16
1660.495	216.26
1663.72	215.41
1666.946	216.71
1670.171	218
1673.396	216.63
1676.621	217.38
1679.845	217.73
1683.069	217.23
1686.293	219.23
1689.517	220.54
1692.74	219.84
1695.963	220.67
1699.185	223.11
1702.408	222.81
1705.63	223.6
1708.852	224.41
1712.073	224.79
1715.294	225.47
1718.515	227
1721.736	226.17
1724.956	226.66
1728.176	226.61
1731.396	228.79
1734.616	227.65
1737.835	228.53
1741.054	227.37
1744.272	227.59
1747.491	229.68
1750.709	229.97
1753.927	229.76
1757.144	229.28
1760.361	230.57
1763.578	231.05
1766.795	230.09
1770.011	232.06
1773.227	231.91
1776.443	234.57
1779.658	235.85
1782.874	235.05
1786.089	236.07
1789.303	236.6
1792.518	238.96
1795.732	238.86
1798.945	241.07
1802.159	241.09
1805.372	241.55
1808.585	246.15
1811.797	246.5
1815.01	247.2
1818.222	248.82
1821.434	250.7
1824.645	251.93
1827.856	256.12
1831.067	257.8
1834.278	257.39
1837.488	259.37
1840.698	261.09
1843.908	258.13
1847.117	260.3
1850.326	261.79
1853.535	260.91
1856.744	264.78
1859.952	263.93
1863.16	262.68
1866.368	260.98
1869.575	264.06
1872.782	260
1875.989	258.94
1879.196	257.99
1882.402	255.47
1885.608	256.49
1888.814	256.94
1892.019	255.96
1895.224	255.4
1898.429	253.59
1901.634	254.72
1904.838	254.39
1908.042	257.13
1911.246	258.23
1914.449	259.86
1917.652	259.91
1920.855	259.75
1924.058	259.57
1927.26	257.84
1930.462	258.82
1933.664	261.96
1936.865	259.9
1940.066	259.23
1943.267	257.93
1946.467	257.19
1949.668	259.26
1952.868	263.04
1956.067	262.45
1959.267	262.13
1962.466	263.33
1965.665	261.63
1968.863	261.9
1972.061	266.71
1975.259	269.48
1978.457	271.42
1981.654	274.25
1984.852	274.03
1988.048	272.88
1991.245	275.08
1994.441	279.53
1997.637	280.82
2000.833	286.98
2004.028	290.85
2007.223	290.68
2010.418	292.9
2013.613	297.96
2016.807	300.24
2020.001	303.33
2023.194	307.94
2026.388	315.11
2029.581	321.61
2032.774	325.13
2035.966	331.55
2039.158	331.82
2042.35	338.56
2045.542	341.84
2048.733	348
2051.924	351.99
2055.115	358.29
2058.306	358.99
2061.496	362.64
2064.686	362.52
2067.875	368.96
2071.065	370.93
2074.254	368.94
2077.442	373.71
2080.631	375
2083.819	377.92
2087.007	379.97
2090.195	382.64
2093.382	386.98
2096.569	384.21
2099.756	389.94
2102.942	390.3
2106.128	394.46
2109.314	402.29
2112.5	401.09
2115.685	409.2
2118.87	410.18
2122.055	416.99
2125.239	420.93
2128.424	424.53
2131.608	429.07
2134.791	434.18
2137.974	435.98
2141.157	436.33
2144.34	438.65
2147.523	445.89
2150.705	442.68
2153.887	446.22
2157.068	447.26
2160.25	443.61
2163.431	445.56
2166.611	449.57
2169.792	458.71
2172.972	463.42
2176.152	466.93
2179.331	472.97
2182.511	479.76
2185.69	485.52
2188.868	495.56
2192.047	496.89
2195.225	511.26
2198.403	524.42
2201.58	534.36
2204.758	543.79
2207.935	555.85
2211.111	564.39
2214.288	571.06
2217.464	572.45
2220.64	581.5
2223.815	589.15
2226.991	613.05
2230.166	614.2
2233.34	624.65
2236.515	633.66
2239.689	634.17
2242.863	637.73
2246.036	656.24
2249.209	651.19
2252.382	662.44
2255.555	682.1
2258.727	684.48
2261.9	686.85
2265.071	693.56
2268.243	704.61
2271.414	713.96
2274.585	729.65
2277.756	737.11
2280.926	741.28
2284.096	760.41
2287.266	776.36
2290.436	781.92
2293.605	800.27
2296.774	825.04
2299.942	850.67
2303.111	854.18
2306.279	872.39
2309.447	886.1
2312.614	908.29
2315.781	933.23
2318.948	976.93
2322.115	962.41
2325.281	1012.03
2328.447	990.86
2331.613	1032.65
2334.779	1020.8
2337.944	1066.16
2341.109	1076.7
2344.274	1104.5
2347.438	1146.09
2350.602	1144.14
2353.766	1178.06
2356.929	1196.34
2360.092	1187.27
2363.255	1272.92
2366.418	1266.03
2369.58	1290.22
2372.742	1373.63
2375.904	1408.99
2379.066	1399.27
2382.227	1367.77
2385.388	1488.32
2388.548	1488.09
2391.709	1505.49
2394.869	1678.59
2398.029	1613.24
2401.188	1661.24
2404.347	1654.83
2407.506	1620.74
2410.665	1665.3
2413.823	1765.45
2416.981	1871.37
2420.139	1807.41
2423.296	1787.05
2426.453	1865.97
2429.61	1795.7
2432.767	1876.46
2435.923	1857.6
2439.079	2025.09
2442.235	2053.21
2445.391	2035.05
2448.546	2022.84
2451.701	1963.4
2454.855	1960.74
2458.009	2083.55
2461.163	2162.66
2464.317	2243.18
2467.471	2298.63
2470.624	2301.97
2473.777	2241.54
2476.929	2191.55
2480.082	2125.99
2483.234	2101.12
2486.385	2211.16
2489.537	2223.05
2492.688	2302.43
2495.839	2244.41
2498.989	2194.48
2502.14	2205.12
2505.29	2226.67
2508.439	2266
2511.589	2256.24
2514.738	2462.6
2517.887	2402.5
2521.035	2542.94
2524.183	2566.19
2527.331	2581.41
2530.479	2573.03
2533.627	2594.3
