Data from N_2_DIV_OH_2N_Splice17_13-23-44-579.txt Node
Date: Sat Mar 07 13:23:44 EST 2020
User: sa697716
Spectrometer: NQ5500242
Trigger mode: 0
Integration Time (sec): 1.450000E-1
Scans to average: 20
Nonlinearity correction enabled: false
Boxcar width: 5
Storing dark spectrum: false
XAxis mode: Wavelengths
Number of Pixels in Spectrum: 512
>>>>>Begin Spectral Data<<<<<
187.83	177.87
188.298	205.65
188.766	172.85
189.233	155.57
189.701	170.12
190.169	194.68
190.636	193.8
191.104	340.03
191.571	318.31
192.039	191.97
192.506	558.99
192.974	-5.58
193.441	246.62
193.908	70.22
194.375	93.47
194.842	88.31
195.31	172.68
195.777	156.62
196.244	63.2
196.711	47.42
197.177	48.46
197.644	47.79
198.111	46.91
198.578	45.97
199.045	46.08
199.511	46.08
199.978	45.93
200.445	45.73
200.911	45.68
201.378	45.76
201.844	45.84
202.31	45.47
202.777	45.4
203.243	45.62
203.709	45.21
204.176	44.89
204.642	44.54
205.108	44.58
205.574	44.41
206.04	44.01
206.506	43.52
206.972	43.32
207.438	42.81
207.903	42.14
208.369	41.1
208.835	40.44
209.301	39.49
209.766	38.41
210.232	37.17
210.697	35.81
211.163	34.96
211.628	33.96
212.094	32.94
212.559	32.28
213.024	31.58
213.49	30.91
213.955	30.25
214.42	29.57
214.885	28.68
215.35	27.63
215.815	26.49
216.28	24.56
216.745	22.57
217.21	20.63
217.675	18.66
218.14	16.98
218.604	15.51
219.069	14.27
219.534	13.25
219.998	12.35
220.463	11.72
220.927	10.97
221.392	10.52
221.856	10.14
222.32	9.77
222.785	9.48
223.249	9.19
223.713	8.96
224.177	8.76
224.642	8.55
225.106	8.37
225.57	8.14
226.034	8.03
226.497	7.9
226.961	7.73
227.425	7.61
227.889	7.48
228.353	7.37
228.816	7.23
229.28	7.11
229.744	7.01
230.207	6.92
230.671	6.83
231.134	6.72
231.597	6.63
232.061	6.53
232.524	6.43
232.987	6.35
233.45	6.29
233.914	6.2
234.377	6.14
234.84	6.07
235.303	5.99
235.766	5.94
236.229	5.88
236.691	5.8
237.154	5.76
237.617	5.7
238.08	5.64
238.542	5.58
239.005	5.54
239.468	5.48
239.93	5.43
240.393	5.38
240.855	5.31
241.317	5.25
241.78	5.21
242.242	5.15
242.704	5.11
243.166	5.05
243.629	5.01
244.091	4.94
244.553	4.9
245.015	4.84
245.477	4.79
245.939	4.75
246.4	4.71
246.862	4.66
247.324	4.62
247.786	4.58
248.247	4.53
248.709	4.48
249.17	4.43
249.632	4.41
250.093	4.37
250.555	4.34
251.016	4.3
251.477	4.27
251.939	4.24
252.4	4.2
252.861	4.17
253.322	4.15
253.783	4.12
254.244	4.11
254.705	4.07
255.166	4.04
255.627	4.02
256.088	4
256.549	3.97
257.009	3.93
257.47	3.91
257.931	3.87
258.391	3.83
258.852	3.8
259.312	3.76
259.773	3.72
260.233	3.7
260.694	3.67
261.154	3.63
261.614	3.61
262.074	3.58
262.534	3.56
262.994	3.54
263.455	3.52
263.915	3.5
264.374	3.47
264.834	3.46
265.294	3.43
265.754	3.41
266.214	3.39
266.673	3.37
267.133	3.36
267.593	3.35
268.052	3.33
268.512	3.32
268.971	3.31
269.431	3.29
269.89	3.28
270.349	3.27
270.809	3.26
271.268	3.25
271.727	3.24
272.186	3.22
272.645	3.21
273.104	3.2
273.563	3.19
274.022	3.18
274.481	3.17
274.94	3.17
275.399	3.15
275.857	3.14
276.316	3.13
276.775	3.12
277.233	3.11
277.692	3.11
278.15	3.09
278.609	3.09
279.067	3.08
279.525	3.08
279.984	3.07
280.442	3.07
280.9	3.07
281.358	3.07
281.816	3.07
282.274	3.07
282.732	3.06
283.19	3.06
283.648	3.05
284.106	3.04
284.564	3.04
285.021	3.03
285.479	3.02
285.937	3.01
286.394	3
286.852	2.99
287.309	2.97
287.767	2.96
288.224	2.95
288.682	2.94
289.139	2.92
289.596	2.9
290.053	2.88
290.511	2.87
290.968	2.86
291.425	2.84
291.882	2.83
292.339	2.82
292.796	2.81
293.252	2.81
293.709	2.8
294.166	2.8
294.623	2.79
295.079	2.78
295.536	2.77
295.992	2.76
296.449	2.76
296.905	2.75
297.362	2.74
297.818	2.73
298.274	2.73
298.731	2.72
299.187	2.71
299.643	2.71
300.099	2.7
300.555	2.7
301.011	2.69
301.467	2.68
301.923	2.68
302.379	2.68
302.835	2.68
303.291	2.67
303.746	2.66
304.202	2.67
304.658	2.67
305.113	2.67
305.569	2.67
306.024	2.67
306.479	2.66
306.935	2.66
307.39	2.66
307.845	2.66
308.301	2.67
308.756	2.67
309.211	2.66
309.666	2.66
310.121	2.66
310.576	2.66
311.031	2.66
311.486	2.67
311.94	2.68
312.395	2.68
312.85	2.67
313.305	2.67
313.759	2.68
314.214	2.68
314.668	2.67
315.123	2.66
315.577	2.66
316.032	2.65
316.486	2.65
316.94	2.64
317.394	2.64
317.849	2.62
318.303	2.61
318.757	2.6
319.211	2.59
319.665	2.58
320.119	2.57
320.572	2.56
321.026	2.55
321.48	2.54
321.934	2.52
322.387	2.51
322.841	2.51
323.295	2.51
323.748	2.51
324.202	2.51
324.655	2.51
325.108	2.52
325.562	2.52
326.015	2.53
326.468	2.53
326.921	2.53
327.374	2.53
327.827	2.54
328.28	2.54
328.733	2.54
329.186	2.54
329.639	2.54
330.092	2.54
330.545	2.53
330.997	2.53
331.45	2.54
331.903	2.55
332.355	2.55
332.808	2.55
333.26	2.56
333.713	2.55
334.165	2.56
334.617	2.56
335.069	2.55
335.522	2.56
335.974	2.56
336.426	2.56
336.878	2.55
337.33	2.55
337.782	2.54
338.234	2.55
338.686	2.54
339.137	2.55
339.589	2.54
340.041	2.54
340.493	2.53
340.944	2.51
341.396	2.51
341.847	2.5
342.299	2.49
342.75	2.49
343.201	2.47
343.653	2.46
344.104	2.44
344.555	2.43
345.006	2.41
345.457	2.41
345.908	2.4
346.359	2.41
346.81	2.4
347.261	2.4
347.712	2.39
348.163	2.39
348.613	2.4
349.064	2.4
349.515	2.4
349.965	2.4
350.416	2.4
350.866	2.4
351.317	2.39
351.767	2.39
352.217	2.39
352.668	2.39
353.118	2.4
353.568	2.39
354.018	2.39
354.468	2.39
354.918	2.39
355.368	2.39
355.818	2.4
356.268	2.4
356.718	2.4
357.168	2.4
357.617	2.39
358.067	2.38
358.517	2.4
358.966	2.41
359.416	2.42
359.865	2.42
360.315	2.42
360.764	2.42
361.213	2.42
361.663	2.41
362.112	2.42
362.561	2.43
363.01	2.44
363.459	2.42
363.908	2.42
364.357	2.42
364.806	2.41
365.255	2.42
365.703	2.42
366.152	2.43
366.601	2.43
367.05	2.44
367.498	2.44
367.947	2.45
368.395	2.47
368.844	2.47
369.292	2.48
369.74	2.49
370.189	2.5
370.637	2.5
371.085	2.5
371.533	2.51
371.981	2.51
372.429	2.51
372.877	2.52
373.325	2.52
373.773	2.53
374.221	2.53
374.669	2.54
375.116	2.54
375.564	2.54
376.012	2.56
376.459	2.57
376.907	2.59
377.354	2.6
377.801	2.62
378.249	2.64
378.696	2.64
379.143	2.65
379.591	2.67
380.038	2.69
380.485	2.71
380.932	2.72
381.379	2.74
381.826	2.76
382.273	2.76
382.72	2.76
383.166	2.78
383.613	2.79
384.06	2.81
384.506	2.82
384.953	2.84
385.4	2.85
385.846	2.88
386.292	2.89
386.739	2.9
387.185	2.92
387.631	2.94
388.078	2.96
388.524	2.98
388.97	3
389.416	3.01
389.862	3.03
390.308	3.05
390.754	3.07
391.2	3.1
391.645	3.13
392.091	3.15
392.537	3.18
392.983	3.2
393.428	3.22
393.874	3.24
394.319	3.26
394.765	3.28
395.21	3.29
395.655	3.3
396.101	3.31
396.546	3.31
396.991	3.33
397.436	3.34
397.881	3.37
398.326	3.38
398.771	3.4
399.216	3.42
399.661	3.44
400.106	3.46
400.551	3.48
400.995	3.48
401.44	3.49
401.885	3.5
402.329	3.51
402.774	3.51
403.218	3.53
403.663	3.55
404.107	3.55
404.551	3.56
404.995	3.56
405.44	3.56
405.884	3.57
406.328	3.58
406.772	3.58
407.216	3.59
407.66	3.59
408.104	3.58
408.547	3.58
408.991	3.58
409.435	3.58
409.879	3.59
410.322	3.6
410.766	3.62
411.209	3.64
411.653	3.66
412.096	3.68
412.54	3.69
412.983	3.7
413.426	3.73
413.869	3.75
414.312	3.77
414.756	3.79
415.199	3.8
415.642	3.79
416.085	3.78
416.527	3.78
416.97	3.76
417.413	3.76
417.856	3.76
418.298	3.74
418.741	3.74
419.184	3.73
419.626	3.72
420.069	3.72
420.511	3.73
420.953	3.73
421.396	3.74
421.838	3.74
422.28	3.75
422.722	3.78
423.164	3.79
423.606	3.8
424.048	3.8
424.49	3.79
424.932	3.79
425.374	3.76
425.816	3.75
426.258	3.73
426.699	3.72
427.141	3.71
427.582	3.69
428.024	3.7
428.465	3.71
428.907	3.71
429.348	3.71
429.789	3.71
430.231	3.74
430.672	3.78
431.113	3.81
431.554	3.83
431.995	3.83
432.436	3.85
432.877	3.84
433.318	3.85
433.759	3.88
434.2	3.89
434.64	3.92
435.081	3.93
435.522	3.94
435.962	3.94
436.403	3.96
436.843	3.98
437.284	3.97
437.724	3.98
438.164	3.98
438.604	3.97
439.045	3.97
439.485	3.97
439.925	3.97
440.365	3.97
440.805	3.99
441.245	4
441.685	4.01
442.125	4.03
442.564	4.04
443.004	4.05
443.444	4.07
443.883	4.08
444.323	4.08
444.762	4.08
445.202	4.08
445.641	4.08
446.081	4.09
446.52	4.09
446.959	4.11
447.398	4.14
447.837	4.15
448.276	4.16
448.716	4.16
449.154	4.18
449.593	4.19
450.032	4.19
450.471	4.19
450.91	4.18
451.349	4.18
451.787	4.17
452.226	4.15
452.664	4.14
453.103	4.11
453.541	4.1
453.98	4.1
454.418	4.08
454.856	4.08
455.295	4.07
455.733	4.06
456.171	4.05
456.609	4.05
457.047	4.04
457.485	4.03
457.923	4.03
458.361	4.03
458.798	4.03
459.236	4.02
459.674	4.01
460.111	4.01
460.549	4.02
460.987	4.03
461.424	4.03
461.862	4.03
462.299	4.04
462.736	4.04
463.173	4.05
463.611	4.05
464.048	4.06
464.485	4.07
464.922	4.07
465.359	4.08
465.796	4.08
466.233	4.09
466.67	4.09
467.106	4.11
467.543	4.11
467.98	4.11
468.416	4.1
468.853	4.09
469.29	4.08
469.726	4.08
470.162	4.08
470.599	4.07
471.035	4.05
471.471	4.03
471.907	4.02
472.344	4.01
472.78	4.01
473.216	3.99
473.652	4
474.088	3.99
474.523	3.98
474.959	3.97
475.395	3.95
475.831	3.96
476.266	3.97
476.702	3.96
477.138	3.95
477.573	3.94
478.008	3.95
478.444	3.94
478.879	3.95
479.314	3.95
479.75	3.93
480.185	3.92
480.62	3.91
481.055	3.91
481.49	3.9
481.925	3.89
482.36	3.89
482.795	3.88
483.229	3.87
483.664	3.87
484.099	3.85
484.534	3.85
484.968	3.85
485.403	3.86
485.837	3.86
486.271	3.87
486.706	3.87
487.14	3.88
487.574	3.89
488.009	3.89
488.443	3.89
488.877	3.91
489.311	3.93
489.745	3.95
490.179	3.96
490.613	3.99
491.046	4
491.48	4.03
491.914	4.06
492.348	4.08
492.781	4.12
493.215	4.16
493.648	4.19
494.082	4.23
494.515	4.26
494.948	4.3
495.382	4.33
495.815	4.38
496.248	4.42
496.681	4.48
497.114	4.53
497.547	4.58
497.98	4.64
498.413	4.69
498.846	4.75
499.279	4.82
499.711	4.89
500.144	4.96
500.577	5.04
501.009	5.12
501.442	5.19
501.874	5.28
502.306	5.37
502.739	5.47
503.171	5.56
503.603	5.66
504.036	5.77
504.468	5.88
504.9	5.99
505.332	6.11
505.764	6.23
506.196	6.36
506.627	6.49
507.059	6.64
507.491	6.77
507.923	6.93
508.354	7.11
508.786	7.27
509.217	7.45
509.649	7.62
510.08	7.8
510.512	7.99
510.943	8.18
511.374	8.37
511.805	8.57
512.237	8.78
512.668	8.99
513.099	9.19
513.53	9.4
513.961	9.61
514.391	9.84
514.822	10.07
515.253	10.29
515.684	10.52
516.114	10.76
516.545	10.99
516.975	11.24
517.406	11.47
517.836	11.72
518.267	11.98
518.697	12.21
519.127	12.43
519.558	12.67
519.988	12.91
520.418	13.14
520.848	13.36
521.278	13.59
521.708	13.98
522.138	14.21
522.567	14.42
522.997	14.62
523.427	14.85
523.857	15.06
524.286	15.25
524.716	15.46
525.145	15.66
525.575	15.86
526.004	16.03
526.433	16.03
526.863	16.19
527.292	16.36
527.721	16.52
528.15	16.66
528.579	16.8
529.008	16.95
529.437	17.08
529.866	17.21
530.295	17.33
530.724	17.46
531.152	17.59
531.581	17.69
532.01	17.8
532.438	17.89
532.867	18
533.295	18.09
533.723	18.17
534.152	18.24
534.58	18.33
535.008	18.38
535.436	18.45
535.865	18.51
536.293	18.56
536.721	18.62
537.149	18.68
537.576	18.72
538.004	18.77
538.432	18.81
538.86	18.84
539.287	18.86
539.715	18.91
540.143	18.93
540.57	18.97
540.998	19
541.425	19.03
541.852	19.05
542.28	19.09
542.707	19.1
543.134	19.12
543.561	19.18
543.988	19.21
544.415	19.23
544.842	19.26
545.269	19.28
545.696	19.31
546.123	19.33
546.549	19.35
546.976	19.36
547.403	19.39
547.829	19.41
548.256	19.43
548.682	19.45
549.108	19.47
549.535	19.48
549.961	19.49
550.387	19.49
550.813	19.49
551.24	19.48
551.666	19.48
552.092	19.47
552.518	19.46
552.943	19.43
553.369	19.41
553.795	19.37
554.221	19.35
554.646	19.3
555.072	19.27
555.498	19.23
555.923	19.19
556.349	19.14
556.774	19.09
557.199	19.02
557.625	18.96
558.05	18.89
558.475	18.83
558.9	18.76
559.325	18.7
559.75	18.63
560.175	18.55
560.6	18.46
561.025	18.38
561.449	18.28
561.874	18.2
562.299	18.1
562.723	18
563.148	17.89
563.572	17.76
563.997	17.63
564.421	17.51
564.846	17.39
565.27	17.27
565.694	17.15
566.118	17.03
566.542	16.91
566.966	16.77
567.39	16.65
567.814	16.51
568.238	16.39
568.662	16.26
569.086	16.13
569.509	16
569.933	15.88
570.357	15.76
570.78	15.62
571.204	15.5
571.627	15.38
572.05	15.26
572.474	15.18
572.897	15.06
573.32	14.96
573.743	14.85
574.166	14.76
574.589	14.64
575.012	14.54
575.435	14.46
575.858	14.37
576.281	14.28
576.704	14.18
577.126	14.09
577.549	14
577.972	13.91
578.394	13.85
578.817	13.77
579.239	13.7
579.661	13.62
580.084	13.56
580.506	13.49
580.928	13.41
581.35	13.34
581.772	13.25
582.194	13.19
582.616	13.13
583.038	13.05
583.46	12.98
583.882	12.92
584.303	12.86
584.725	12.8
585.147	12.75
585.568	12.7
585.99	12.66
586.411	12.62
586.833	12.56
587.254	12.5
587.675	12.45
588.096	12.4
588.518	12.35
588.939	12.3
589.36	12.25
589.781	12.2
590.202	12.17
590.623	12.13
591.043	12.09
591.464	12.06
591.885	12.02
592.305	11.99
592.726	11.96
593.147	11.93
593.567	11.9
593.987	11.87
594.408	11.84
594.828	11.78
595.248	11.75
595.669	11.71
596.089	11.68
596.509	11.66
596.929	11.62
597.349	11.58
597.769	11.56
598.189	11.53
598.608	11.49
599.028	11.46
599.448	11.43
599.867	11.4
600.287	11.36
600.706	11.33
601.126	11.29
601.545	11.25
601.965	11.22
602.384	11.18
602.803	11.13
603.222	11.1
603.641	11.05
604.061	11.02
604.48	10.97
604.898	10.92
605.317	10.88
605.736	10.84
606.155	10.8
606.574	10.74
606.992	10.68
607.411	10.64
607.829	10.55
608.248	10.48
608.666	10.42
609.085	10.36
609.503	10.31
609.921	10.25
610.339	10.2
610.758	10.13
611.176	10.07
611.594	10.01
612.012	9.95
612.43	9.92
612.847	9.87
613.265	9.82
613.683	9.78
614.101	9.72
614.518	9.67
614.936	9.6
615.353	9.54
615.771	9.49
616.188	9.44
616.606	9.39
617.023	9.35
617.44	9.31
617.857	9.26
618.274	9.21
618.691	9.16
619.108	9.12
619.525	9.09
619.942	9.06
620.359	9.04
620.776	9
621.192	8.97
621.609	8.95
622.026	8.92
622.442	8.91
622.859	8.9
623.275	8.89
623.691	8.87
624.108	8.85
624.524	8.85
624.94	8.83
625.356	8.83
625.772	8.82
626.188	8.8
626.604	8.8
627.02	8.79
627.436	8.78
627.852	8.77
628.268	8.77
628.683	8.76
629.099	8.75
629.514	8.74
629.93	8.72
630.345	8.7
630.761	8.68
631.176	8.65
631.591	8.61
632.007	8.56
632.422	8.52
632.837	8.47
633.252	8.42
633.667	8.35
634.082	8.29
634.497	8.22
634.911	8.16
635.326	8.09
635.741	8.03
636.155	7.96
636.57	7.89
636.984	7.81
637.399	7.73
637.813	7.64
638.228	7.55
638.642	7.46
639.056	7.36
639.47	7.27
639.884	7.19
640.298	7.09
640.712	6.98
641.126	6.89
641.54	6.79
641.954	6.7
642.368	6.61
642.781	6.53
643.195	6.45
643.609	6.38
644.022	6.3
644.436	6.22
644.849	6.14
645.262	6.08
645.676	6.01
646.089	5.94
646.502	5.89
646.915	5.84
647.328	5.79
647.741	5.74
648.154	5.69
648.567	5.65
648.98	5.62
649.393	5.59
649.805	5.57
650.218	5.54
650.631	5.52
651.043	5.49
651.456	5.48
651.868	5.44
652.28	5.42
652.693	5.4
653.105	5.38
653.517	5.34
653.929	5.32
654.341	5.28
654.753	5.24
655.165	5.2
655.577	5.17
655.989	5.13
656.401	5.09
656.813	5.06
657.224	5.01
657.636	4.95
658.047	4.92
658.459	4.86
658.87	4.81
659.282	4.76
659.693	4.72
660.104	4.66
660.515	4.61
660.926	4.55
661.338	4.49
661.749	4.45
662.159	4.4
662.57	4.36
662.981	4.32
663.392	4.29
663.803	4.26
664.213	4.21
664.624	4.18
665.035	4.14
665.445	4.12
665.855	4.09
666.266	4.08
666.676	4.07
667.086	4.04
667.497	4.02
667.907	4.02
668.317	4
668.727	4
669.137	3.99
669.547	3.99
669.956	4
670.366	4
670.776	4
671.186	4
671.595	4.02
672.005	4.02
672.414	4.03
672.824	4.04
673.233	4.04
673.642	4.06
674.052	4.08
674.461	4.09
674.87	4.11
675.279	4.14
675.688	4.17
676.097	4.2
676.506	4.23
676.915	4.26
677.323	4.29
677.732	4.33
678.141	4.37
678.549	4.4
678.958	4.44
679.366	4.49
679.775	4.53
680.183	4.59
680.592	4.64
681	4.71
681.408	4.77
681.816	4.85
682.224	4.93
682.632	5.02
683.04	5.11
683.448	5.21
683.856	5.32
684.264	5.44
684.671	5.57
685.079	5.72
685.487	5.89
685.894	6.08
686.302	6.27
686.709	6.5
687.116	6.74
687.524	7
687.931	7.29
688.338	7.61
688.745	7.93
689.152	8.27
689.559	8.65
689.966	9.04
690.373	9.44
690.78	9.88
691.187	10.31
691.593	10.76
692	11.22
692.407	11.67
692.813	12.15
693.22	12.63
693.626	13.12
694.032	13.63
694.439	14.13
694.845	14.64
695.251	15.14
695.657	15.63
696.063	16.14
696.469	16.66
696.875	17.18
697.281	17.69
697.687	18.22
698.093	18.75
698.498	19.23
698.904	19.73
699.31	20.23
699.715	20.74
700.12	21.24
700.526	21.72
700.931	22.19
701.337	22.65
701.742	23.1
702.147	23.53
702.552	23.95
702.957	24.38
703.362	24.79
703.767	25.18
704.172	25.58
704.577	25.96
704.981	26.36
705.386	26.76
705.791	27.13
706.195	27.54
706.6	27.93
707.004	28.32
707.408	28.7
707.813	29.06
708.217	29.44
708.621	29.81
709.025	30.16
709.43	30.51
709.834	30.84
710.237	31.19
710.641	31.5
711.045	31.81
711.449	32.11
711.853	32.44
712.256	32.77
712.66	33.04
713.064	33.33
713.467	33.62
713.87	33.89
714.274	34.16
714.677	34.44
715.08	34.7
715.484	34.96
715.887	35.24
716.29	35.48
716.693	35.72
717.096	35.97
717.499	36.21
717.901	36.45
718.304	36.68
718.707	36.9
719.109	37.12
719.512	37.36
719.915	37.57
720.317	37.78
720.719	37.95
721.122	38.14
721.524	38.34
721.926	38.53
722.328	38.71
722.731	38.9
723.133	39.07
723.535	39.22
723.937	39.39
724.338	39.53
724.74	39.7
725.142	39.96
725.544	40.1
725.945	40.28
726.347	40.4
726.748	40.53
727.15	40.64
727.551	40.81
727.952	40.93
728.354	41.04
728.755	41.15
729.156	41.23
729.557	41.24
729.958	41.34
730.359	41.4
730.76	41.53
731.161	41.63
731.562	41.72
731.962	41.75
732.363	41.83
732.763	41.92
733.164	42.02
733.564	42.13
733.965	42.19
734.365	42.3
734.766	42.37
735.166	42.44
735.566	42.53
735.966	42.6
736.366	42.68
736.766	42.74
737.166	42.79
737.566	42.84
737.966	42.85
738.365	42.9
738.765	42.95
739.165	43
739.564	43.01
739.964	43.02
740.363	43.05
740.763	43.09
741.162	43.13
741.561	43.15
741.96	43.17
742.36	43.21
742.759	43.23
743.158	43.2
743.557	43.23
743.955	43.27
744.354	43.28
744.753	43.33
745.152	43.38
745.55	43.4
745.949	43.44
746.348	43.47
746.746	43.49
747.144	43.53
747.543	43.57
747.941	43.59
748.339	43.58
748.737	43.59
749.136	43.59
749.534	43.58
749.932	43.59
750.33	43.57
750.727	43.58
751.125	43.59
751.523	43.6
751.921	43.62
752.318	43.61
752.716	43.63
753.113	43.67
753.511	43.67
753.908	43.7
754.305	43.72
754.703	43.71
755.1	43.72
755.497	43.72
755.894	43.71
756.291	43.72
756.688	43.72
757.085	43.72
757.482	43.72
757.878	43.74
758.275	43.74
758.672	43.75
759.068	43.79
759.465	43.78
759.861	43.79
760.258	43.78
760.654	43.78
761.05	43.81
761.447	43.83
761.843	43.81
762.239	43.8
762.635	43.79
763.031	43.77
763.427	43.74
763.822	43.75
764.218	43.77
764.614	43.79
765.01	43.78
765.405	43.77
765.801	43.74
766.196	43.75
766.592	43.72
766.987	43.72
767.382	43.74
767.778	43.76
768.173	43.77
768.568	43.76
768.963	43.74
769.358	43.74
769.753	43.75
770.148	43.79
770.542	43.77
770.937	43.8
771.332	43.8
771.726	43.77
772.121	43.77
772.515	43.74
772.91	43.74
773.304	43.75
773.699	43.75
774.093	43.73
774.487	43.7
774.881	43.76
775.275	43.74
775.669	43.74
776.063	43.74
776.457	43.72
776.851	43.73
777.245	43.72
777.638	43.69
778.032	43.69
778.425	43.71
778.819	43.71
779.212	43.67
779.606	43.68
779.999	43.68
780.392	43.71
780.786	43.72
781.179	43.73
781.572	43.76
781.965	43.78
782.358	43.8
782.751	43.79
783.143	43.78
783.536	43.77
783.929	43.77
784.322	43.77
784.714	43.78
785.107	43.81
785.499	43.8
785.891	43.8
786.284	43.82
786.676	43.81
787.068	43.82
787.46	43.83
787.852	43.88
788.245	43.9
788.636	43.9
789.028	43.9
789.42	43.88
789.812	43.88
790.204	43.9
790.595	43.87
790.987	43.87
791.378	43.9
791.77	43.91
792.161	43.9
792.553	43.9
792.944	43.91
793.335	43.92
793.726	43.93
794.117	43.93
794.508	43.89
794.899	43.9
795.29	43.91
795.681	43.89
796.072	43.9
796.463	43.92
796.853	43.9
797.244	43.89
797.634	43.88
798.025	43.88
798.415	43.88
798.806	43.88
799.196	43.89
799.586	43.92
799.976	43.93
800.366	43.93
800.756	43.9
801.146	43.93
801.536	43.94
801.926	43.95
802.316	43.96
802.706	43.99
803.095	44.04
803.485	44.04
803.874	44.01
804.264	44
804.653	44
805.043	44.03
805.432	44.02
805.821	44.04
806.21	44.04
806.599	44.05
806.988	44.05
807.377	44.01
807.766	44.02
808.155	44.01
808.544	44.02
808.933	44.01
809.321	44.02
809.71	44
810.098	43.96
810.487	43.95
810.875	43.94
811.264	43.91
811.652	43.92
812.04	43.91
812.428	43.93
812.816	43.92
813.204	43.89
813.592	43.85
813.98	43.85
814.368	43.89
814.756	43.89
815.144	43.89
815.531	43.93
815.919	43.9
816.306	43.94
816.694	43.93
817.081	43.94
817.469	43.96
817.856	43.99
818.243	43.99
818.63	43.98
819.017	43.97
819.404	43.94
819.791	43.93
820.178	43.96
820.565	43.93
820.952	43.91
821.339	43.91
821.725	43.92
822.112	43.93
822.498	43.94
822.885	43.95
823.271	43.95
823.657	43.93
824.044	43.95
824.43	43.95
824.816	43.94
825.202	43.94
825.588	43.95
825.974	43.94
826.36	43.92
826.746	43.92
827.132	43.91
827.517	43.93
827.903	43.96
828.289	43.94
828.674	43.93
829.06	43.93
829.445	43.91
829.83	43.89
830.216	43.9
830.601	43.89
830.986	43.91
831.371	43.89
831.756	43.89
832.141	43.89
832.526	43.9
832.911	43.91
833.295	43.91
833.68	43.93
834.065	43.95
834.449	43.94
834.834	43.94
835.218	43.93
835.603	43.94
835.987	43.92
836.371	43.89
836.755	43.88
837.139	43.86
837.524	43.88
837.908	43.88
838.291	43.89
838.675	43.88
839.059	43.88
839.443	43.87
839.827	43.87
840.21	43.86
840.594	43.88
840.977	43.89
841.361	43.88
841.744	43.87
842.127	43.85
842.511	43.83
842.894	43.8
843.277	43.79
843.66	43.76
844.043	43.76
844.426	43.76
844.809	43.77
845.191	43.76
845.574	43.79
845.957	43.8
846.339	43.81
846.722	43.82
847.104	43.87
847.487	43.88
847.869	43.91
848.252	43.92
848.634	43.93
849.016	43.92
849.398	43.92
849.78	43.91
850.162	43.89
850.544	43.88
850.926	43.88
851.307	43.86
851.689	43.85
852.071	43.84
852.452	43.84
852.834	43.85
853.215	43.84
853.597	43.84
853.978	43.82
854.359	43.84
854.741	43.86
855.122	43.83
855.503	43.83
855.884	43.82
856.265	43.84
856.646	43.84
857.026	43.82
857.407	43.83
857.788	43.83
858.169	43.85
858.549	43.85
858.93	43.85
859.31	43.87
859.69	43.87
860.071	43.9
860.451	43.9
860.831	43.9
861.211	43.89
861.591	43.88
861.971	43.88
862.351	43.88
862.731	43.87
863.111	43.85
863.491	43.86
863.87	43.85
864.25	43.81
864.629	43.81
865.009	43.83
865.388	43.86
865.768	43.86
866.147	43.86
866.526	43.88
866.905	43.89
867.284	43.93
867.663	43.92
868.042	43.95
868.421	43.97
868.8	43.97
869.179	43.96
869.558	43.94
869.936	43.94
870.315	43.94
870.693	43.94
871.072	43.96
871.45	43.95
871.828	43.94
872.207	43.96
872.585	43.96
872.963	43.97
873.341	43.98
873.719	43.98
874.097	43.98
874.475	44.01
874.853	44
875.23	43.99
875.608	44
875.986	44.03
876.363	44.02
876.741	44.02
877.118	44.03
877.495	44.04
877.873	44.04
878.25	44.08
878.627	44.08
879.004	44.07
879.381	44.08
879.758	44.04
880.135	44.03
880.512	44.03
880.889	44.01
881.265	43.98
881.642	43.97
882.019	43.97
882.395	43.95
882.772	43.94
883.148	43.93
883.524	43.91
883.901	43.91
884.277	43.86
884.653	43.85
885.029	43.84
885.405	43.86
885.781	43.85
886.157	43.83
886.532	43.83
886.908	43.79
887.284	43.8
887.659	43.79
888.035	43.77
888.411	43.79
888.786	43.78
889.161	43.8
889.537	43.79
889.912	43.79
890.287	43.81
890.662	43.78
891.037	43.81
891.412	43.79
891.787	43.78
892.162	43.79
892.536	43.78
892.911	43.78
893.286	43.76
893.66	43.76
894.035	43.75
894.409	43.74
894.784	43.76
895.158	43.75
895.532	43.75
895.906	43.77
896.281	43.77
896.655	43.77
897.029	43.78
897.402	43.8
897.776	43.79
898.15	43.8
898.524	43.8
898.898	43.8
899.271	43.82
899.645	43.82
900.018	43.85
900.392	43.85
900.765	43.87
901.138	43.84
901.511	43.84
901.884	43.84
902.258	43.83
902.631	43.84
903.003	43.88
903.376	43.89
903.749	43.89
904.122	43.88
904.495	43.9
904.867	43.91
905.24	43.94
905.612	43.97
905.985	43.98
906.357	44
906.729	44.01
907.102	43.97
907.474	43.98
907.846	43.99
908.218	44
908.59	43.99
908.962	44.01
909.334	44.04
909.705	44
910.077	44.02
910.449	44.01
910.82	44.02
911.192	44.04
911.563	44
911.935	43.98
912.306	43.97
912.677	43.98
913.048	43.96
913.419	43.95
913.79	43.97
914.161	43.95
914.532	43.96
914.903	43.94
915.274	43.94
915.645	43.92
916.015	43.94
916.386	43.97
916.756	43.95
917.127	43.97
917.497	43.96
917.868	43.95
918.238	43.96
918.608	43.98
918.978	43.99
919.348	44.01
919.718	44.02
920.088	44.04
920.458	44
920.828	43.98
921.198	43.94
921.567	43.94
921.937	43.95
922.306	43.94
922.676	43.92
923.045	43.9
923.415	43.88
923.784	43.9
924.153	43.89
924.522	43.92
924.891	43.95
925.26	43.97
925.629	43.99
925.998	43.96
926.367	43.99
926.736	44
927.104	44.01
927.473	43.99
927.842	43.98
928.21	44
928.578	43.94
928.947	43.93
929.315	43.89
929.683	43.87
930.051	43.85
930.42	43.81
930.788	43.81
931.156	43.79
931.523	43.82
931.891	43.85
932.259	43.84
932.627	43.89
932.994	43.9
933.362	43.92
933.729	43.9
934.097	43.94
934.464	44
934.831	44.01
935.199	44.01
935.566	44.02
935.933	43.96
936.3	43.9
936.667	43.88
937.034	43.92
937.401	43.96
937.767	44
938.134	43.99
938.501	43.94
938.867	43.93
939.234	43.95
939.6	43.93
939.967	43.95
940.333	43.97
940.699	43.97
941.065	43.91
941.431	43.91
941.798	43.89
942.163	43.84
942.529	43.83
942.895	43.83
943.261	43.77
943.627	43.77
943.992	43.73
944.358	43.73
944.723	43.71
945.089	43.62
945.454	43.61
945.82	43.6
946.185	43.66
946.55	43.65
946.915	43.57
947.28	43.6
947.645	43.59
948.01	43.64
948.375	43.64
948.74	43.6
949.104	43.65
949.469	43.58
949.834	43.53
950.198	43.46
950.562	43.4
950.927	43.41
951.291	43.36
951.655	43.28
952.02	43.22
952.384	43.14
952.748	43.11
953.112	43.04
953.476	43.06
953.839	43.08
954.203	43.08
954.567	43.05
954.931	43.01
955.294	42.98
955.658	43.04
956.021	43.04
956.385	43.09
956.748	43.1
957.111	43.13
957.474	43.14
957.837	43.07
958.2	43.05
958.563	43.06
958.926	43.08
959.289	43.12
959.652	43.02
960.015	43.01
960.377	42.98
960.74	42.98
961.102	42.96
961.465	42.95
961.827	43.03
962.189	43.09
962.552	43.09
962.914	43.12
963.276	43.15
963.638	43.19
964	43.19
964.362	43.25
964.724	43.25
965.085	43.22
965.447	43.19
965.809	43.16
966.17	43.13
966.532	43.13
966.893	43.11
967.255	43.08
967.616	43.1
967.977	43.13
968.338	43.07
968.699	43.08
969.061	43.11
969.421	43.15
969.782	43.16
970.143	43.14
970.504	43.17
970.865	43.2
971.225	43.19
971.586	43.2
971.946	43.19
972.307	43.16
972.667	43.16
973.027	43.16
973.388	43.14
973.748	43.15
974.108	43.22
974.468	43.21
974.828	43.27
975.188	43.29
975.548	43.24
975.907	43.23
976.267	43.32
976.627	43.29
976.986	43.27
977.346	43.2
977.705	43.18
978.064	43.13
978.424	43.11
978.783	43.02
979.142	43
979.501	43.02
979.86	43.07
980.219	43.03
980.578	43.1
980.937	43.12
981.296	43.16
981.654	43.18
982.013	43.17
982.371	43.19
982.73	43.25
983.088	43.25
983.447	43.3
983.805	43.26
984.163	43.2
984.521	43.11
984.879	43.08
985.237	43.11
985.595	43.14
985.953	43.17
986.311	43.17
986.669	43.14
987.026	43.19
987.384	43.2
987.741	43.16
988.099	43.33
988.456	43.35
988.814	43.36
989.171	43.35
989.528	43.32
989.885	43.36
990.242	43.44
990.599	43.41
990.956	43.47
991.313	43.48
991.67	43.57
992.027	43.57
992.383	43.66
992.74	43.82
993.096	43.83
993.453	43.86
993.809	43.76
994.165	43.75
994.522	43.86
994.878	43.86
995.234	43.84
995.59	43.81
995.946	43.83
996.302	43.89
996.658	43.81
997.013	43.86
997.369	43.83
997.725	43.94
998.08	43.93
998.436	43.94
998.791	43.97
999.147	43.95
999.502	43.99
999.857	43.94
1000.212	43.87
1000.567	43.85
1000.922	43.87
1001.277	43.89
1001.632	43.79
1001.987	43.82
1002.342	43.67
1002.696	43.66
1003.051	43.87
1003.406	43.87
1003.76	43.9
1004.114	43.99
1004.469	44.07
1004.823	44.32
1005.177	44.3
1005.531	44.39
1005.885	44.41
1006.239	44.6
1006.593	44.58
1006.947	44.5
1007.301	44.42
1007.655	44.32
1008.008	44.26
1008.362	44.31
1008.715	44.04
1009.069	44.08
1009.422	44.12
1009.776	44.01
1010.129	44.08
1010.482	44.14
1010.835	44.12
1011.188	44.27
1011.541	44.34
1011.894	44.53
1012.247	44.54
1012.6	44.69
1012.952	44.72
1013.305	44.72
1013.657	44.98
1014.01	45.02
1014.362	45.01
1014.715	45.1
1015.067	45.17
1015.419	45.3
1015.771	45.1
1016.123	45.14
1016.475	45.15
1016.827	45.28
1017.179	45.49
1017.531	45.42
1017.883	45.35
1018.234	45.53
1018.586	45.58
1018.938	45.73
1019.289	45.71
1019.64	45.86
1019.992	45.78
1020.343	45.76
1020.694	45.76
1021.045	45.75
1021.396	45.81
1021.747	45.92
1022.098	45.88
1022.449	45.77
1022.8	45.69
1023.151	45.69
1023.501	45.61
1023.852	45.65
1024.202	45.66
1024.553	45.67
1024.903	45.82
1025.253	45.89
1025.604	45.75
1025.954	45.59
1026.304	45.75
1026.654	45.81
1027.004	45.83
1027.354	45.89
1027.703	45.62
1028.053	45.55
1028.403	45.58
1028.753	45.03
1029.102	45.04
1029.452	45.06
1029.801	45.19
1030.15	45.03
1030.499	44.77
897.758	1390.44
901.051	1401.69
904.343	1395.31
907.636	1419.11
910.928	1379.09
914.22	1382.33
917.511	1363.24
920.803	1307.71
924.094	1301.74
927.384	1267.73
930.675	1219.91
933.965	1213.51
937.255	1137.81
940.544	1092.02
943.834	1040.98
947.123	1033.95
950.411	971.25
953.7	950.08
956.988	898.66
960.276	862.64
963.563	851.08
966.851	818.28
970.138	810.44
973.424	786.88
976.711	794.33
979.997	753.27
983.283	748.06
986.568	732.14
989.853	710.54
993.138	697.86
996.423	669.65
999.708	650.37
1002.992	644.75
1006.275	616.66
1009.559	610.4
1012.842	586.83
1016.125	571.94
1019.408	561.88
1022.69	553.54
1025.972	542.44
1029.254	529.95
1032.536	521.87
1035.817	509.54
1039.098	502.74
1042.379	492.52
1045.659	488.29
1048.939	476.28
1052.219	465.93
1055.498	459.18
1058.778	449.38
1062.057	438.06
1065.335	432.7
1068.614	428.61
1071.892	424.39
1075.17	410.33
1078.447	402.41
1081.724	399.01
1085.001	396.55
1088.278	388.35
1091.554	381.07
1094.83	381.44
1098.106	379.56
1101.382	376.31
1104.657	373.07
1107.932	367.11
1111.206	369.74
1114.481	360.21
1117.755	356.8
1121.029	353.7
1124.302	354.95
1127.575	346.96
1130.848	342.52
1134.121	339.13
1137.393	336.94
1140.665	329.6
1143.937	328.13
1147.208	325.87
1150.48	325.21
1153.75	320.54
1157.021	315.43
1160.291	315.09
1163.561	312.47
1166.831	313.35
1170.101	310.44
1173.37	310.03
1176.639	310.74
1179.907	308.31
1183.176	303.89
1186.444	304.1
1189.711	304
1192.979	303.61
1196.246	301.21
1199.513	301.86
1202.78	299.38
1206.046	299.62
1209.312	296.35
1212.578	296.8
1215.843	298.87
1219.108	297.11
1222.373	303.31
1225.638	305.36
1228.902	309.28
1232.166	309.6
1235.43	312.86
1238.693	316.35
1241.956	318.49
1245.219	323.52
1248.482	323.35
1251.744	322.86
1255.006	324.73
1258.268	316.12
1261.529	312.79
1264.79	310.69
1268.051	309.08
1271.312	305.11
1274.572	301.49
1277.832	298.36
1281.092	294.35
1284.351	291.9
1287.61	291.63
1290.869	287.49
1294.128	285.7
1297.386	286.04
1300.644	282.38
1303.902	283.25
1307.159	283.11
1310.416	282.66
1313.673	282.19
1316.93	284.42
1320.186	285.23
1323.442	286.25
1326.697	291.09
1329.953	292.44
1333.208	293.6
1336.463	297.54
1339.717	297.8
1342.972	300.48
1346.226	303.51
1349.479	304.03
1352.733	305.63
1355.986	306.51
1359.238	306.49
1362.491	307.52
1365.743	310.41
1368.995	310.82
1372.247	309.02
1375.498	309.31
1378.749	311.59
1382	308.3
1385.251	309.43
1388.501	307.75
1391.751	309.08
1395	307.09
1398.25	305.15
1401.499	303.38
1404.748	302.26
1407.996	301.13
1411.244	299.77
1414.492	297.27
1417.74	294.6
1420.987	290.06
1424.234	290.11
1427.481	286.07
1430.728	286.18
1433.974	283.16
1437.22	280.85
1440.465	280.08
1443.711	277.79
1446.956	275.6
1450.201	272.67
1453.445	270.68
1456.689	269.78
1459.933	264.61
1463.177	262.84
1466.42	258.24
1469.663	255.36
1472.906	253.4
1476.148	247.65
1479.391	244.72
1482.633	242.69
1485.874	238.81
1489.115	236.65
1492.356	233.91
1495.597	234.05
1498.838	230.16
1502.078	229.16
1505.318	228.14
1508.557	227.97
1511.797	226.89
1515.036	225.68
1518.274	224.55
1521.513	222.74
1524.751	222.38
1527.989	222.16
1531.227	220.36
1534.464	221.15
1537.701	219.92
1540.938	219.2
1544.174	216.58
1547.41	216.65
1550.646	215.25
1553.882	215.75
1557.117	213.49
1560.352	212.66
1563.587	211.42
1566.821	210.09
1570.055	207.59
1573.289	206.2
1576.523	206.05
1579.756	204.54
1582.989	203.41
1586.222	203.3
1589.454	202.04
1592.686	203.4
1595.918	201.92
1599.15	201.53
1602.381	201.89
1605.612	201.75
1608.843	202.28
1612.073	201.53
1615.303	202.97
1618.533	202.92
1621.762	202.63
1624.992	202.76
1628.221	202.16
1631.449	202.32
1634.678	202.02
1637.906	202.65
1641.134	202.92
1644.361	202.39
1647.588	203.26
1650.815	202.04
1654.042	201.03
1657.269	202.24
1660.495	202.12
1663.72	201.48
1666.946	202.6
1670.171	202.81
1673.396	202.4
1676.621	202.54
1679.845	203.16
1683.069	202.82
1686.293	204.73
1689.517	205.91
1692.74	205.32
1695.963	206.13
1699.185	208.15
1702.408	207.59
1705.63	208.85
1708.852	209.23
1712.073	209.99
1715.294	210.04
1718.515	211.95
1721.736	210.83
1724.956	211.81
1728.176	211.8
1731.396	213.75
1734.616	212.63
1737.835	213.82
1741.054	212.03
1744.272	213.17
1747.491	214.91
1750.709	214.96
1753.927	214.47
1757.144	214.01
1760.361	214.57
1763.578	215.3
1766.795	214.29
1770.011	216.43
1773.227	216.06
1776.443	219.22
1779.658	219.8
1782.874	219.03
1786.089	220.41
1789.303	221.03
1792.518	224.07
1795.732	224
1798.945	226.24
1802.159	226.25
1805.372	226.4
1808.585	230.96
1811.797	231.08
1815.01	231.58
1818.222	233.72
1821.434	235.2
1824.645	236.12
1827.856	239.26
1831.067	241.17
1834.278	240.86
1837.488	243.21
1840.698	245.01
1843.908	242.41
1847.117	243.78
1850.326	245.44
1853.535	244.55
1856.744	248.26
1859.952	248.34
1863.16	247.05
1866.368	245.23
1869.575	247.74
1872.782	243.68
1875.989	243.33
1879.196	242.26
1882.402	240.82
1885.608	241.51
1888.814	241.93
1892.019	240.23
1895.224	239.3
1898.429	238.3
1901.634	239.88
1904.838	239.71
1908.042	242.5
1911.246	242.98
1914.449	244.46
1917.652	245.17
1920.855	244.25
1924.058	244.2
1927.26	243.44
1930.462	244.34
1933.664	246.95
1936.865	244.84
1940.066	244.3
1943.267	243.22
1946.467	242.59
1949.668	244.68
1952.868	246.52
1956.067	246.78
1959.267	247.41
1962.466	248.35
1965.665	247.36
1968.863	248.12
1972.061	252.38
1975.259	254.79
1978.457	256.47
1981.654	258.88
1984.852	259.08
1988.048	258.81
1991.245	261.26
1994.441	264.06
1997.637	265.71
2000.833	271.41
2004.028	274.24
2007.223	275.12
2010.418	277.3
2013.613	282.84
2016.807	285.57
2020.001	287.18
2023.194	291.82
2026.388	298.3
2029.581	304.74
2032.774	308
2035.966	312.38
2039.158	313.69
2042.35	319
2045.542	321.97
2048.733	327.09
2051.924	331.25
2055.115	337.4
2058.306	337.76
2061.496	340.86
2064.686	341.46
2067.875	347.31
2071.065	348.92
2074.254	347.97
2077.442	352.53
2080.631	353.71
2083.819	355.94
2087.007	357.98
2090.195	361.43
2093.382	365.19
2096.569	362.83
2099.756	368
2102.942	368.66
2106.128	372.67
2109.314	380.77
2112.5	379.57
2115.685	388.19
2118.87	388.44
2122.055	396.21
2125.239	399.79
2128.424	404.03
2131.608	408.73
2134.791	414.01
2137.974	415.99
2141.157	416.47
2144.34	417.38
2147.523	424.44
2150.705	421.3
2153.887	425.18
2157.068	425.14
2160.25	421.19
2163.431	423.79
2166.611	427.46
2169.792	436.02
2172.972	441.04
2176.152	444.72
2179.331	450.45
2182.511	457.16
2185.69	462.73
2188.868	473.13
2192.047	472.46
2195.225	487.33
2198.403	498.38
2201.58	507.52
2204.758	516.48
2207.935	526.99
2211.111	535.23
2214.288	541.71
2217.464	543.1
2220.64	550.95
2223.815	557.72
2226.991	583.21
2230.166	583.22
2233.34	593.09
2236.515	602.09
2239.689	601.11
2242.863	605.27
2246.036	625.02
2249.209	619.61
2252.382	630.58
2255.555	650.82
2258.727	653.09
2261.9	654.81
2265.071	661.88
2268.243	672.34
2271.414	682.06
2274.585	699.71
2277.756	704.95
2280.926	708.13
2284.096	723.9
2287.266	741.21
2290.436	744.64
2293.605	761.78
2296.774	786.18
2299.942	808.93
2303.111	813.75
2306.279	831.29
2309.447	842.7
2312.614	864.52
2315.781	888.23
2318.948	933.76
2322.115	918.98
2325.281	969.86
2328.447	948.76
2331.613	986.7
2334.779	978.13
2337.944	1021.17
2341.109	1027.88
2344.274	1055.79
2347.438	1096.16
2350.602	1095.14
2353.766	1124.7
2356.929	1139.33
2360.092	1132.67
2363.255	1216.85
2366.418	1211.47
2369.58	1234.57
2372.742	1314.81
2375.904	1350.19
2379.066	1339
2382.227	1310.55
2385.388	1426.96
2388.548	1427.62
2391.709	1446.32
2394.869	1612.29
2398.029	1544.37
2401.188	1587.08
2404.347	1579.22
2407.506	1546.51
2410.665	1592.6
2413.823	1692.32
2416.981	1792.96
2420.139	1730.94
2423.296	1712.61
2426.453	1790.27
2429.61	1719.66
2432.767	1796.77
2435.923	1779.7
2439.079	1950.34
2442.235	1972.71
2445.391	1955.57
2448.546	1939.82
2451.701	1887.11
2454.855	1884.62
2458.009	2001
2461.163	2079.9
2464.317	2150.76
2467.471	2207.91
2470.624	2207.36
2473.777	2147.05
2476.929	2098.56
2480.082	2030.12
2483.234	2005.16
2486.385	2111.91
2489.537	2120.38
2492.688	2202.68
2495.839	2133.33
2498.989	2093.15
2502.14	2100.79
2505.29	2124.18
2508.439	2150.54
2511.589	2144.74
2514.738	2347.18
2517.887	2300.49
2521.035	2426.18
2524.183	2446.27
2527.331	2455.14
2530.479	2453.87
2533.627	2468.38
