Data from N_2_DIV_PA_2N_Splice17_13-39-19-578.txt Node
Date: Sat Mar 07 13:39:19 EST 2020
User: sa697716
Spectrometer: NQ5500242
Trigger mode: 0
Integration Time (sec): 1.450000E-1
Scans to average: 20
Nonlinearity correction enabled: false
Boxcar width: 5
Storing dark spectrum: false
XAxis mode: Wavelengths
Number of Pixels in Spectrum: 512
>>>>>Begin Spectral Data<<<<<
187.83	160.25
188.298	181.39
188.766	156.08
189.233	127.17
189.701	157.87
190.169	187.08
190.636	180.12
191.104	202.39
191.571	-50.89
192.039	-237.17
192.506	-477.45
192.974	48.76
193.441	152.2
193.908	27.62
194.375	20.47
194.842	60.83
195.31	85.87
195.777	268.61
196.244	106.06
196.711	93.78
197.177	92.19
197.644	91.4
198.111	92.03
198.578	92.32
199.045	93.23
199.511	92.68
199.978	92.99
200.445	93.39
200.911	93.09
201.378	92.93
201.844	92.69
202.31	92.32
202.777	92.62
203.243	92.36
203.709	91.63
204.176	90.56
204.642	90.21
205.108	89.47
205.574	88.45
206.04	87.41
206.506	86.61
206.972	85.86
207.438	85.23
207.903	83.59
208.369	81.5
208.835	79.52
209.301	77.68
209.766	75.17
210.232	72.77
210.697	70.51
211.163	68.46
211.628	66.37
212.094	64.51
212.559	62.83
213.024	61.18
213.49	59.97
213.955	58.46
214.42	56.64
214.885	54.91
215.35	52.68
215.815	49.76
216.28	45.93
216.745	41.73
217.21	37.3
217.675	33.12
218.14	29.6
218.604	26.5
219.069	24.02
219.534	21.99
219.998	20.23
220.463	18.79
220.927	17.53
221.392	16.56
221.856	15.75
222.32	15.1
222.785	14.54
223.249	14.02
223.713	13.6
224.177	13.22
224.642	12.87
225.106	12.52
225.57	12.19
226.034	11.94
226.497	11.7
226.961	11.45
227.425	11.23
227.889	11.03
228.353	10.82
228.816	10.59
229.28	10.39
229.744	10.21
230.207	10.07
230.671	9.9
231.134	9.74
231.597	9.62
232.061	9.5
232.524	9.36
232.987	9.24
233.45	9.14
233.914	9.06
234.377	8.95
234.84	8.87
235.303	8.79
235.766	8.73
236.229	8.65
236.691	8.56
237.154	8.49
237.617	8.44
238.08	8.39
238.542	8.31
239.005	8.27
239.468	8.21
239.93	8.15
240.393	8.08
240.855	7.99
241.317	7.93
241.78	7.87
242.242	7.78
242.704	7.73
243.166	7.65
243.629	7.6
244.091	7.53
244.553	7.46
245.015	7.39
245.477	7.32
245.939	7.27
246.4	7.21
246.862	7.15
247.324	7.1
247.786	7.03
248.247	6.97
248.709	6.91
249.17	6.85
249.632	6.81
250.093	6.78
250.555	6.73
251.016	6.69
251.477	6.65
251.939	6.61
252.4	6.58
252.861	6.54
253.322	6.51
253.783	6.48
254.244	6.46
254.705	6.42
255.166	6.38
255.627	6.35
256.088	6.32
256.549	6.3
257.009	6.25
257.47	6.22
257.931	6.17
258.391	6.11
258.852	6.06
259.312	6.01
259.773	5.97
260.233	5.93
260.694	5.88
261.154	5.84
261.614	5.79
262.074	5.74
262.534	5.7
262.994	5.67
263.455	5.64
263.915	5.61
264.374	5.58
264.834	5.55
265.294	5.52
265.754	5.5
266.214	5.47
266.673	5.45
267.133	5.44
267.593	5.41
268.052	5.4
268.512	5.39
268.971	5.38
269.431	5.36
269.89	5.35
270.349	5.33
270.809	5.32
271.268	5.31
271.727	5.3
272.186	5.29
272.645	5.28
273.104	5.27
273.563	5.25
274.022	5.24
274.481	5.24
274.94	5.23
275.399	5.21
275.857	5.2
276.316	5.19
276.775	5.18
277.233	5.17
277.692	5.16
278.15	5.16
278.609	5.16
279.067	5.16
279.525	5.14
279.984	5.14
280.442	5.14
280.9	5.14
281.358	5.14
281.816	5.14
282.274	5.14
282.732	5.14
283.19	5.13
283.648	5.13
284.106	5.11
284.564	5.11
285.021	5.1
285.479	5.1
285.937	5.09
286.394	5.09
286.852	5.07
287.309	5.06
287.767	5.04
288.224	5.03
288.682	5
289.139	4.98
289.596	4.97
290.053	4.94
290.511	4.92
290.968	4.9
291.425	4.88
291.882	4.87
292.339	4.85
292.796	4.84
293.252	4.83
293.709	4.83
294.166	4.82
294.623	4.81
295.079	4.81
295.536	4.8
295.992	4.79
296.449	4.79
296.905	4.78
297.362	4.78
297.818	4.77
298.274	4.77
298.731	4.76
299.187	4.75
299.643	4.74
300.099	4.74
300.555	4.74
301.011	4.73
301.467	4.73
301.923	4.72
302.379	4.72
302.835	4.72
303.291	4.72
303.746	4.72
304.202	4.73
304.658	4.73
305.113	4.73
305.569	4.74
306.024	4.74
306.479	4.74
306.935	4.74
307.39	4.74
307.845	4.74
308.301	4.75
308.756	4.76
309.211	4.76
309.666	4.77
310.121	4.78
310.576	4.78
311.031	4.77
311.486	4.78
311.94	4.78
312.395	4.79
312.85	4.78
313.305	4.78
313.759	4.78
314.214	4.78
314.668	4.77
315.123	4.77
315.577	4.77
316.032	4.77
316.486	4.76
316.94	4.76
317.394	4.75
317.849	4.74
318.303	4.73
318.757	4.71
319.211	4.7
319.665	4.69
320.119	4.66
320.572	4.65
321.026	4.63
321.48	4.62
321.934	4.6
322.387	4.6
322.841	4.6
323.295	4.61
323.748	4.6
324.202	4.6
324.655	4.61
325.108	4.62
325.562	4.63
326.015	4.64
326.468	4.65
326.921	4.65
327.374	4.65
327.827	4.66
328.28	4.65
328.733	4.66
329.186	4.66
329.639	4.65
330.092	4.65
330.545	4.65
330.997	4.66
331.45	4.67
331.903	4.68
332.355	4.69
332.808	4.69
333.26	4.7
333.713	4.7
334.165	4.7
334.617	4.72
335.069	4.71
335.522	4.72
335.974	4.72
336.426	4.7
336.878	4.7
337.33	4.69
337.782	4.69
338.234	4.7
338.686	4.71
339.137	4.71
339.589	4.68
340.041	4.68
340.493	4.66
340.944	4.64
341.396	4.64
341.847	4.63
342.299	4.61
342.75	4.59
343.201	4.56
343.653	4.54
344.104	4.51
344.555	4.5
345.006	4.48
345.457	4.47
345.908	4.47
346.359	4.45
346.81	4.44
347.261	4.44
347.712	4.43
348.163	4.43
348.613	4.43
349.064	4.44
349.515	4.44
349.965	4.43
350.416	4.44
350.866	4.43
351.317	4.43
351.767	4.43
352.217	4.43
352.668	4.43
353.118	4.44
353.568	4.43
354.018	4.43
354.468	4.44
354.918	4.44
355.368	4.44
355.818	4.44
356.268	4.45
356.718	4.46
357.168	4.45
357.617	4.45
358.067	4.44
358.517	4.46
358.966	4.46
359.416	4.47
359.865	4.47
360.315	4.48
360.764	4.49
361.213	4.49
361.663	4.48
362.112	4.49
362.561	4.5
363.01	4.5
363.459	4.49
363.908	4.49
364.357	4.49
364.806	4.49
365.255	4.48
365.703	4.49
366.152	4.5
366.601	4.51
367.05	4.51
367.498	4.52
367.947	4.54
368.395	4.55
368.844	4.55
369.292	4.55
369.74	4.55
370.189	4.56
370.637	4.56
371.085	4.56
371.533	4.57
371.981	4.58
372.429	4.58
372.877	4.58
373.325	4.59
373.773	4.59
374.221	4.58
374.669	4.59
375.116	4.59
375.564	4.6
376.012	4.6
376.459	4.61
376.907	4.63
377.354	4.64
377.801	4.67
378.249	4.67
378.696	4.69
379.143	4.71
379.591	4.73
380.038	4.75
380.485	4.77
380.932	4.79
381.379	4.82
381.826	4.82
382.273	4.84
382.72	4.83
383.166	4.85
383.613	4.87
384.06	4.89
384.506	4.92
384.953	4.94
385.4	4.96
385.846	5
386.292	5.01
386.739	5.03
387.185	5.04
387.631	5.08
388.078	5.11
388.524	5.13
388.97	5.15
389.416	5.19
389.862	5.23
390.308	5.26
390.754	5.3
391.2	5.34
391.645	5.38
392.091	5.44
392.537	5.47
392.983	5.51
393.428	5.55
393.874	5.59
394.319	5.62
394.765	5.65
395.21	5.68
395.655	5.72
396.101	5.76
396.546	5.79
396.991	5.83
397.436	5.87
397.881	5.92
398.326	5.97
398.771	6.03
399.216	6.06
399.661	6.11
400.106	6.15
400.551	6.18
400.995	6.2
401.44	6.23
401.885	6.26
402.329	6.3
402.774	6.32
403.218	6.37
403.663	6.4
404.107	6.44
404.551	6.48
404.995	6.51
405.44	6.54
405.884	6.58
406.328	6.62
406.772	6.66
407.216	6.69
407.66	6.72
408.104	6.74
408.547	6.76
408.991	6.79
409.435	6.81
409.879	6.84
410.322	6.89
410.766	6.94
411.209	6.98
411.653	7.01
412.096	7.05
412.54	7.1
412.983	7.14
413.426	7.21
413.869	7.25
414.312	7.3
414.756	7.34
415.199	7.35
415.642	7.37
416.085	7.4
416.527	7.41
416.97	7.4
417.413	7.41
417.856	7.42
418.298	7.42
418.741	7.43
419.184	7.44
419.626	7.45
420.069	7.48
420.511	7.5
420.953	7.52
421.396	7.55
421.838	7.58
422.28	7.6
422.722	7.64
423.164	7.65
423.606	7.68
424.048	7.68
424.49	7.68
424.932	7.67
425.374	7.65
425.816	7.62
426.258	7.61
426.699	7.6
427.141	7.61
427.582	7.62
428.024	7.64
428.465	7.63
428.907	7.61
429.348	7.61
429.789	7.62
430.231	7.66
430.672	7.7
431.113	7.74
431.554	7.76
431.995	7.76
432.436	7.75
432.877	7.76
433.318	7.8
433.759	7.85
434.2	7.9
434.64	7.93
435.081	7.95
435.522	7.97
435.962	7.98
436.403	8.01
436.843	8.02
437.284	8.03
437.724	8.03
438.164	8.01
438.604	8.01
439.045	8.01
439.485	8.02
439.925	8.01
440.365	8.01
440.805	7.99
441.245	8
441.685	8.02
442.125	8.04
442.564	8.03
443.004	8.03
443.444	8.05
443.883	8.05
444.323	8.03
444.762	8.04
445.202	8.04
445.641	8.05
446.081	8.06
446.52	8.04
446.959	8.06
447.398	8.07
447.837	8.07
448.276	8.04
448.716	8.03
449.154	8.03
449.593	8.03
450.032	8.01
450.471	8
450.91	7.96
451.349	7.95
451.787	7.91
452.226	7.88
452.664	7.86
453.103	7.84
453.541	7.81
453.98	7.8
454.418	7.76
454.856	7.74
455.295	7.7
455.733	7.67
456.171	7.65
456.609	7.64
457.047	7.6
457.485	7.6
457.923	7.58
458.361	7.57
458.798	7.56
459.236	7.56
459.674	7.55
460.111	7.55
460.549	7.56
460.987	7.57
461.424	7.57
461.862	7.6
462.299	7.61
462.736	7.63
463.173	7.63
463.611	7.63
464.048	7.65
464.485	7.67
464.922	7.7
465.359	7.7
465.796	7.73
466.233	7.73
466.67	7.73
467.106	7.74
467.543	7.72
467.98	7.72
468.416	7.7
468.853	7.69
469.29	7.67
469.726	7.63
470.162	7.62
470.599	7.57
471.035	7.56
471.471	7.54
471.907	7.52
472.344	7.51
472.78	7.51
473.216	7.49
473.652	7.47
474.088	7.44
474.523	7.44
474.959	7.43
475.395	7.4
475.831	7.39
476.266	7.38
476.702	7.36
477.138	7.34
477.573	7.32
478.008	7.3
478.444	7.27
478.879	7.27
479.314	7.25
479.75	7.24
480.185	7.21
480.62	7.19
481.055	7.15
481.49	7.13
481.925	7.11
482.36	7.1
482.795	7.09
483.229	7.08
483.664	7.07
484.099	7.04
484.534	7.02
484.968	7.02
485.403	7.01
485.837	7.01
486.271	7.01
486.706	6.99
487.14	6.98
487.574	6.97
488.009	6.97
488.443	6.96
488.877	6.96
489.311	6.97
489.745	6.97
490.179	6.99
490.613	7
491.046	7.01
491.48	7.01
491.914	7.02
492.348	7.04
492.781	7.05
493.215	7.07
493.648	7.08
494.082	7.08
494.515	7.08
494.948	7.09
495.382	7.09
495.815	7.1
496.248	7.12
496.681	7.13
497.114	7.14
497.547	7.14
497.98	7.15
498.413	7.16
498.846	7.18
499.279	7.2
499.711	7.2
500.144	7.22
500.577	7.24
501.009	7.25
501.442	7.28
501.874	7.3
502.306	7.33
502.739	7.37
503.171	7.39
503.603	7.42
504.036	7.46
504.468	7.49
504.9	7.5
505.332	7.53
505.764	7.58
506.196	7.62
506.627	7.66
507.059	7.69
507.491	7.73
507.923	7.77
508.354	7.83
508.786	7.87
509.217	7.94
509.649	8
510.08	8.06
510.512	8.13
510.943	8.18
511.374	8.24
511.805	8.32
512.237	8.38
512.668	8.46
513.099	8.52
513.53	8.61
513.961	8.7
514.391	8.79
514.822	8.9
515.253	8.98
515.684	9.08
516.114	9.19
516.545	9.29
516.975	9.4
517.406	9.51
517.836	9.62
518.267	9.73
518.697	9.82
519.127	9.92
519.558	10.02
519.988	10.13
520.418	10.22
520.848	10.33
521.278	10.43
521.708	10.76
522.138	10.87
522.567	10.97
522.997	11.07
523.427	11.19
523.857	11.3
524.286	11.4
524.716	11.52
525.145	11.63
525.575	11.75
526.004	11.85
526.433	11.73
526.863	11.82
527.292	11.93
527.721	12.02
528.15	12.1
528.579	12.19
529.008	12.28
529.437	12.35
529.866	12.41
530.295	12.49
530.724	12.56
531.152	12.64
531.581	12.71
532.01	12.77
532.438	12.83
532.867	12.89
533.295	12.94
533.723	12.99
534.152	13.05
534.58	13.1
535.008	13.13
535.436	13.19
535.865	13.22
536.293	13.26
536.721	13.29
537.149	13.31
537.576	13.36
538.004	13.39
538.432	13.42
538.86	13.45
539.287	13.48
539.715	13.53
540.143	13.54
540.57	13.56
540.998	13.59
541.425	13.62
541.852	13.65
542.28	13.66
542.707	13.69
543.134	13.7
543.561	13.72
543.988	13.74
544.415	13.75
544.842	13.77
545.269	13.8
545.696	13.82
546.123	13.84
546.549	13.86
546.976	13.88
547.403	13.89
547.829	13.91
548.256	13.91
548.682	13.91
549.108	13.94
549.535	13.96
549.961	13.95
550.387	13.96
550.813	13.97
551.24	13.98
551.666	13.98
552.092	13.97
552.518	13.97
552.943	13.97
553.369	13.95
553.795	13.92
554.221	13.9
554.646	13.88
555.072	13.86
555.498	13.81
555.923	13.77
556.349	13.72
556.774	13.68
557.199	13.63
557.625	13.6
558.05	13.56
558.475	13.52
558.9	13.49
559.325	13.44
559.75	13.37
560.175	13.32
560.6	13.26
561.025	13.21
561.449	13.15
561.874	13.09
562.299	13.02
562.723	12.94
563.148	12.86
563.572	12.77
563.997	12.68
564.421	12.6
564.846	12.51
565.27	12.44
565.694	12.35
566.118	12.26
566.542	12.18
566.966	12.09
567.39	12.01
567.814	11.92
568.238	11.83
568.662	11.76
569.086	11.67
569.509	11.61
569.933	11.54
570.357	11.46
570.78	11.39
571.204	11.31
571.627	11.24
572.05	11.17
572.474	11.11
572.897	11.05
573.32	11
573.743	10.95
574.166	10.89
574.589	10.82
575.012	10.78
575.435	10.72
575.858	10.67
576.281	10.62
576.704	10.58
577.126	10.53
577.549	10.49
577.972	10.44
578.394	10.38
578.817	10.34
579.239	10.31
579.661	10.27
580.084	10.24
580.506	10.22
580.928	10.18
581.35	10.15
581.772	10.11
582.194	10.07
582.616	10.04
583.038	10.02
583.46	9.99
583.882	9.97
584.303	9.94
584.725	9.92
585.147	9.91
585.568	9.9
585.99	9.88
586.411	9.86
586.833	9.84
587.254	9.81
587.675	9.78
588.096	9.75
588.518	9.73
588.939	9.72
589.36	9.69
589.781	9.65
590.202	9.64
590.623	9.62
591.043	9.59
591.464	9.58
591.885	9.56
592.305	9.55
592.726	9.55
593.147	9.52
593.567	9.5
593.987	9.47
594.408	9.47
594.828	9.43
595.248	9.41
595.669	9.41
596.089	9.39
596.509	9.37
596.929	9.36
597.349	9.34
597.769	9.33
598.189	9.31
598.608	9.29
599.028	9.27
599.448	9.25
599.867	9.23
600.287	9.19
600.706	9.18
601.126	9.15
601.545	9.13
601.965	9.12
602.384	9.09
602.803	9.06
603.222	9.04
603.641	9
604.061	9
604.48	8.98
604.898	8.95
605.317	8.93
605.736	8.91
606.155	8.89
606.574	8.86
606.992	8.83
607.411	8.81
607.829	8.76
608.248	8.73
608.666	8.7
609.085	8.67
609.503	8.66
609.921	8.63
610.339	8.61
610.758	8.57
611.176	8.54
611.594	8.53
612.012	8.5
612.43	8.52
612.847	8.49
613.265	8.47
613.683	8.45
614.101	8.42
614.518	8.39
614.936	8.36
615.353	8.34
615.771	8.32
616.188	8.29
616.606	8.28
617.023	8.25
617.44	8.24
617.857	8.22
618.274	8.19
618.691	8.17
619.108	8.16
619.525	8.14
619.942	8.14
620.359	8.13
620.776	8.12
621.192	8.11
621.609	8.1
622.026	8.08
622.442	8.08
622.859	8.08
623.275	8.07
623.691	8.06
624.108	8.06
624.524	8.05
624.94	8.05
625.356	8.05
625.772	8.04
626.188	8.04
626.604	8.04
627.02	8.03
627.436	8.03
627.852	8.03
628.268	8.03
628.683	8.03
629.099	8.03
629.514	8.04
629.93	8.03
630.345	8.04
630.761	8.03
631.176	8.03
631.591	8.03
632.007	8.04
632.422	8.02
632.837	8.02
633.252	8.01
633.667	8
634.082	7.97
634.497	7.97
634.911	7.96
635.326	7.94
635.741	7.93
636.155	7.92
636.57	7.9
636.984	7.9
637.399	7.88
637.813	7.87
638.228	7.85
638.642	7.83
639.056	7.8
639.47	7.78
639.884	7.76
640.298	7.73
640.712	7.7
641.126	7.69
641.54	7.65
641.954	7.62
642.368	7.6
642.781	7.59
643.195	7.57
643.609	7.56
644.022	7.53
644.436	7.53
644.849	7.51
645.262	7.49
645.676	7.46
646.089	7.44
646.502	7.43
646.915	7.42
647.328	7.41
647.741	7.4
648.154	7.39
648.567	7.39
648.98	7.37
649.393	7.37
649.805	7.36
650.218	7.36
650.631	7.36
651.043	7.35
651.456	7.35
651.868	7.33
652.28	7.33
652.693	7.33
653.105	7.32
653.517	7.32
653.929	7.31
654.341	7.29
654.753	7.28
655.165	7.27
655.577	7.27
655.989	7.25
656.401	7.23
656.813	7.23
657.224	7.21
657.636	7.2
658.047	7.19
658.459	7.17
658.87	7.16
659.282	7.14
659.693	7.13
660.104	7.1
660.515	7.09
660.926	7.08
661.338	7.06
661.749	7.04
662.159	7.02
662.57	7.01
662.981	7
663.392	6.99
663.803	6.99
664.213	6.97
664.624	6.97
665.035	6.97
665.445	6.98
665.855	6.97
666.266	6.98
666.676	6.98
667.086	6.97
667.497	6.97
667.907	6.98
668.317	6.97
668.727	6.98
669.137	6.98
669.547	6.98
669.956	6.97
670.366	6.97
670.776	6.97
671.186	6.98
671.595	6.99
672.005	6.99
672.414	7.01
672.824	7.02
673.233	7.03
673.642	7.04
674.052	7.06
674.461	7.07
674.87	7.08
675.279	7.11
675.688	7.12
676.097	7.13
676.506	7.16
676.915	7.17
677.323	7.18
677.732	7.2
678.141	7.21
678.549	7.23
678.958	7.25
679.366	7.28
679.775	7.28
680.183	7.3
680.592	7.33
681	7.36
681.408	7.39
681.816	7.43
682.224	7.45
682.632	7.49
683.04	7.52
683.448	7.56
683.856	7.59
684.264	7.64
684.671	7.68
685.079	7.71
685.487	7.76
685.894	7.81
686.302	7.85
686.709	7.91
687.116	7.98
687.524	8.05
687.931	8.12
688.338	8.21
688.745	8.31
689.152	8.41
689.559	8.54
689.966	8.67
690.373	8.82
690.78	8.97
691.187	9.15
691.593	9.31
692	9.51
692.407	9.7
692.813	9.93
693.22	10.16
693.626	10.4
694.032	10.65
694.439	10.92
694.845	11.19
695.251	11.48
695.657	11.78
696.063	12.1
696.469	12.43
696.875	12.77
697.281	13.11
697.687	13.46
698.093	13.82
698.498	14.19
698.904	14.55
699.31	14.92
699.715	15.32
700.12	15.71
700.526	16.11
700.931	16.51
701.337	16.91
701.742	17.3
702.147	17.72
702.552	18.13
702.957	18.53
703.362	18.95
703.767	19.35
704.172	19.75
704.577	20.15
704.981	20.55
705.386	20.95
705.791	21.35
706.195	21.76
706.6	22.16
707.004	22.56
707.408	22.98
707.813	23.4
708.217	23.81
708.621	24.21
709.025	24.62
709.43	25.02
709.834	25.47
710.237	25.88
710.641	26.29
711.045	26.69
711.449	27.11
711.853	27.54
712.256	27.94
712.66	28.36
713.064	28.79
713.467	29.2
713.87	29.63
714.274	29.99
714.677	30.41
715.08	30.82
715.484	31.22
715.887	31.64
716.29	32
716.693	32.4
717.096	32.79
717.499	33.18
717.901	33.57
718.304	33.94
718.707	34.31
719.109	34.67
719.512	35.02
719.915	35.38
720.317	35.71
720.719	36.03
721.122	36.35
721.524	36.67
721.926	36.99
722.328	37.32
722.731	37.6
723.133	37.93
723.535	38.22
723.937	38.53
724.338	38.82
724.74	39.1
725.142	39.56
725.544	39.83
725.945	40.14
726.347	40.38
726.748	40.6
727.15	40.86
727.551	41.11
727.952	41.32
728.354	41.55
728.755	41.74
729.156	41.95
729.557	41.99
729.958	42.17
730.359	42.33
730.76	42.52
731.161	42.71
731.562	42.89
731.962	43.04
732.363	43.25
732.763	43.4
733.164	43.58
733.564	43.76
733.965	43.91
734.365	44.07
734.766	44.22
735.166	44.39
735.566	44.51
735.966	44.67
736.366	44.81
736.766	44.91
737.166	45.05
737.566	45.16
737.966	45.26
738.365	45.36
738.765	45.47
739.165	45.56
739.564	45.65
739.964	45.75
740.363	45.83
740.763	45.91
741.162	46.02
741.561	46.07
741.96	46.15
742.36	46.24
742.759	46.35
743.158	46.4
743.557	46.47
743.955	46.54
744.354	46.6
744.753	46.66
745.152	46.74
745.55	46.78
745.949	46.86
746.348	46.92
746.746	46.95
747.144	46.99
747.543	47.04
747.941	47.06
748.339	47.06
748.737	47.1
749.136	47.12
749.534	47.11
749.932	47.13
750.33	47.15
750.727	47.16
751.125	47.2
751.523	47.21
751.921	47.23
752.318	47.27
752.716	47.32
753.113	47.34
753.511	47.38
753.908	47.44
754.305	47.49
754.703	47.48
755.1	47.51
755.497	47.52
755.894	47.55
756.291	47.58
756.688	47.57
757.085	47.6
757.482	47.62
757.878	47.64
758.275	47.65
758.672	47.67
759.068	47.75
759.465	47.74
759.861	47.77
760.258	47.79
760.654	47.8
761.05	47.84
761.447	47.88
761.843	47.9
762.239	47.92
762.635	47.93
763.031	47.93
763.427	47.91
763.822	47.94
764.218	47.96
764.614	48
765.01	48
765.405	47.99
765.801	47.98
766.196	47.98
766.592	47.97
766.987	47.98
767.382	48
767.778	47.99
768.173	48.02
768.568	48.01
768.963	47.99
769.358	48.02
769.753	48.04
770.148	48.06
770.542	48.06
770.937	48.07
771.332	48.04
771.726	48.06
772.121	48.08
772.515	48.06
772.91	48.06
773.304	48.06
773.699	48.03
774.093	48.03
774.487	48.04
774.881	48.05
775.275	48.07
775.669	48.08
776.063	48.06
776.457	48.05
776.851	48.06
777.245	48.04
777.638	48.05
778.032	48.09
778.425	48.12
778.819	48.15
779.212	48.19
779.606	48.2
779.999	48.22
780.392	48.25
780.786	48.27
781.179	48.29
781.572	48.34
781.965	48.37
782.358	48.36
782.751	48.34
783.143	48.31
783.536	48.31
783.929	48.28
784.322	48.31
784.714	48.3
785.107	48.34
785.499	48.32
785.891	48.31
786.284	48.32
786.676	48.34
787.068	48.33
787.46	48.36
787.852	48.36
788.245	48.37
788.636	48.33
789.028	48.36
789.42	48.31
789.812	48.33
790.204	48.39
790.595	48.38
790.987	48.39
791.378	48.41
791.77	48.41
792.161	48.38
792.553	48.41
792.944	48.4
793.335	48.38
793.726	48.43
794.117	48.41
794.508	48.35
794.899	48.36
795.29	48.36
795.681	48.34
796.072	48.34
796.463	48.41
796.853	48.39
797.244	48.43
797.634	48.45
798.025	48.45
798.415	48.44
798.806	48.45
799.196	48.43
799.586	48.45
799.976	48.47
800.366	48.48
800.756	48.43
801.146	48.46
801.536	48.47
801.926	48.45
802.316	48.47
802.706	48.5
803.095	48.53
803.485	48.54
803.874	48.52
804.264	48.51
804.653	48.53
805.043	48.53
805.432	48.53
805.821	48.51
806.21	48.54
806.599	48.52
806.988	48.51
807.377	48.47
807.766	48.44
808.155	48.44
808.544	48.45
808.933	48.46
809.321	48.45
809.71	48.44
810.098	48.44
810.487	48.41
810.875	48.41
811.264	48.42
811.652	48.46
812.04	48.48
812.428	48.51
812.816	48.49
813.204	48.48
813.592	48.47
813.98	48.48
814.368	48.5
814.756	48.5
815.144	48.48
815.531	48.47
815.919	48.43
816.306	48.42
816.694	48.4
817.081	48.41
817.469	48.42
817.856	48.43
818.243	48.4
818.63	48.36
819.017	48.36
819.404	48.36
819.791	48.33
820.178	48.36
820.565	48.34
820.952	48.32
821.339	48.3
821.725	48.29
822.112	48.3
822.498	48.34
822.885	48.37
823.271	48.37
823.657	48.34
824.044	48.36
824.43	48.34
824.816	48.35
825.202	48.34
825.588	48.34
825.974	48.32
826.36	48.3
826.746	48.26
827.132	48.25
827.517	48.26
827.903	48.29
828.289	48.3
828.674	48.29
829.06	48.28
829.445	48.28
829.83	48.27
830.216	48.25
830.601	48.27
830.986	48.28
831.371	48.26
831.756	48.24
832.141	48.24
832.526	48.21
832.911	48.19
833.295	48.2
833.68	48.2
834.065	48.2
834.449	48.19
834.834	48.16
835.218	48.17
835.603	48.16
835.987	48.15
836.371	48.12
836.755	48.11
837.139	48.1
837.524	48.09
837.908	48.11
838.291	48.12
838.675	48.13
839.059	48.13
839.443	48.1
839.827	48.08
840.21	48.07
840.594	48.09
840.977	48.09
841.361	48.09
841.744	48.06
842.127	48.03
842.511	48
842.894	48
843.277	47.97
843.66	47.96
844.043	47.97
844.426	47.99
844.809	47.99
845.191	48.02
845.574	48.04
845.957	48.07
846.339	48.07
846.722	48.07
847.104	48.08
847.487	48.09
847.869	48.12
848.252	48.12
848.634	48.12
849.016	48.13
849.398	48.11
849.78	48.11
850.162	48.1
850.544	48.11
850.926	48.12
851.307	48.13
851.689	48.14
852.071	48.13
852.452	48.15
852.834	48.13
853.215	48.12
853.597	48.13
853.978	48.13
854.359	48.14
854.741	48.14
855.122	48.12
855.503	48.12
855.884	48.12
856.265	48.11
856.646	48.08
857.026	48.12
857.407	48.13
857.788	48.13
858.169	48.14
858.549	48.13
858.93	48.14
859.31	48.14
859.69	48.15
860.071	48.16
860.451	48.16
860.831	48.18
861.211	48.14
861.591	48.14
861.971	48.14
862.351	48.14
862.731	48.15
863.111	48.13
863.491	48.14
863.87	48.13
864.25	48.11
864.629	48.12
865.009	48.13
865.388	48.16
865.768	48.17
866.147	48.15
866.526	48.13
866.905	48.14
867.284	48.17
867.663	48.17
868.042	48.18
868.421	48.22
868.8	48.23
869.179	48.24
869.558	48.22
869.936	48.23
870.315	48.23
870.693	48.25
871.072	48.25
871.45	48.27
871.828	48.25
872.207	48.28
872.585	48.26
872.963	48.26
873.341	48.26
873.719	48.27
874.097	48.26
874.475	48.27
874.853	48.27
875.23	48.29
875.608	48.26
875.986	48.31
876.363	48.28
876.741	48.27
877.118	48.29
877.495	48.29
877.873	48.3
878.25	48.33
878.627	48.35
879.004	48.35
879.381	48.35
879.758	48.34
880.135	48.3
880.512	48.31
880.889	48.31
881.265	48.25
881.642	48.24
882.019	48.23
882.395	48.2
882.772	48.16
883.148	48.13
883.524	48.12
883.901	48.1
884.277	48.08
884.653	48.05
885.029	48.02
885.405	48.03
885.781	48.02
886.157	48
886.532	47.99
886.908	47.97
887.284	47.98
887.659	47.94
888.035	47.91
888.411	47.89
888.786	47.89
889.161	47.89
889.537	47.89
889.912	47.87
890.287	47.86
890.662	47.85
891.037	47.88
891.412	47.85
891.787	47.85
892.162	47.86
892.536	47.87
892.911	47.89
893.286	47.9
893.66	47.9
894.035	47.93
894.409	47.94
894.784	47.95
895.158	47.95
895.532	47.98
895.906	48.01
896.281	48.03
896.655	48.08
897.029	48.1
897.402	48.09
897.776	48.09
898.15	48.09
898.524	48.13
898.898	48.12
899.271	48.15
899.645	48.18
900.018	48.18
900.392	48.2
900.765	48.19
901.138	48.16
901.511	48.19
901.884	48.22
902.258	48.22
902.631	48.21
903.003	48.22
903.376	48.23
903.749	48.21
904.122	48.21
904.495	48.21
904.867	48.22
905.24	48.26
905.612	48.29
905.985	48.29
906.357	48.3
906.729	48.32
907.102	48.34
907.474	48.36
907.846	48.38
908.218	48.4
908.59	48.42
908.962	48.45
909.334	48.44
909.705	48.43
910.077	48.41
910.449	48.41
910.82	48.42
911.192	48.43
911.563	48.4
911.935	48.4
912.306	48.39
912.677	48.4
913.048	48.43
913.419	48.44
913.79	48.43
914.161	48.47
914.532	48.47
914.903	48.48
915.274	48.47
915.645	48.54
916.015	48.52
916.386	48.53
916.756	48.55
917.127	48.53
917.497	48.52
917.868	48.53
918.238	48.55
918.608	48.6
918.978	48.6
919.348	48.63
919.718	48.6
920.088	48.65
920.458	48.69
920.828	48.67
921.198	48.66
921.567	48.68
921.937	48.71
922.306	48.68
922.676	48.65
923.045	48.62
923.415	48.58
923.784	48.57
924.153	48.54
924.522	48.51
924.891	48.54
925.26	48.55
925.629	48.56
925.998	48.56
926.367	48.6
926.736	48.62
927.104	48.66
927.473	48.68
927.842	48.65
928.21	48.68
928.578	48.69
928.947	48.7
929.315	48.71
929.683	48.71
930.051	48.7
930.42	48.71
930.788	48.67
931.156	48.65
931.523	48.65
931.891	48.75
932.259	48.78
932.627	48.84
932.994	48.82
933.362	48.83
933.729	48.88
934.097	48.9
934.464	48.96
934.831	49.06
935.199	49.15
935.566	49.2
935.933	49.18
936.3	49.22
936.667	49.23
937.034	49.34
937.401	49.45
937.767	49.5
938.134	49.55
938.501	49.59
938.867	49.62
939.234	49.65
939.6	49.67
939.967	49.75
940.333	49.78
940.699	49.8
941.065	49.68
941.431	49.64
941.798	49.64
942.163	49.61
942.529	49.53
942.895	49.5
943.261	49.49
943.627	49.45
943.992	49.37
944.358	49.31
944.723	49.29
945.089	49.27
945.454	49.19
945.82	49.1
946.185	49.14
946.55	49.06
946.915	49.02
947.28	48.91
947.645	48.93
948.01	48.94
948.375	48.91
948.74	48.87
949.104	48.91
949.469	48.91
949.834	48.83
950.198	48.79
950.562	48.77
950.927	48.73
951.291	48.71
951.655	48.59
952.02	48.52
952.384	48.46
952.748	48.4
953.112	48.38
953.476	48.32
953.839	48.31
954.203	48.27
954.567	48.29
954.931	48.27
955.294	48.28
955.658	48.33
956.021	48.33
956.385	48.3
956.748	48.28
957.111	48.21
957.474	48.25
957.837	48.23
958.2	48.22
958.563	48.21
958.926	48.23
959.289	48.19
959.652	48.14
960.015	48.15
960.377	48.17
960.74	48.19
961.102	48.15
961.465	48.17
961.827	48.25
962.189	48.25
962.552	48.24
962.914	48.21
963.276	48.29
963.638	48.29
964	48.28
964.362	48.25
964.724	48.23
965.085	48.24
965.447	48.25
965.809	48.23
966.17	48.2
966.532	48.2
966.893	48.24
967.255	48.19
967.616	48.19
967.977	48.19
968.338	48.18
968.699	48.22
969.061	48.28
969.421	48.25
969.782	48.29
970.143	48.33
970.504	48.37
970.865	48.33
971.225	48.32
971.586	48.34
971.946	48.34
972.307	48.4
972.667	48.36
973.027	48.4
973.388	48.43
973.748	48.41
974.108	48.49
974.468	48.42
974.828	48.46
975.188	48.47
975.548	48.46
975.907	48.55
976.267	48.59
976.627	48.62
976.986	48.58
977.346	48.56
977.705	48.55
978.064	48.52
978.424	48.59
978.783	48.57
979.142	48.64
979.501	48.71
979.86	48.74
980.219	48.67
980.578	48.71
980.937	48.76
981.296	48.75
981.654	48.78
982.013	48.8
982.371	48.86
982.73	48.95
983.088	48.94
983.447	48.96
983.805	48.95
984.163	49.01
984.521	49.1
984.879	49.08
985.237	49.18
985.595	49.27
985.953	49.28
986.311	49.21
986.669	49.21
987.026	49.2
987.384	49.21
987.741	49.24
988.099	49.33
988.456	49.31
988.814	49.41
989.171	49.39
989.528	49.34
989.885	49.35
990.242	49.4
990.599	49.43
990.956	49.58
991.313	49.69
991.67	49.78
992.027	49.99
992.383	50.09
992.74	50.14
993.096	50.23
993.453	50.32
993.809	50.35
994.165	50.48
994.522	50.64
994.878	50.74
995.234	50.71
995.59	50.68
995.946	50.51
996.302	50.53
996.658	50.64
997.013	50.69
997.369	50.75
997.725	50.95
998.08	51.01
998.436	50.95
998.791	50.86
999.147	50.93
999.502	51.09
999.857	51.23
1000.212	51.23
1000.567	51.3
1000.922	51.29
1001.277	51.4
1001.632	51.34
1001.987	51.37
1002.342	51.42
1002.696	51.49
1003.051	51.64
1003.406	51.68
1003.76	51.63
1004.114	51.69
1004.469	51.67
1004.823	52.11
1005.177	52.12
1005.531	52.31
1005.885	52.44
1006.239	52.59
1006.593	52.78
1006.947	52.86
1007.301	52.8
1007.655	52.92
1008.008	53.18
1008.362	53.24
1008.715	53
1009.069	53.23
1009.422	53.24
1009.776	53.24
1010.129	53.22
1010.482	53.18
1010.835	53.22
1011.188	53.37
1011.541	53.57
1011.894	53.52
1012.247	53.65
1012.6	53.84
1012.952	53.75
1013.305	53.93
1013.657	54.15
1014.01	54.4
1014.362	54.47
1014.715	54.71
1015.067	54.97
1015.419	55.04
1015.771	55.13
1016.123	55.24
1016.475	55.25
1016.827	55.45
1017.179	55.58
1017.531	55.67
1017.883	55.65
1018.234	55.92
1018.586	55.94
1018.938	56.2
1019.289	56.07
1019.64	56.32
1019.992	56.43
1020.343	56.72
1020.694	56.86
1021.045	56.91
1021.396	56.87
1021.747	57.14
1022.098	57.33
1022.449	57.36
1022.8	57.45
1023.151	57.93
1023.501	58.05
1023.852	58.26
1024.202	58.2
1024.553	58.32
1024.903	58.65
1025.253	59.14
1025.604	59.32
1025.954	59.02
1026.304	59.33
1026.654	59.55
1027.004	59.49
1027.354	59.41
1027.703	59.54
1028.053	59.83
1028.403	60.22
1028.753	60.01
1029.102	60.21
1029.452	60.44
1029.801	61.2
1030.15	61.24
1030.499	60.98
897.758	1824.71
901.051	1831.87
904.343	1820.29
907.636	1854.69
910.928	1806.65
914.22	1803.59
917.511	1776.73
920.803	1702.15
924.094	1692.82
927.384	1653.3
930.675	1583.29
933.965	1572
937.255	1480.58
940.544	1424
943.834	1352.24
947.123	1339.3
950.411	1261.04
953.7	1236.15
956.988	1166.03
960.276	1119.33
963.563	1102.94
966.851	1061.65
970.138	1053.05
973.424	1019.56
976.711	1027.22
979.997	975.4
983.283	970.22
986.568	949.52
989.853	917.96
993.138	903.7
996.423	867.75
999.708	842.67
1002.992	835.03
1006.275	794.66
1009.559	785.95
1012.842	755.94
1016.125	736.95
1019.408	723.73
1022.69	713.16
1025.972	700.32
1029.254	682.36
1032.536	671.24
1035.817	656.66
1039.098	648.28
1042.379	634.78
1045.659	628.62
1048.939	613.66
1052.219	600.78
1055.498	590.49
1058.778	578.43
1062.057	562.26
1065.335	556.13
1068.614	549.96
1071.892	544.9
1075.17	526.05
1078.447	516.35
1081.724	512.99
1085.001	508.04
1088.278	496.51
1091.554	487.24
1094.83	486.81
1098.106	486
1101.382	480.71
1104.657	477.53
1107.932	467.97
1111.206	473.05
1114.481	459.71
1117.755	455.25
1121.029	452.25
1124.302	452.92
1127.575	443.19
1130.848	437.85
1134.121	431.96
1137.393	431.13
1140.665	420.51
1143.937	419.97
1147.208	412.9
1150.48	414.39
1153.75	408.45
1157.021	400.76
1160.291	401.49
1163.561	396.93
1166.831	396.28
1170.101	393.45
1173.37	391.72
1176.639	393.05
1179.907	387.87
1183.176	385.87
1186.444	384.42
1189.711	384.03
1192.979	383.68
1196.246	379.69
1199.513	381.99
1202.78	379.54
1206.046	379.67
1209.312	375.83
1212.578	376.55
1215.843	380.78
1219.108	377.04
1222.373	386.03
1225.638	388.26
1228.902	394.9
1232.166	394.69
1235.43	398.26
1238.693	403.56
1241.956	406
1245.219	412.9
1248.482	412.2
1251.744	411.62
1255.006	413.83
1258.268	402.28
1261.529	398.64
1264.79	394.37
1268.051	392.38
1271.312	387.78
1274.572	383.38
1277.832	378.86
1281.092	372.49
1284.351	369.5
1287.61	369.71
1290.869	363.99
1294.128	362.15
1297.386	361.94
1300.644	358.82
1303.902	360.28
1307.159	357.69
1310.416	357.82
1313.673	358.51
1316.93	361.28
1320.186	362.04
1323.442	362.71
1326.697	369.46
1329.953	370.43
1333.208	372.21
1336.463	375.71
1339.717	376.69
1342.972	381.29
1346.226	384.56
1349.479	384.15
1352.733	387.46
1355.986	388.09
1359.238	388.18
1362.491	390.91
1365.743	394.98
1368.995	394.31
1372.247	392.78
1375.498	393.51
1378.749	397.23
1382	391.34
1385.251	394.34
1388.501	390.84
1391.751	394.01
1395	391.5
1398.25	387.89
1401.499	386.03
1404.748	386.22
1407.996	383.29
1411.244	381
1414.492	379.28
1417.74	376.85
1420.987	370.2
1424.234	371.2
1427.481	365.33
1430.728	365.64
1433.974	361.48
1437.22	358.03
1440.465	356.65
1443.711	355.06
1446.956	353.03
1450.201	346.69
1453.445	343.82
1456.689	342.95
1459.933	336.99
1463.177	334.62
1466.42	328.48
1469.663	324.89
1472.906	323.31
1476.148	314.62
1479.391	309.52
1482.633	305.91
1485.874	302.34
1489.115	299.93
1492.356	295.31
1495.597	294.68
1498.838	289.77
1502.078	287.96
1505.318	286.39
1508.557	285.98
1511.797	286.3
1515.036	285.17
1518.274	284.63
1521.513	280.83
1524.751	280.66
1527.989	280.02
1531.227	278.37
1534.464	279.61
1537.701	277.22
1540.938	276.32
1544.174	273.11
1547.41	271.96
1550.646	270.97
1553.882	270.84
1557.117	268.04
1560.352	265.81
1563.587	265.4
1566.821	263.37
1570.055	259.92
1573.289	258.31
1576.523	257.94
1579.756	255.55
1582.989	254.16
1586.222	254.1
1589.454	251.86
1592.686	253.65
1595.918	253.13
1599.15	251.94
1602.381	252.24
1605.612	252.5
1608.843	253.74
1612.073	252.94
1615.303	254.74
1618.533	255.2
1621.762	253.66
1624.992	253.97
1628.221	254.12
1631.449	253.46
1634.678	252.86
1637.906	253.83
1641.134	253.72
1644.361	253.06
1647.588	254.37
1650.815	252.86
1654.042	251.29
1657.269	253.09
1660.495	253.54
1663.72	251.02
1666.946	252.72
1670.171	253.2
1673.396	253.07
1676.621	252.81
1679.845	252.66
1683.069	252
1686.293	254.18
1689.517	255.68
1692.74	255.19
1695.963	256.27
1699.185	260.1
1702.408	259.64
1705.63	260.74
1708.852	261.3
1712.073	262.13
1715.294	263.04
1718.515	264.77
1721.736	264.06
1724.956	264.45
1728.176	264.49
1731.396	267.49
1734.616	265.86
1737.835	266.68
1741.054	265.27
1744.272	266.11
1747.491	268.94
1750.709	269.22
1753.927	269.28
1757.144	267.99
1760.361	270.38
1763.578	270.45
1766.795	269.04
1770.011	271.57
1773.227	271.59
1776.443	275.1
1779.658	276.75
1782.874	275.08
1786.089	276.65
1789.303	277.52
1792.518	281.33
1795.732	280.4
1798.945	284.87
1802.159	284.48
1805.372	285.77
1808.585	291.56
1811.797	291.8
1815.01	291.43
1818.222	294.49
1821.434	296.83
1824.645	298.4
1827.856	303.65
1831.067	307
1834.278	303.81
1837.488	306.49
1840.698	309
1843.908	305.26
1847.117	307.88
1850.326	310.19
1853.535	308.58
1856.744	314.1
1859.952	313.25
1863.16	311.95
1866.368	309.79
1869.575	315.64
1872.782	310.91
1875.989	309.88
1879.196	309.51
1882.402	307.46
1885.608	309.83
1888.814	312.12
1892.019	310.72
1895.224	311.07
1898.429	309.25
1901.634	312.09
1904.838	311.74
1908.042	316.84
1911.246	318.61
1914.449	320.87
1917.652	321.31
1920.855	320.22
1924.058	320.43
1927.26	318.83
1930.462	320.17
1933.664	324.47
1936.865	321.54
1940.066	321.54
1943.267	319.06
1946.467	318.92
1949.668	321.04
1952.868	325.3
1956.067	324.81
1959.267	324.71
1962.466	326.02
1965.665	324.48
1968.863	325.01
1972.061	328.66
1975.259	331.32
1978.457	334.04
1981.654	335.84
1984.852	336.83
1988.048	334.85
1991.245	338.24
1994.441	342.29
1997.637	344.4
2000.833	350.78
2004.028	354.71
2007.223	356.56
2010.418	360.94
2013.613	366.37
2016.807	370.29
2020.001	373.08
2023.194	379.15
2026.388	387.5
2029.581	395.33
2032.774	399.32
2035.966	406.34
2039.158	407.64
2042.35	416.58
2045.542	417.77
2048.733	423.76
2051.924	429.79
2055.115	437.08
2058.306	437.6
2061.496	443.05
2064.686	442.28
2067.875	450.17
2071.065	452.92
2074.254	450.54
2077.442	454.76
2080.631	457.47
2083.819	462.44
2087.007	461.9
2090.195	467.96
2093.382	471.31
2096.569	466.84
2099.756	475.45
2102.942	476.12
2106.128	480.95
2109.314	490.98
2112.5	489.44
2115.685	501.26
2118.87	502.05
2122.055	513.2
2125.239	516.15
2128.424	523.14
2131.608	527.59
2134.791	533.7
2137.974	536.15
2141.157	537.17
2144.34	539.02
2147.523	548.11
2150.705	542.37
2153.887	546.95
2157.068	548.13
2160.25	541.39
2163.431	544.59
2166.611	550.78
2169.792	562.19
2172.972	569.28
2176.152	571.06
2179.331	579.48
2182.511	589.58
2185.69	597.86
2188.868	610.74
2192.047	611.72
2195.225	630.97
2198.403	646.57
2201.58	657.19
2204.758	670.5
2207.935	683.84
2211.111	696.39
2214.288	705.48
2217.464	707.11
2220.64	715.7
2223.815	725.87
2226.991	755.76
2230.166	758.49
2233.34	773.67
2236.515	785.18
2239.689	785.08
2242.863	789.64
2246.036	817.03
2249.209	808.1
2252.382	820.47
2255.555	848.57
2258.727	850.53
2261.9	854.78
2265.071	862.43
2268.243	874.8
2271.414	886.5
2274.585	908.34
2277.756	916.93
2280.926	922.23
2284.096	943
2287.266	966.7
2290.436	971.67
2293.605	996.93
2296.774	1027.81
2299.942	1062.69
2303.111	1068.22
2306.279	1096.77
2309.447	1107.7
2312.614	1135.73
2315.781	1167.13
2318.948	1223.8
2322.115	1202.7
2325.281	1268.21
2328.447	1238.78
2331.613	1291.26
2334.779	1274.64
2337.944	1331.36
2341.109	1342.52
2344.274	1378.05
2347.438	1432.37
2350.602	1431.11
2353.766	1474.46
2356.929	1497.84
2360.092	1484.52
2363.255	1598
2366.418	1590.51
2369.58	1620.26
2372.742	1721.33
2375.904	1765.88
2379.066	1756.62
2382.227	1718.42
2385.388	1865.77
2388.548	1867.94
2391.709	1893.9
2394.869	2114.65
2398.029	2014.07
2401.188	2075.67
2404.347	2069.66
2407.506	2034.89
2410.665	2087.06
2413.823	2217.59
2416.981	2348.8
2420.139	2267.8
2423.296	2243.2
2426.453	2337.45
2429.61	2246.25
2432.767	2359.36
2435.923	2333.87
2439.079	2537.93
2442.235	2571.64
2445.391	2550.28
2448.546	2532.47
2451.701	2463.36
2454.855	2465.81
2458.009	2618.22
2461.163	2717.92
2464.317	2819.39
2467.471	2895.24
2470.624	2892.54
2473.777	2820.63
2476.929	2758.33
2480.082	2676.77
2483.234	2640.22
2486.385	2767.5
2489.537	2779.47
2492.688	2889.01
2495.839	2805.25
2498.989	2753.12
2502.14	2765.66
2505.29	2799.99
2508.439	2849.28
2511.589	2832.05
2514.738	3088.53
2517.887	3023.98
2521.035	3207.11
2524.183	3227.75
2527.331	3249.67
2530.479	3253.72
2533.627	3270.84
