Data from N_2_DEC_VA_2N_Splice17_13-07-09-595.txt Node
Date: Sat Mar 07 13:07:09 EST 2020
User: sa697716
Spectrometer: NQ5500242
Trigger mode: 0
Integration Time (sec): 1.450000E-1
Scans to average: 20
Nonlinearity correction enabled: false
Boxcar width: 5
Storing dark spectrum: false
XAxis mode: Wavelengths
Number of Pixels in Spectrum: 512
>>>>>Begin Spectral Data<<<<<
187.83	189.29
188.298	189.5
188.766	169.01
189.233	140.34
189.701	139.31
190.169	162.63
190.636	161.13
191.104	162.6
191.571	-36.49
192.039	-179.85
192.506	-618.52
192.974	153.7
193.441	203.77
193.908	79.53
194.375	49.46
194.842	-36.34
195.31	4.69
195.777	-53.15
196.244	31.77
196.711	35.69
197.177	40.51
197.644	40.51
198.111	39.87
198.578	39.85
199.045	40.89
199.511	40.53
199.978	40.59
200.445	40.74
200.911	40.69
201.378	40.75
201.844	41
202.31	40.36
202.777	40.12
203.243	40.41
203.709	40.06
204.176	39.42
204.642	39.6
205.108	39.78
205.574	39.38
206.04	39.01
206.506	38.64
206.972	38.57
207.438	38.27
207.903	37.88
208.369	37.06
208.835	36.71
209.301	35.91
209.766	34.71
210.232	33.48
210.697	32.51
211.163	31.66
211.628	30.64
212.094	29.65
212.559	29.24
213.024	28.43
213.49	27.7
213.955	26.89
214.42	26.35
214.885	25.57
215.35	24.81
215.815	23.78
216.28	22.21
216.745	20.5
217.21	18.79
217.675	17.01
218.14	15.74
218.604	14.6
219.069	13.58
219.534	12.72
219.998	12.07
220.463	11.47
220.927	10.91
221.392	10.52
221.856	10.22
222.32	9.93
222.785	9.72
223.249	9.46
223.713	9.23
224.177	9.06
224.642	8.89
225.106	8.7
225.57	8.54
226.034	8.39
226.497	8.24
226.961	8.1
227.425	7.98
227.889	7.85
228.353	7.72
228.816	7.59
229.28	7.46
229.744	7.34
230.207	7.22
230.671	7.11
231.134	7
231.597	6.93
232.061	6.82
232.524	6.72
232.987	6.63
233.45	6.57
233.914	6.5
234.377	6.41
234.84	6.33
235.303	6.28
235.766	6.21
236.229	6.14
236.691	6.06
237.154	6.01
237.617	5.94
238.08	5.88
238.542	5.81
239.005	5.76
239.468	5.71
239.93	5.65
240.393	5.59
240.855	5.54
241.317	5.48
241.78	5.44
242.242	5.38
242.704	5.34
243.166	5.29
243.629	5.26
244.091	5.2
244.553	5.15
245.015	5.11
245.477	5.06
245.939	5.01
246.4	4.97
246.862	4.92
247.324	4.88
247.786	4.83
248.247	4.78
248.709	4.73
249.17	4.69
249.632	4.65
250.093	4.62
250.555	4.59
251.016	4.56
251.477	4.52
251.939	4.49
252.4	4.46
252.861	4.43
253.322	4.41
253.783	4.38
254.244	4.36
254.705	4.33
255.166	4.31
255.627	4.27
256.088	4.25
256.549	4.23
257.009	4.21
257.47	4.17
257.931	4.14
258.391	4.11
258.852	4.08
259.312	4.05
259.773	4.02
260.233	3.99
260.694	3.97
261.154	3.94
261.614	3.92
262.074	3.89
262.534	3.87
262.994	3.85
263.455	3.83
263.915	3.81
264.374	3.79
264.834	3.78
265.294	3.76
265.754	3.75
266.214	3.73
266.673	3.71
267.133	3.71
267.593	3.69
268.052	3.69
268.512	3.68
268.971	3.68
269.431	3.67
269.89	3.66
270.349	3.66
270.809	3.65
271.268	3.65
271.727	3.65
272.186	3.64
272.645	3.64
273.104	3.62
273.563	3.62
274.022	3.61
274.481	3.6
274.94	3.6
275.399	3.58
275.857	3.58
276.316	3.57
276.775	3.56
277.233	3.55
277.692	3.55
278.15	3.55
278.609	3.54
279.067	3.53
279.525	3.52
279.984	3.51
280.442	3.51
280.9	3.5
281.358	3.5
281.816	3.5
282.274	3.49
282.732	3.48
283.19	3.47
283.648	3.46
284.106	3.45
284.564	3.45
285.021	3.45
285.479	3.44
285.937	3.43
286.394	3.42
286.852	3.41
287.309	3.4
287.767	3.38
288.224	3.37
288.682	3.36
289.139	3.34
289.596	3.32
290.053	3.31
290.511	3.29
290.968	3.27
291.425	3.25
291.882	3.24
292.339	3.23
292.796	3.22
293.252	3.21
293.709	3.21
294.166	3.2
294.623	3.2
295.079	3.19
295.536	3.19
295.992	3.19
296.449	3.18
296.905	3.18
297.362	3.18
297.818	3.17
298.274	3.17
298.731	3.16
299.187	3.15
299.643	3.14
300.099	3.14
300.555	3.13
301.011	3.12
301.467	3.12
301.923	3.11
302.379	3.1
302.835	3.11
303.291	3.1
303.746	3.1
304.202	3.1
304.658	3.11
305.113	3.1
305.569	3.1
306.024	3.11
306.479	3.1
306.935	3.09
307.39	3.09
307.845	3.09
308.301	3.08
308.756	3.08
309.211	3.07
309.666	3.07
310.121	3.08
310.576	3.08
311.031	3.07
311.486	3.08
311.94	3.09
312.395	3.08
312.85	3.08
313.305	3.07
313.759	3.07
314.214	3.06
314.668	3.06
315.123	3.05
315.577	3.05
316.032	3.04
316.486	3.02
316.94	3.02
317.394	3.02
317.849	3.01
318.303	3
318.757	2.99
319.211	2.98
319.665	2.97
320.119	2.95
320.572	2.94
321.026	2.92
321.48	2.92
321.934	2.9
322.387	2.89
322.841	2.87
323.295	2.87
323.748	2.87
324.202	2.87
324.655	2.87
325.108	2.88
325.562	2.88
326.015	2.89
326.468	2.88
326.921	2.88
327.374	2.89
327.827	2.89
328.28	2.88
328.733	2.88
329.186	2.88
329.639	2.87
330.092	2.87
330.545	2.86
330.997	2.86
331.45	2.87
331.903	2.88
332.355	2.88
332.808	2.88
333.26	2.89
333.713	2.88
334.165	2.88
334.617	2.87
335.069	2.87
335.522	2.87
335.974	2.88
336.426	2.87
336.878	2.86
337.33	2.85
337.782	2.85
338.234	2.85
338.686	2.85
339.137	2.86
339.589	2.86
340.041	2.86
340.493	2.85
340.944	2.84
341.396	2.83
341.847	2.81
342.299	2.81
342.75	2.8
343.201	2.79
343.653	2.78
344.104	2.76
344.555	2.75
345.006	2.73
345.457	2.72
345.908	2.72
346.359	2.72
346.81	2.72
347.261	2.71
347.712	2.71
348.163	2.7
348.613	2.7
349.064	2.71
349.515	2.71
349.965	2.71
350.416	2.71
350.866	2.71
351.317	2.69
351.767	2.7
352.217	2.7
352.668	2.7
353.118	2.71
353.568	2.71
354.018	2.71
354.468	2.72
354.918	2.73
355.368	2.73
355.818	2.74
356.268	2.74
356.718	2.73
357.168	2.73
357.617	2.73
358.067	2.73
358.517	2.74
358.966	2.74
359.416	2.73
359.865	2.73
360.315	2.73
360.764	2.73
361.213	2.73
361.663	2.73
362.112	2.73
362.561	2.73
363.01	2.72
363.459	2.7
363.908	2.69
364.357	2.69
364.806	2.68
365.255	2.68
365.703	2.69
366.152	2.7
366.601	2.71
367.05	2.71
367.498	2.72
367.947	2.73
368.395	2.75
368.844	2.75
369.292	2.76
369.74	2.78
370.189	2.79
370.637	2.78
371.085	2.78
371.533	2.79
371.981	2.79
372.429	2.8
372.877	2.81
373.325	2.83
373.773	2.85
374.221	2.87
374.669	2.88
375.116	2.9
375.564	2.93
376.012	2.96
376.459	3
376.907	3.04
377.354	3.08
377.801	3.12
378.249	3.16
378.696	3.2
379.143	3.25
379.591	3.3
380.038	3.35
380.485	3.4
380.932	3.45
381.379	3.5
381.826	3.56
382.273	3.61
382.72	3.66
383.166	3.72
383.613	3.78
384.06	3.85
384.506	3.92
384.953	4
385.4	4.07
385.846	4.15
386.292	4.22
386.739	4.29
387.185	4.37
387.631	4.45
388.078	4.54
388.524	4.62
388.97	4.69
389.416	4.77
389.862	4.85
390.308	4.92
390.754	5.01
391.2	5.08
391.645	5.15
392.091	5.24
392.537	5.32
392.983	5.39
393.428	5.47
393.874	5.54
394.319	5.62
394.765	5.68
395.21	5.74
395.655	5.8
396.101	5.86
396.546	5.9
396.991	5.94
397.436	5.99
397.881	6.05
398.326	6.09
398.771	6.14
399.216	6.17
399.661	6.2
400.106	6.23
400.551	6.25
400.995	6.26
401.44	6.28
401.885	6.28
402.329	6.29
402.774	6.29
403.218	6.3
403.663	6.3
404.107	6.29
404.551	6.28
404.995	6.27
405.44	6.25
405.884	6.24
406.328	6.25
406.772	6.24
407.216	6.23
407.66	6.21
408.104	6.16
408.547	6.15
408.991	6.14
409.435	6.12
409.879	6.1
410.322	6.09
410.766	6.08
411.209	6.06
411.653	6.05
412.096	6.03
412.54	6.02
412.983	6.03
413.426	6.04
413.869	6.03
414.312	6.03
414.756	6.03
415.199	6.01
415.642	5.99
416.085	5.98
416.527	5.95
416.97	5.92
417.413	5.91
417.856	5.88
418.298	5.85
418.741	5.83
419.184	5.81
419.626	5.78
420.069	5.78
420.511	5.77
420.953	5.76
421.396	5.76
421.838	5.75
422.28	5.74
422.722	5.73
423.164	5.72
423.606	5.7
424.048	5.68
424.49	5.66
424.932	5.63
425.374	5.57
425.816	5.52
426.258	5.48
426.699	5.45
427.141	5.42
427.582	5.4
428.024	5.38
428.465	5.36
428.907	5.32
429.348	5.29
429.789	5.26
430.231	5.28
430.672	5.29
431.113	5.29
431.554	5.27
431.995	5.28
432.436	5.27
432.877	5.26
433.318	5.26
433.759	5.28
434.2	5.29
434.64	5.33
435.081	5.35
435.522	5.36
435.962	5.38
436.403	5.41
436.843	5.42
437.284	5.44
437.724	5.47
438.164	5.49
438.604	5.53
439.045	5.56
439.485	5.58
439.925	5.58
440.365	5.62
440.805	5.65
441.245	5.7
441.685	5.76
442.125	5.81
442.564	5.86
443.004	5.91
443.444	5.96
443.883	6.04
444.323	6.09
444.762	6.16
445.202	6.24
445.641	6.33
446.081	6.4
446.52	6.46
446.959	6.54
447.398	6.63
447.837	6.72
448.276	6.8
448.716	6.89
449.154	6.99
449.593	7.07
450.032	7.14
450.471	7.18
450.91	7.23
451.349	7.29
451.787	7.34
452.226	7.37
452.664	7.41
453.103	7.42
453.541	7.45
453.98	7.48
454.418	7.49
454.856	7.5
455.295	7.52
455.733	7.52
456.171	7.53
456.609	7.53
457.047	7.53
457.485	7.54
457.923	7.55
458.361	7.55
458.798	7.56
459.236	7.56
459.674	7.57
460.111	7.57
460.549	7.6
460.987	7.62
461.424	7.62
461.862	7.64
462.299	7.65
462.736	7.65
463.173	7.65
463.611	7.66
464.048	7.66
464.485	7.67
464.922	7.69
465.359	7.68
465.796	7.69
466.233	7.69
466.67	7.7
467.106	7.7
467.543	7.71
467.98	7.71
468.416	7.7
468.853	7.71
469.29	7.71
469.726	7.71
470.162	7.72
470.599	7.71
471.035	7.71
471.471	7.71
471.907	7.71
472.344	7.73
472.78	7.74
473.216	7.75
473.652	7.77
474.088	7.77
474.523	7.8
474.959	7.81
475.395	7.81
475.831	7.82
476.266	7.83
476.702	7.84
477.138	7.85
477.573	7.86
478.008	7.89
478.444	7.89
478.879	7.91
479.314	7.9
479.75	7.92
480.185	7.92
480.62	7.92
481.055	7.94
481.49	7.97
481.925	7.98
482.36	7.99
482.795	8
483.229	8.02
483.664	8.05
484.099	8.09
484.534	8.13
484.968	8.19
485.403	8.25
485.837	8.31
486.271	8.37
486.706	8.44
487.14	8.51
487.574	8.6
488.009	8.69
488.443	8.79
488.877	8.88
489.311	8.98
489.745	9.08
490.179	9.19
490.613	9.31
491.046	9.43
491.48	9.55
491.914	9.69
492.348	9.82
492.781	9.97
493.215	10.12
493.648	10.28
494.082	10.44
494.515	10.6
494.948	10.78
495.382	10.95
495.815	11.14
496.248	11.33
496.681	11.54
497.114	11.74
497.547	11.94
497.98	12.16
498.413	12.38
498.846	12.62
499.279	12.86
499.711	13.1
500.144	13.35
500.577	13.62
501.009	13.87
501.442	14.14
501.874	14.42
502.306	14.71
502.739	15.02
503.171	15.32
503.603	15.62
504.036	15.94
504.468	16.25
504.9	16.55
505.332	16.87
505.764	17.2
506.196	17.52
506.627	17.86
507.059	18.2
507.491	18.53
507.923	18.88
508.354	19.25
508.786	19.6
509.217	19.97
509.649	20.34
510.08	20.71
510.512	21.07
510.943	21.43
511.374	21.79
511.805	22.16
512.237	22.51
512.668	22.87
513.099	23.22
513.53	23.57
513.961	23.92
514.391	24.28
514.822	24.64
515.253	24.99
515.684	25.33
516.114	25.68
516.545	26.03
516.975	26.38
517.406	26.7
517.836	27.02
518.267	27.35
518.697	27.66
519.127	27.95
519.558	28.25
519.988	28.56
520.418	28.84
520.848	29.11
521.278	29.37
521.708	29.69
522.138	29.96
522.567	30.21
522.997	30.43
523.427	30.67
523.857	30.88
524.286	31.06
524.716	31.27
525.145	31.47
525.575	31.67
526.004	31.87
526.433	31.97
526.863	32.15
527.292	32.31
527.721	32.45
528.15	32.58
528.579	32.73
529.008	32.89
529.437	32.99
529.866	33.12
530.295	33.22
530.724	33.31
531.152	33.43
531.581	33.51
532.01	33.61
532.438	33.72
532.867	33.83
533.295	33.91
533.723	33.98
534.152	34.06
534.58	34.14
535.008	34.2
535.436	34.28
535.865	34.32
536.293	34.37
536.721	34.41
537.149	34.45
537.576	34.49
538.004	34.55
538.432	34.61
538.86	34.66
539.287	34.66
539.715	34.71
540.143	34.72
540.57	34.75
540.998	34.79
541.425	34.83
541.852	34.86
542.28	34.88
542.707	34.89
543.134	34.9
543.561	34.91
543.988	34.96
544.415	34.97
544.842	34.98
545.269	35
545.696	35
546.123	35.01
546.549	35.03
546.976	35.04
547.403	35.04
547.829	35.03
548.256	35.04
548.682	35.03
549.108	35.06
549.535	35.08
549.961	35.08
550.387	35.08
550.813	35.07
551.24	35.05
551.666	35.04
552.092	35.03
552.518	35.03
552.943	35.02
553.369	35
553.795	34.97
554.221	34.95
554.646	34.92
555.072	34.92
555.498	34.89
555.923	34.86
556.349	34.81
556.774	34.75
557.199	34.69
557.625	34.63
558.05	34.6
558.475	34.53
558.9	34.47
559.325	34.41
559.75	34.32
560.175	34.27
560.6	34.2
561.025	34.14
561.449	34.07
561.874	34
562.299	33.94
562.723	33.85
563.148	33.76
563.572	33.63
563.997	33.52
564.421	33.41
564.846	33.3
565.27	33.19
565.694	33.07
566.118	32.95
566.542	32.85
566.966	32.72
567.39	32.59
567.814	32.48
568.238	32.38
568.662	32.27
569.086	32.16
569.509	32.05
569.933	31.94
570.357	31.84
570.78	31.72
571.204	31.61
571.627	31.49
572.05	31.37
572.474	31.27
572.897	31.16
573.32	31.04
573.743	30.94
574.166	30.83
574.589	30.71
575.012	30.6
575.435	30.5
575.858	30.39
576.281	30.29
576.704	30.19
577.126	30.08
577.549	29.97
577.972	29.87
578.394	29.76
578.817	29.66
579.239	29.58
579.661	29.5
580.084	29.4
580.506	29.33
580.928	29.24
581.35	29.16
581.772	29.09
582.194	29.03
582.616	28.95
583.038	28.88
583.46	28.79
583.882	28.71
584.303	28.63
584.725	28.56
585.147	28.48
585.568	28.42
585.99	28.33
586.411	28.26
586.833	28.17
587.254	28.12
587.675	28.06
588.096	28.01
588.518	27.95
588.939	27.91
589.36	27.85
589.781	27.79
590.202	27.74
590.623	27.7
591.043	27.64
591.464	27.6
591.885	27.54
592.305	27.5
592.726	27.45
593.147	27.41
593.567	27.36
593.987	27.31
594.408	27.28
594.828	27.23
595.248	27.19
595.669	27.17
596.089	27.12
596.509	27.1
596.929	27.06
597.349	27.02
597.769	26.98
598.189	26.93
598.608	26.91
599.028	26.88
599.448	26.84
599.867	26.79
600.287	26.74
600.706	26.71
601.126	26.64
601.545	26.61
601.965	26.58
602.384	26.53
602.803	26.48
603.222	26.44
603.641	26.36
604.061	26.31
604.48	26.24
604.898	26.17
605.317	26.11
605.736	26.04
606.155	25.97
606.574	25.89
606.992	25.8
607.411	25.72
607.829	25.6
608.248	25.52
608.666	25.42
609.085	25.35
609.503	25.27
609.921	25.18
610.339	25.08
610.758	24.99
611.176	24.88
611.594	24.79
612.012	24.69
612.43	24.63
612.847	24.52
613.265	24.43
613.683	24.35
614.101	24.25
614.518	24.14
614.936	24.06
615.353	23.97
615.771	23.89
616.188	23.81
616.606	23.74
617.023	23.67
617.44	23.61
617.857	23.55
618.274	23.47
618.691	23.4
619.108	23.34
619.525	23.29
619.942	23.23
620.359	23.18
620.776	23.11
621.192	23.07
621.609	23.01
622.026	22.97
622.442	22.94
622.859	22.9
623.275	22.88
623.691	22.87
624.108	22.83
624.524	22.8
624.94	22.78
625.356	22.77
625.772	22.75
626.188	22.75
626.604	22.73
627.02	22.71
627.436	22.69
627.852	22.67
628.268	22.65
628.683	22.63
629.099	22.62
629.514	22.6
629.93	22.58
630.345	22.54
630.761	22.5
631.176	22.45
631.591	22.4
632.007	22.34
632.422	22.28
632.837	22.21
633.252	22.13
633.667	22.03
634.082	21.94
634.497	21.82
634.911	21.7
635.326	21.58
635.741	21.45
636.155	21.31
636.57	21.16
636.984	21.02
637.399	20.85
637.813	20.69
638.228	20.52
638.642	20.33
639.056	20.14
639.47	19.98
639.884	19.79
640.298	19.58
640.712	19.39
641.126	19.19
641.54	18.97
641.954	18.77
642.368	18.56
642.781	18.36
643.195	18.16
643.609	17.97
644.022	17.76
644.436	17.58
644.849	17.41
645.262	17.23
645.676	17.06
646.089	16.91
646.502	16.76
646.915	16.62
647.328	16.47
647.741	16.35
648.154	16.24
648.567	16.14
648.98	16.04
649.393	15.95
649.805	15.87
650.218	15.78
650.631	15.7
651.043	15.61
651.456	15.54
651.868	15.45
652.28	15.38
652.693	15.29
653.105	15.19
653.517	15.09
653.929	14.98
654.341	14.86
654.753	14.72
655.165	14.59
655.577	14.46
655.989	14.31
656.401	14.15
656.813	13.99
657.224	13.81
657.636	13.62
658.047	13.45
658.459	13.25
658.87	13.05
659.282	12.85
659.693	12.64
660.104	12.44
660.515	12.22
660.926	12.02
661.338	11.79
661.749	11.59
662.159	11.38
662.57	11.18
662.981	10.98
663.392	10.78
663.803	10.59
664.213	10.4
664.624	10.21
665.035	10.03
665.445	9.86
665.855	9.7
666.266	9.55
666.676	9.41
667.086	9.26
667.497	9.13
667.907	9.02
668.317	8.9
668.727	8.8
669.137	8.71
669.547	8.62
669.956	8.54
670.366	8.46
670.776	8.39
671.186	8.33
671.595	8.28
672.005	8.22
672.414	8.19
672.824	8.15
673.233	8.13
673.642	8.11
674.052	8.1
674.461	8.1
674.87	8.11
675.279	8.13
675.688	8.15
676.097	8.18
676.506	8.22
676.915	8.26
677.323	8.33
677.732	8.39
678.141	8.49
678.549	8.58
678.958	8.7
679.366	8.84
679.775	9
680.183	9.19
680.592	9.4
681	9.65
681.408	9.91
681.816	10.2
682.224	10.52
682.632	10.86
683.04	11.25
683.448	11.66
683.856	12.08
684.264	12.56
684.671	13.06
685.079	13.59
685.487	14.15
685.894	14.74
686.302	15.35
686.709	15.99
687.116	16.64
687.524	17.3
687.931	17.99
688.338	18.7
688.745	19.39
689.152	20.1
689.559	20.82
689.966	21.53
690.373	22.24
690.78	22.96
691.187	23.65
691.593	24.35
692	25.02
692.407	25.67
692.813	26.33
693.22	26.98
693.626	27.6
694.032	28.22
694.439	28.81
694.845	29.38
695.251	29.94
695.657	30.47
696.063	30.99
696.469	31.5
696.875	32.01
697.281	32.49
697.687	32.95
698.093	33.39
698.498	33.84
698.904	34.28
699.31	34.68
699.715	35.07
700.12	35.46
700.526	35.85
700.931	36.22
701.337	36.58
701.742	36.91
702.147	37.24
702.552	37.55
702.957	37.83
703.362	38.1
703.767	38.36
704.172	38.62
704.577	38.86
704.981	39.08
705.386	39.29
705.791	39.51
706.195	39.76
706.6	39.97
707.004	40.17
707.408	40.37
707.813	40.57
708.217	40.78
708.621	41.01
709.025	41.19
709.43	41.39
709.834	41.59
710.237	41.77
710.641	41.91
711.045	42.07
711.449	42.23
711.853	42.43
712.256	42.58
712.66	42.73
713.064	42.85
713.467	43.01
713.87	43.14
714.274	43.28
714.677	43.43
715.08	43.55
715.484	43.69
715.887	43.83
716.29	43.91
716.693	44.04
717.096	44.17
717.499	44.28
717.901	44.4
718.304	44.5
718.707	44.61
719.109	44.7
719.512	44.79
719.915	44.88
720.317	44.94
720.719	45.01
721.122	45.1
721.524	45.17
721.926	45.27
722.328	45.35
722.731	45.43
723.133	45.5
723.535	45.59
723.937	45.69
724.338	45.76
724.74	45.86
725.142	46.02
725.544	46.06
725.945	46.12
726.347	46.15
726.748	46.19
727.15	46.23
727.551	46.3
727.952	46.3
728.354	46.32
728.755	46.31
729.156	46.34
729.557	46.28
729.958	46.33
730.359	46.34
730.76	46.4
731.161	46.43
731.562	46.47
731.962	46.46
732.363	46.53
732.763	46.56
733.164	46.62
733.564	46.68
733.965	46.69
734.365	46.74
734.766	46.76
735.166	46.76
735.566	46.8
735.966	46.82
736.366	46.83
736.766	46.83
737.166	46.86
737.566	46.87
737.966	46.85
738.365	46.89
738.765	46.91
739.165	46.93
739.564	46.96
739.964	46.96
740.363	46.97
740.763	47
741.162	47.03
741.561	47.04
741.96	47.07
742.36	47.09
742.759	47.1
743.158	47.09
743.557	47.09
743.955	47.1
744.354	47.1
744.753	47.11
745.152	47.12
745.55	47.11
745.949	47.13
746.348	47.13
746.746	47.12
747.144	47.11
747.543	47.11
747.941	47.13
748.339	47.11
748.737	47.13
749.136	47.12
749.534	47.1
749.932	47.11
750.33	47.09
750.727	47.09
751.125	47.11
751.523	47.11
751.921	47.12
752.318	47.13
752.716	47.14
753.113	47.13
753.511	47.14
753.908	47.16
754.305	47.18
754.703	47.2
755.1	47.2
755.497	47.2
755.894	47.19
756.291	47.19
756.688	47.14
757.085	47.15
757.482	47.16
757.878	47.18
758.275	47.18
758.672	47.16
759.068	47.16
759.465	47.16
759.861	47.18
760.258	47.19
760.654	47.21
761.05	47.27
761.447	47.28
761.843	47.28
762.239	47.27
762.635	47.26
763.031	47.27
763.427	47.25
763.822	47.25
764.218	47.23
764.614	47.22
765.01	47.2
765.405	47.17
765.801	47.15
766.196	47.14
766.592	47.14
766.987	47.16
767.382	47.14
767.778	47.16
768.173	47.16
768.568	47.14
768.963	47.14
769.358	47.14
769.753	47.12
770.148	47.13
770.542	47.15
770.937	47.14
771.332	47.14
771.726	47.15
772.121	47.15
772.515	47.14
772.91	47.15
773.304	47.16
773.699	47.17
774.093	47.18
774.487	47.19
774.881	47.18
775.275	47.17
775.669	47.13
776.063	47.09
776.457	47.1
776.851	47.1
777.245	47.08
777.638	47.07
778.032	47.05
778.425	47.07
778.819	47.07
779.212	47.08
779.606	47.08
779.999	47.11
780.392	47.16
780.786	47.15
781.179	47.16
781.572	47.2
781.965	47.23
782.358	47.23
782.751	47.22
783.143	47.21
783.536	47.19
783.929	47.2
784.322	47.2
784.714	47.21
785.107	47.22
785.499	47.21
785.891	47.19
786.284	47.19
786.676	47.2
787.068	47.22
787.46	47.23
787.852	47.24
788.245	47.23
788.636	47.23
789.028	47.23
789.42	47.21
789.812	47.23
790.204	47.24
790.595	47.26
790.987	47.26
791.378	47.28
791.77	47.28
792.161	47.29
792.553	47.31
792.944	47.27
793.335	47.29
793.726	47.31
794.117	47.28
794.508	47.24
794.899	47.23
795.29	47.24
795.681	47.2
796.072	47.21
796.463	47.23
796.853	47.21
797.244	47.24
797.634	47.21
798.025	47.24
798.415	47.26
798.806	47.29
799.196	47.29
799.586	47.29
799.976	47.32
800.366	47.32
800.756	47.3
801.146	47.33
801.536	47.32
801.926	47.34
802.316	47.33
802.706	47.33
803.095	47.34
803.485	47.33
803.874	47.34
804.264	47.33
804.653	47.33
805.043	47.34
805.432	47.3
805.821	47.31
806.21	47.31
806.599	47.29
806.988	47.27
807.377	47.24
807.766	47.26
808.155	47.26
808.544	47.27
808.933	47.25
809.321	47.25
809.71	47.26
810.098	47.27
810.487	47.25
810.875	47.26
811.264	47.28
811.652	47.33
812.04	47.31
812.428	47.33
812.816	47.33
813.204	47.33
813.592	47.3
813.98	47.33
814.368	47.34
814.756	47.36
815.144	47.35
815.531	47.33
815.919	47.29
816.306	47.3
816.694	47.29
817.081	47.28
817.469	47.28
817.856	47.29
818.243	47.28
818.63	47.25
819.017	47.27
819.404	47.27
819.791	47.28
820.178	47.31
820.565	47.29
820.952	47.31
821.339	47.31
821.725	47.33
822.112	47.34
822.498	47.35
822.885	47.36
823.271	47.33
823.657	47.29
824.044	47.3
824.43	47.31
824.816	47.31
825.202	47.3
825.588	47.31
825.974	47.29
826.36	47.3
826.746	47.28
827.132	47.29
827.517	47.32
827.903	47.35
828.289	47.37
828.674	47.36
829.06	47.35
829.445	47.34
829.83	47.31
830.216	47.31
830.601	47.31
830.986	47.33
831.371	47.32
831.756	47.33
832.141	47.33
832.526	47.33
832.911	47.33
833.295	47.35
833.68	47.39
834.065	47.44
834.449	47.46
834.834	47.46
835.218	47.48
835.603	47.47
835.987	47.45
836.371	47.47
836.755	47.45
837.139	47.45
837.524	47.45
837.908	47.47
838.291	47.45
838.675	47.45
839.059	47.47
839.443	47.44
839.827	47.44
840.21	47.45
840.594	47.47
840.977	47.46
841.361	47.49
841.744	47.46
842.127	47.43
842.511	47.41
842.894	47.39
843.277	47.37
843.66	47.39
844.043	47.42
844.426	47.42
844.809	47.42
845.191	47.44
845.574	47.43
845.957	47.46
846.339	47.46
846.722	47.49
847.104	47.53
847.487	47.52
847.869	47.52
848.252	47.54
848.634	47.56
849.016	47.54
849.398	47.54
849.78	47.54
850.162	47.54
850.544	47.55
850.926	47.54
851.307	47.54
851.689	47.55
852.071	47.56
852.452	47.54
852.834	47.54
853.215	47.54
853.597	47.54
853.978	47.55
854.359	47.55
854.741	47.54
855.122	47.54
855.503	47.52
855.884	47.52
856.265	47.5
856.646	47.49
857.026	47.49
857.407	47.51
857.788	47.5
858.169	47.52
858.549	47.51
858.93	47.52
859.31	47.5
859.69	47.51
860.071	47.54
860.451	47.53
860.831	47.55
861.211	47.51
861.591	47.53
861.971	47.53
862.351	47.51
862.731	47.53
863.111	47.52
863.491	47.53
863.87	47.53
864.25	47.5
864.629	47.52
865.009	47.51
865.388	47.54
865.768	47.52
866.147	47.52
866.526	47.52
866.905	47.53
867.284	47.53
867.663	47.52
868.042	47.54
868.421	47.56
868.8	47.57
869.179	47.57
869.558	47.56
869.936	47.54
870.315	47.55
870.693	47.54
871.072	47.54
871.45	47.56
871.828	47.57
872.207	47.57
872.585	47.54
872.963	47.53
873.341	47.51
873.719	47.55
874.097	47.56
874.475	47.55
874.853	47.55
875.23	47.57
875.608	47.57
875.986	47.59
876.363	47.6
876.741	47.64
877.118	47.65
877.495	47.68
877.873	47.66
878.25	47.67
878.627	47.66
879.004	47.67
879.381	47.68
879.758	47.65
880.135	47.64
880.512	47.62
880.889	47.6
881.265	47.58
881.642	47.57
882.019	47.57
882.395	47.55
882.772	47.57
883.148	47.53
883.524	47.49
883.901	47.5
884.277	47.5
884.653	47.5
885.029	47.49
885.405	47.49
885.781	47.5
886.157	47.51
886.532	47.5
886.908	47.47
887.284	47.49
887.659	47.49
888.035	47.47
888.411	47.46
888.786	47.44
889.161	47.45
889.537	47.45
889.912	47.42
890.287	47.43
890.662	47.41
891.037	47.44
891.412	47.44
891.787	47.42
892.162	47.44
892.536	47.44
892.911	47.46
893.286	47.46
893.66	47.46
894.035	47.51
894.409	47.49
894.784	47.51
895.158	47.51
895.532	47.53
895.906	47.54
896.281	47.54
896.655	47.54
897.029	47.56
897.402	47.56
897.776	47.57
898.15	47.55
898.524	47.58
898.898	47.59
899.271	47.59
899.645	47.6
900.018	47.6
900.392	47.6
900.765	47.6
901.138	47.58
901.511	47.58
901.884	47.57
902.258	47.57
902.631	47.56
903.003	47.55
903.376	47.55
903.749	47.52
904.122	47.54
904.495	47.57
904.867	47.56
905.24	47.58
905.612	47.61
905.985	47.6
906.357	47.59
906.729	47.61
907.102	47.63
907.474	47.64
907.846	47.67
908.218	47.66
908.59	47.65
908.962	47.64
909.334	47.62
909.705	47.61
910.077	47.62
910.449	47.64
910.82	47.61
911.192	47.6
911.563	47.58
911.935	47.57
912.306	47.55
912.677	47.54
913.048	47.56
913.419	47.56
913.79	47.56
914.161	47.57
914.532	47.54
914.903	47.55
915.274	47.53
915.645	47.56
916.015	47.56
916.386	47.58
916.756	47.58
917.127	47.6
917.497	47.6
917.868	47.58
918.238	47.56
918.608	47.6
918.978	47.6
919.348	47.64
919.718	47.6
920.088	47.6
920.458	47.58
920.828	47.56
921.198	47.54
921.567	47.54
921.937	47.56
922.306	47.54
922.676	47.53
923.045	47.54
923.415	47.49
923.784	47.51
924.153	47.53
924.522	47.56
924.891	47.56
925.26	47.56
925.629	47.58
925.998	47.57
926.367	47.56
926.736	47.55
927.104	47.55
927.473	47.55
927.842	47.53
928.21	47.52
928.578	47.47
928.947	47.48
929.315	47.45
929.683	47.43
930.051	47.42
930.42	47.42
930.788	47.37
931.156	47.35
931.523	47.36
931.891	47.38
932.259	47.39
932.627	47.41
932.994	47.39
933.362	47.41
933.729	47.41
934.097	47.42
934.464	47.47
934.831	47.49
935.199	47.51
935.566	47.57
935.933	47.51
936.3	47.49
936.667	47.49
937.034	47.54
937.401	47.57
937.767	47.59
938.134	47.59
938.501	47.59
938.867	47.62
939.234	47.61
939.6	47.56
939.967	47.62
940.333	47.61
940.699	47.65
941.065	47.56
941.431	47.55
941.798	47.5
942.163	47.48
942.529	47.44
942.895	47.46
943.261	47.4
943.627	47.36
943.992	47.33
944.358	47.32
944.723	47.27
945.089	47.27
945.454	47.28
945.82	47.28
946.185	47.31
946.55	47.23
946.915	47.18
947.28	47.22
947.645	47.23
948.01	47.23
948.375	47.21
948.74	47.17
949.104	47.18
949.469	47.15
949.834	47.12
950.198	47.05
950.562	47.08
950.927	47.1
951.291	46.98
951.655	46.92
952.02	46.92
952.384	46.89
952.748	46.86
953.112	46.84
953.476	46.81
953.839	46.76
954.203	46.77
954.567	46.74
954.931	46.71
955.294	46.72
955.658	46.79
956.021	46.8
956.385	46.77
956.748	46.78
957.111	46.77
957.474	46.82
957.837	46.83
958.2	46.82
958.563	46.82
958.926	46.83
959.289	46.85
959.652	46.8
960.015	46.76
960.377	46.8
960.74	46.85
961.102	46.84
961.465	46.87
961.827	46.94
962.189	46.96
962.552	46.97
962.914	46.95
963.276	47
963.638	46.96
964	46.98
964.362	47
964.724	46.99
965.085	46.99
965.447	46.91
965.809	46.79
966.17	46.74
966.532	46.71
966.893	46.71
967.255	46.71
967.616	46.74
967.977	46.7
968.338	46.65
968.699	46.64
969.061	46.64
969.421	46.64
969.782	46.69
970.143	46.73
970.504	46.71
970.865	46.7
971.225	46.67
971.586	46.62
971.946	46.66
972.307	46.67
972.667	46.66
973.027	46.69
973.388	46.64
973.748	46.67
974.108	46.7
974.468	46.74
974.828	46.79
975.188	46.78
975.548	46.76
975.907	46.73
976.267	46.75
976.627	46.74
976.986	46.73
977.346	46.74
977.705	46.67
978.064	46.64
978.424	46.61
978.783	46.55
979.142	46.55
979.501	46.61
979.86	46.66
980.219	46.63
980.578	46.65
980.937	46.6
981.296	46.54
981.654	46.56
982.013	46.56
982.371	46.57
982.73	46.6
983.088	46.6
983.447	46.55
983.805	46.55
984.163	46.52
984.521	46.47
984.879	46.52
985.237	46.58
985.595	46.65
985.953	46.6
986.311	46.54
986.669	46.51
987.026	46.47
987.384	46.5
987.741	46.42
988.099	46.5
988.456	46.52
988.814	46.51
989.171	46.5
989.528	46.49
989.885	46.47
990.242	46.56
990.599	46.57
990.956	46.65
991.313	46.7
991.67	46.79
992.027	46.79
992.383	46.8
992.74	46.86
993.096	46.93
993.453	46.89
993.809	46.89
994.165	46.86
994.522	46.94
994.878	46.94
995.234	46.89
995.59	46.83
995.946	46.8
996.302	46.83
996.658	46.79
997.013	46.72
997.369	46.72
997.725	46.8
998.08	46.8
998.436	46.72
998.791	46.76
999.147	46.69
999.502	46.76
999.857	46.73
1000.212	46.64
1000.567	46.67
1000.922	46.71
1001.277	46.71
1001.632	46.69
1001.987	46.7
1002.342	46.68
1002.696	46.63
1003.051	46.82
1003.406	46.87
1003.76	46.87
1004.114	46.98
1004.469	46.93
1004.823	47.14
1005.177	47.12
1005.531	47.17
1005.885	47.26
1006.239	47.27
1006.593	47.43
1006.947	47.37
1007.301	47.22
1007.655	47.23
1008.008	47.18
1008.362	47.24
1008.715	47.09
1009.069	47.18
1009.422	47.21
1009.776	47.2
1010.129	47.29
1010.482	47.13
1010.835	47.16
1011.188	47.18
1011.541	47.18
1011.894	47.35
1012.247	47.35
1012.6	47.23
1012.952	47.11
1013.305	47.06
1013.657	46.99
1014.01	46.97
1014.362	46.96
1014.715	47.11
1015.067	47.15
1015.419	47.25
1015.771	47.07
1016.123	46.98
1016.475	47.12
1016.827	47.24
1017.179	47.39
1017.531	47.48
1017.883	47.35
1018.234	47.57
1018.586	47.37
1018.938	47.51
1019.289	47.34
1019.64	47.36
1019.992	47.32
1020.343	47.28
1020.694	47.09
1021.045	46.88
1021.396	46.91
1021.747	47.18
1022.098	47.02
1022.449	46.96
1022.8	46.87
1023.151	46.82
1023.501	46.9
1023.852	47.07
1024.202	46.97
1024.553	47.07
1024.903	47.14
1025.253	47.24
1025.604	47.02
1025.954	46.88
1026.304	46.96
1026.654	47.29
1027.004	47.36
1027.354	47.32
1027.703	47.36
1028.053	47.4
1028.403	47.27
1028.753	46.9
1029.102	46.82
1029.452	46.98
1029.801	47.29
1030.15	47.23
1030.499	46.76
897.758	1242.67
901.051	1251.95
904.343	1247.48
907.636	1272.32
910.928	1238.68
914.22	1239.96
917.511	1223.95
920.803	1171.83
924.094	1164.71
927.384	1136.04
930.675	1092.53
933.965	1088.32
937.255	1023.84
940.544	984.25
943.834	936.52
947.123	928.34
950.411	875.22
953.7	856.59
956.988	810.95
960.276	777.79
963.563	767.89
966.851	741.42
970.138	734.25
973.424	712.51
976.711	716.6
979.997	680.05
983.283	676.76
986.568	660.88
989.853	642.32
993.138	630.29
996.423	607.02
999.708	586.96
1002.992	580.52
1006.275	556.54
1009.559	550.82
1012.842	529.97
1016.125	516.13
1019.408	506.71
1022.69	499.89
1025.972	488.4
1029.254	476.97
1032.536	469.32
1035.817	460.06
1039.098	454.92
1042.379	445.02
1045.659	439.89
1048.939	430.57
1052.219	422.07
1055.498	415.64
1058.778	406.04
1062.057	398.03
1065.335	393.66
1068.614	389.38
1071.892	385.76
1075.17	372.81
1078.447	364.94
1081.724	362.28
1085.001	359.86
1088.278	352.17
1091.554	346.05
1094.83	345.71
1098.106	343.59
1101.382	340.61
1104.657	338.42
1107.932	333.13
1111.206	334.92
1114.481	327.63
1117.755	324.37
1121.029	320.98
1124.302	321.26
1127.575	314.05
1130.848	311.07
1134.121	307.22
1137.393	305.71
1140.665	298.4
1143.937	296.18
1147.208	294.46
1150.48	293.99
1153.75	290.27
1157.021	286.18
1160.291	285.79
1163.561	283.58
1166.831	283.21
1170.101	280.99
1173.37	280.26
1176.639	281.5
1179.907	278.71
1183.176	275.36
1186.444	275.39
1189.711	275.11
1192.979	273.9
1196.246	273.14
1199.513	273.76
1202.78	271.93
1206.046	271.6
1209.312	269.44
1212.578	269.33
1215.843	272.52
1219.108	270.91
1222.373	275.57
1225.638	277.79
1228.902	281.65
1232.166	281.37
1235.43	283.62
1238.693	287.6
1241.956	289.22
1245.219	293.37
1248.482	294.12
1251.744	293.24
1255.006	294.34
1258.268	286.73
1261.529	284.02
1264.79	282.8
1268.051	281.01
1271.312	276.79
1274.572	273.84
1277.832	271.12
1281.092	267.17
1284.351	264.65
1287.61	264.49
1290.869	261.11
1294.128	259.97
1297.386	259.99
1300.644	256.34
1303.902	257.71
1307.159	257.29
1310.416	257.23
1313.673	257.29
1316.93	259
1320.186	258.69
1323.442	259.46
1326.697	263.77
1329.953	264.82
1333.208	265.62
1336.463	269.4
1339.717	269.15
1342.972	272.93
1346.226	274.67
1349.479	275.26
1352.733	277.46
1355.986	279.3
1359.238	279.07
1362.491	280.76
1365.743	283.65
1368.995	283.62
1372.247	282.6
1375.498	282.92
1378.749	284.81
1382	282.59
1385.251	282.93
1388.501	281.03
1391.751	282.18
1395	281.37
1398.25	279.35
1401.499	277.24
1404.748	276.96
1407.996	276.52
1411.244	275.24
1414.492	273.26
1417.74	270.23
1420.987	266.94
1424.234	266.77
1427.481	263.52
1430.728	263.15
1433.974	260.12
1437.22	258.72
1440.465	257.83
1443.711	254.93
1446.956	252.73
1450.201	249.74
1453.445	247.89
1456.689	247.18
1459.933	243.13
1463.177	240.78
1466.42	236.56
1469.663	234.53
1472.906	232.73
1476.148	227.2
1479.391	224.43
1482.633	222.89
1485.874	219.54
1489.115	218.06
1492.356	215.89
1495.597	215.43
1498.838	212.38
1502.078	211.88
1505.318	210.31
1508.557	210.11
1511.797	209.77
1515.036	208.66
1518.274	207.94
1521.513	206.48
1524.751	206.01
1527.989	204.91
1531.227	203.78
1534.464	204.26
1537.701	202.7
1540.938	202.18
1544.174	200.4
1547.41	200.15
1550.646	198.46
1553.882	198.32
1557.117	196.33
1560.352	195.5
1563.587	195.06
1566.821	193.74
1570.055	192.12
1573.289	190.54
1576.523	190.32
1579.756	188.33
1582.989	187.35
1586.222	187.79
1589.454	186.7
1592.686	187.84
1595.918	186.76
1599.15	185.82
1602.381	186.35
1605.612	185.89
1608.843	186.72
1612.073	186.13
1615.303	187.45
1618.533	187.5
1621.762	186.63
1624.992	186.91
1628.221	186.26
1631.449	186.11
1634.678	186.13
1637.906	187.01
1641.134	186.73
1644.361	186.51
1647.588	187.07
1650.815	186.05
1654.042	185.39
1657.269	187.42
1660.495	187.5
1663.72	187
1666.946	187.76
1670.171	188.19
1673.396	187.67
1676.621	188.12
1679.845	188.51
1683.069	188.44
1686.293	189.73
1689.517	190.97
1692.74	190.16
1695.963	190.28
1699.185	192.12
1702.408	192.11
1705.63	192.77
1708.852	193.2
1712.073	193.51
1715.294	193.75
1718.515	195.4
1721.736	194.75
1724.956	194.75
1728.176	194.86
1731.396	196.56
1734.616	196.28
1737.835	197.27
1741.054	195.54
1744.272	196.09
1747.491	197.81
1750.709	198.27
1753.927	197.84
1757.144	197.84
1760.361	198.9
1763.578	199.64
1766.795	199.17
1770.011	200.2
1773.227	199.86
1776.443	203.04
1779.658	203.85
1782.874	203.45
1786.089	204.17
1789.303	204.75
1792.518	207.09
1795.732	206.96
1798.945	208.4
1802.159	209.27
1805.372	209.81
1808.585	213.52
1811.797	213.83
1815.01	214.36
1818.222	216.09
1821.434	217.78
1824.645	218.65
1827.856	221.82
1831.067	223.87
1834.278	223.23
1837.488	224.57
1840.698	226.05
1843.908	224.15
1847.117	225.08
1850.326	226.3
1853.535	225.01
1856.744	228.1
1859.952	228.33
1863.16	226.66
1866.368	225.55
1869.575	228.5
1872.782	224.4
1875.989	223.57
1879.196	222.87
1882.402	221.57
1885.608	221.66
1888.814	222.53
1892.019	221.04
1895.224	219.63
1898.429	219
1901.634	219.35
1904.838	219.05
1908.042	221.36
1911.246	222.13
1914.449	223.39
1917.652	223.03
1920.855	223.23
1924.058	222.88
1927.26	221.72
1930.462	222.34
1933.664	225.16
1936.865	223.17
1940.066	222.51
1943.267	221.87
1946.467	221.11
1949.668	222.52
1952.868	225.29
1956.067	224.77
1959.267	226.22
1962.466	226.98
1965.665	226.23
1968.863	226.08
1972.061	229.96
1975.259	232.31
1978.457	234.22
1981.654	236.18
1984.852	236.21
1988.048	235.79
1991.245	238.23
1994.441	240.9
1997.637	242.2
2000.833	248.15
2004.028	250.87
2007.223	251.95
2010.418	254.33
2013.613	258.79
2016.807	261.81
2020.001	264.03
2023.194	268.37
2026.388	273.72
2029.581	280.15
2032.774	283
2035.966	287.7
2039.158	288.9
2042.35	295.96
2045.542	297.26
2048.733	301.16
2051.924	305.11
2055.115	310.44
2058.306	310.98
2061.496	314.38
2064.686	313.32
2067.875	318.93
2071.065	319.25
2074.254	317.87
2077.442	320.53
2080.631	322.35
2083.819	325.83
2087.007	326.29
2090.195	330.17
2093.382	333.21
2096.569	331.36
2099.756	336.58
2102.942	337.48
2106.128	340.81
2109.314	348.79
2112.5	347.52
2115.685	355.06
2118.87	355.53
2122.055	362.77
2125.239	365.89
2128.424	369.73
2131.608	372.02
2134.791	376.96
2137.974	378.79
2141.157	379.67
2144.34	380.78
2147.523	386.32
2150.705	383.55
2153.887	386.92
2157.068	387.51
2160.25	383.94
2163.431	386.26
2166.611	391.41
2169.792	398.04
2172.972	402.42
2176.152	404.32
2179.331	409
2182.511	415.93
2185.69	419.74
2188.868	428.96
2192.047	429.09
2195.225	441.6
2198.403	452
2201.58	460.8
2204.758	467.71
2207.935	476.3
2211.111	487.19
2214.288	492.58
2217.464	492.15
2220.64	503.23
2223.815	509.07
2226.991	530.31
2230.166	530.91
2233.34	538.94
2236.515	547.15
2239.689	548.48
2242.863	553.32
2246.036	568.21
2249.209	563.92
2252.382	574.58
2255.555	588.76
2258.727	590.55
2261.9	595.24
2265.071	601.04
2268.243	612.35
2271.414	617.5
2274.585	632.17
2277.756	637.98
2280.926	642.77
2284.096	658.41
2287.266	672.4
2290.436	677.45
2293.605	692.54
2296.774	713.2
2299.942	734.48
2303.111	739.09
2306.279	756.2
2309.447	764.79
2312.614	784.94
2315.781	804.69
2318.948	841.66
2322.115	830.23
2325.281	875.08
2328.447	857.8
2331.613	890.87
2334.779	879.97
2337.944	916.7
2341.109	926.21
2344.274	953.59
2347.438	985.97
2350.602	985.34
2353.766	1014.82
2356.929	1028.58
2360.092	1023.3
2363.255	1096.73
2366.418	1093.8
2369.58	1117.79
2372.742	1184.61
2375.904	1215.64
2379.066	1209.08
2382.227	1183.96
2385.388	1288.49
2388.548	1288.47
2391.709	1308.03
2394.869	1452.99
2398.029	1390.48
2401.188	1430.41
2404.347	1419.57
2407.506	1398.09
2410.665	1434.76
2413.823	1517.57
2416.981	1609.15
2420.139	1556.25
2423.296	1537
2426.453	1599.41
2429.61	1541.33
2432.767	1611.65
2435.923	1592.34
2439.079	1748.31
2442.235	1769.41
2445.391	1753.86
2448.546	1740.5
2451.701	1687.47
2454.855	1684.11
2458.009	1792.86
2461.163	1869.38
2464.317	1938.45
2467.471	1986.54
2470.624	1992.72
2473.777	1932.48
2476.929	1888.78
2480.082	1834.36
2483.234	1818.02
2486.385	1917.5
2489.537	1923.03
2492.688	1992.37
2495.839	1936.78
2498.989	1886.08
2502.14	1901.41
2505.29	1913.62
2508.439	1951.94
2511.589	1942.12
2514.738	2126.57
2517.887	2078.07
2521.035	2181.61
2524.183	2208.92
2527.331	2226.38
2530.479	2216.49
2533.627	2241.24
