Data from N_2_DIV_OH_2N_Splice17_13-23-43-885.txt Node
Date: Sat Mar 07 13:23:43 EST 2020
User: sa697716
Spectrometer: NQ5500242
Trigger mode: 0
Integration Time (sec): 1.450000E-1
Scans to average: 20
Nonlinearity correction enabled: false
Boxcar width: 5
Storing dark spectrum: false
XAxis mode: Wavelengths
Number of Pixels in Spectrum: 512
>>>>>Begin Spectral Data<<<<<
187.83	151.31
188.298	168.55
188.766	157.68
189.233	136.88
189.701	124.72
190.169	139.15
190.636	105.22
191.104	81.19
191.571	-234.6
192.039	-319.06
192.506	-868.47
192.974	318.31
193.441	424.14
193.908	202.96
194.375	123.99
194.842	34.49
195.31	84.11
195.777	93.24
196.244	46.51
196.711	44.61
197.177	47.77
197.644	46.09
198.111	46.06
198.578	46.29
199.045	46.93
199.511	47.03
199.978	47.33
200.445	47.36
200.911	47.2
201.378	47.38
201.844	47.4
202.31	47.08
202.777	47.42
203.243	47.56
203.709	47.38
204.176	46.87
204.642	46.69
205.108	46.28
205.574	45.97
206.04	45.63
206.506	45.23
206.972	44.87
207.438	44.38
207.903	43.44
208.369	42.2
208.835	41.47
209.301	40.8
209.766	39.43
210.232	38.49
210.697	37.28
211.163	36.23
211.628	35.15
212.094	34.23
212.559	33.5
213.024	32.94
213.49	32.38
213.955	31.51
214.42	30.75
214.885	30.08
215.35	28.83
215.815	27.4
216.28	25.53
216.745	23.44
217.21	21.38
217.675	19.27
218.14	17.51
218.604	16.06
219.069	14.81
219.534	13.74
219.998	12.9
220.463	12.22
220.927	11.61
221.392	11.12
221.856	10.75
222.32	10.38
222.785	10.12
223.249	9.83
223.713	9.61
224.177	9.4
224.642	9.22
225.106	8.99
225.57	8.77
226.034	8.62
226.497	8.47
226.961	8.29
227.425	8.15
227.889	8
228.353	7.87
228.816	7.72
229.28	7.6
229.744	7.49
230.207	7.38
230.671	7.28
231.134	7.16
231.597	7.07
232.061	6.97
232.524	6.89
232.987	6.81
233.45	6.73
233.914	6.66
234.377	6.57
234.84	6.48
235.303	6.43
235.766	6.37
236.229	6.3
236.691	6.22
237.154	6.16
237.617	6.1
238.08	6.05
238.542	5.98
239.005	5.92
239.468	5.86
239.93	5.81
240.393	5.76
240.855	5.69
241.317	5.63
241.78	5.57
242.242	5.51
242.704	5.47
243.166	5.4
243.629	5.36
244.091	5.3
244.553	5.25
245.015	5.19
245.477	5.13
245.939	5.08
246.4	5.03
246.862	5
247.324	4.96
247.786	4.92
248.247	4.87
248.709	4.81
249.17	4.75
249.632	4.72
250.093	4.69
250.555	4.65
251.016	4.62
251.477	4.59
251.939	4.55
252.4	4.51
252.861	4.47
253.322	4.45
253.783	4.42
254.244	4.4
254.705	4.36
255.166	4.33
255.627	4.31
256.088	4.29
256.549	4.26
257.009	4.22
257.47	4.2
257.931	4.15
258.391	4.11
258.852	4.07
259.312	4.04
259.773	4.01
260.233	3.98
260.694	3.94
261.154	3.9
261.614	3.87
262.074	3.83
262.534	3.79
262.994	3.77
263.455	3.75
263.915	3.72
264.374	3.69
264.834	3.67
265.294	3.64
265.754	3.62
266.214	3.6
266.673	3.58
267.133	3.57
267.593	3.56
268.052	3.55
268.512	3.54
268.971	3.52
269.431	3.51
269.89	3.5
270.349	3.49
270.809	3.48
271.268	3.47
271.727	3.45
272.186	3.44
272.645	3.43
273.104	3.41
273.563	3.39
274.022	3.38
274.481	3.37
274.94	3.37
275.399	3.35
275.857	3.34
276.316	3.33
276.775	3.32
277.233	3.32
277.692	3.31
278.15	3.31
278.609	3.31
279.067	3.31
279.525	3.3
279.984	3.29
280.442	3.28
280.9	3.28
281.358	3.28
281.816	3.28
282.274	3.27
282.732	3.27
283.19	3.26
283.648	3.24
284.106	3.23
284.564	3.22
285.021	3.22
285.479	3.22
285.937	3.2
286.394	3.19
286.852	3.18
287.309	3.17
287.767	3.15
288.224	3.13
288.682	3.12
289.139	3.11
289.596	3.09
290.053	3.07
290.511	3.05
290.968	3.04
291.425	3.02
291.882	3.01
292.339	3
292.796	2.99
293.252	2.98
293.709	2.98
294.166	2.97
294.623	2.96
295.079	2.95
295.536	2.94
295.992	2.94
296.449	2.93
296.905	2.93
297.362	2.92
297.818	2.9
298.274	2.9
298.731	2.89
299.187	2.88
299.643	2.88
300.099	2.87
300.555	2.86
301.011	2.85
301.467	2.85
301.923	2.84
302.379	2.84
302.835	2.84
303.291	2.83
303.746	2.83
304.202	2.84
304.658	2.83
305.113	2.83
305.569	2.83
306.024	2.83
306.479	2.83
306.935	2.82
307.39	2.83
307.845	2.83
308.301	2.84
308.756	2.83
309.211	2.83
309.666	2.83
310.121	2.83
310.576	2.83
311.031	2.84
311.486	2.84
311.94	2.84
312.395	2.84
312.85	2.84
313.305	2.83
313.759	2.84
314.214	2.84
314.668	2.83
315.123	2.83
315.577	2.83
316.032	2.82
316.486	2.82
316.94	2.81
317.394	2.8
317.849	2.78
318.303	2.78
318.757	2.76
319.211	2.75
319.665	2.74
320.119	2.72
320.572	2.71
321.026	2.7
321.48	2.7
321.934	2.68
322.387	2.67
322.841	2.67
323.295	2.67
323.748	2.67
324.202	2.67
324.655	2.67
325.108	2.68
325.562	2.68
326.015	2.68
326.468	2.67
326.921	2.68
327.374	2.68
327.827	2.69
328.28	2.68
328.733	2.69
329.186	2.69
329.639	2.69
330.092	2.68
330.545	2.68
330.997	2.68
331.45	2.69
331.903	2.69
332.355	2.7
332.808	2.7
333.26	2.7
333.713	2.69
334.165	2.69
334.617	2.69
335.069	2.68
335.522	2.69
335.974	2.69
336.426	2.7
336.878	2.69
337.33	2.68
337.782	2.68
338.234	2.69
338.686	2.68
339.137	2.69
339.589	2.68
340.041	2.68
340.493	2.66
340.944	2.65
341.396	2.63
341.847	2.63
342.299	2.61
342.75	2.6
343.201	2.59
343.653	2.58
344.104	2.56
344.555	2.56
345.006	2.55
345.457	2.54
345.908	2.54
346.359	2.54
346.81	2.54
347.261	2.53
347.712	2.53
348.163	2.53
348.613	2.53
349.064	2.52
349.515	2.52
349.965	2.52
350.416	2.51
350.866	2.51
351.317	2.5
351.767	2.5
352.217	2.5
352.668	2.5
353.118	2.5
353.568	2.5
354.018	2.5
354.468	2.51
354.918	2.52
355.368	2.52
355.818	2.52
356.268	2.52
356.718	2.53
357.168	2.53
357.617	2.53
358.067	2.53
358.517	2.54
358.966	2.54
359.416	2.54
359.865	2.53
360.315	2.53
360.764	2.53
361.213	2.52
361.663	2.52
362.112	2.52
362.561	2.53
363.01	2.53
363.459	2.52
363.908	2.52
364.357	2.52
364.806	2.53
365.255	2.52
365.703	2.54
366.152	2.54
366.601	2.56
367.05	2.57
367.498	2.56
367.947	2.57
368.395	2.58
368.844	2.58
369.292	2.58
369.74	2.58
370.189	2.59
370.637	2.59
371.085	2.59
371.533	2.59
371.981	2.58
372.429	2.59
372.877	2.59
373.325	2.6
373.773	2.6
374.221	2.61
374.669	2.61
375.116	2.62
375.564	2.62
376.012	2.63
376.459	2.65
376.907	2.66
377.354	2.68
377.801	2.7
378.249	2.71
378.696	2.72
379.143	2.74
379.591	2.75
380.038	2.77
380.485	2.78
380.932	2.79
381.379	2.81
381.826	2.82
382.273	2.83
382.72	2.84
383.166	2.84
383.613	2.85
384.06	2.86
384.506	2.86
384.953	2.88
385.4	2.89
385.846	2.91
386.292	2.92
386.739	2.91
387.185	2.93
387.631	2.95
388.078	2.97
388.524	2.99
388.97	3
389.416	3.02
389.862	3.04
390.308	3.05
390.754	3.08
391.2	3.1
391.645	3.12
392.091	3.15
392.537	3.17
392.983	3.19
393.428	3.21
393.874	3.24
394.319	3.26
394.765	3.27
395.21	3.29
395.655	3.3
396.101	3.32
396.546	3.33
396.991	3.35
397.436	3.36
397.881	3.38
398.326	3.4
398.771	3.42
399.216	3.43
399.661	3.45
400.106	3.46
400.551	3.46
400.995	3.47
401.44	3.48
401.885	3.48
402.329	3.49
402.774	3.49
403.218	3.51
403.663	3.52
404.107	3.52
404.551	3.53
404.995	3.53
405.44	3.54
405.884	3.54
406.328	3.55
406.772	3.55
407.216	3.55
407.66	3.55
408.104	3.53
408.547	3.54
408.991	3.55
409.435	3.55
409.879	3.56
410.322	3.57
410.766	3.59
411.209	3.61
411.653	3.62
412.096	3.64
412.54	3.65
412.983	3.66
413.426	3.68
413.869	3.7
414.312	3.73
414.756	3.74
415.199	3.75
415.642	3.74
416.085	3.73
416.527	3.73
416.97	3.73
417.413	3.73
417.856	3.71
418.298	3.69
418.741	3.68
419.184	3.67
419.626	3.67
420.069	3.67
420.511	3.67
420.953	3.68
421.396	3.7
421.838	3.71
422.28	3.72
422.722	3.75
423.164	3.75
423.606	3.77
424.048	3.76
424.49	3.77
424.932	3.76
425.374	3.75
425.816	3.72
426.258	3.7
426.699	3.69
427.141	3.68
427.582	3.68
428.024	3.69
428.465	3.7
428.907	3.7
429.348	3.69
429.789	3.7
430.231	3.71
430.672	3.73
431.113	3.76
431.554	3.77
431.995	3.78
432.436	3.79
432.877	3.8
433.318	3.81
433.759	3.84
434.2	3.87
434.64	3.89
435.081	3.9
435.522	3.92
435.962	3.93
436.403	3.96
436.843	3.97
437.284	3.96
437.724	3.97
438.164	3.96
438.604	3.95
439.045	3.94
439.485	3.95
439.925	3.96
440.365	3.95
440.805	3.95
441.245	3.94
441.685	3.96
442.125	3.98
442.564	3.98
443.004	3.99
443.444	4.02
443.883	4.04
444.323	4.03
444.762	4.04
445.202	4.05
445.641	4.06
446.081	4.08
446.52	4.07
446.959	4.08
447.398	4.09
447.837	4.11
448.276	4.1
448.716	4.11
449.154	4.14
449.593	4.14
450.032	4.15
450.471	4.14
450.91	4.14
451.349	4.16
451.787	4.13
452.226	4.12
452.664	4.1
453.103	4.09
453.541	4.08
453.98	4.08
454.418	4.06
454.856	4.05
455.295	4.03
455.733	4.01
456.171	3.99
456.609	4
457.047	3.99
457.485	3.99
457.923	3.98
458.361	3.97
458.798	3.96
459.236	3.96
459.674	3.95
460.111	3.96
460.549	3.98
460.987	3.99
461.424	3.99
461.862	4.01
462.299	4.01
462.736	4.01
463.173	4
463.611	4.01
464.048	4.02
464.485	4.03
464.922	4.03
465.359	4.03
465.796	4.04
466.233	4.04
466.67	4.03
467.106	4.04
467.543	4.03
467.98	4.04
468.416	4.03
468.853	4.03
469.29	4.02
469.726	4.02
470.162	4.01
470.599	4
471.035	3.99
471.471	3.98
471.907	3.97
472.344	3.98
472.78	3.98
473.216	3.98
473.652	3.98
474.088	3.97
474.523	3.97
474.959	3.98
475.395	3.96
475.831	3.95
476.266	3.94
476.702	3.94
477.138	3.92
477.573	3.9
478.008	3.9
478.444	3.88
478.879	3.88
479.314	3.86
479.75	3.85
480.185	3.85
480.62	3.84
481.055	3.82
481.49	3.82
481.925	3.82
482.36	3.81
482.795	3.8
483.229	3.79
483.664	3.79
484.099	3.77
484.534	3.77
484.968	3.77
485.403	3.77
485.837	3.78
486.271	3.79
486.706	3.79
487.14	3.79
487.574	3.8
488.009	3.81
488.443	3.82
488.877	3.84
489.311	3.86
489.745	3.87
490.179	3.89
490.613	3.91
491.046	3.92
491.48	3.94
491.914	3.97
492.348	4
492.781	4.03
493.215	4.06
493.648	4.09
494.082	4.12
494.515	4.16
494.948	4.2
495.382	4.23
495.815	4.27
496.248	4.32
496.681	4.37
497.114	4.42
497.547	4.47
497.98	4.52
498.413	4.57
498.846	4.64
499.279	4.69
499.711	4.75
500.144	4.83
500.577	4.9
501.009	4.97
501.442	5.05
501.874	5.14
502.306	5.22
502.739	5.32
503.171	5.42
503.603	5.52
504.036	5.63
504.468	5.74
504.9	5.85
505.332	5.96
505.764	6.09
506.196	6.22
506.627	6.36
507.059	6.5
507.491	6.64
507.923	6.8
508.354	6.97
508.786	7.14
509.217	7.32
509.649	7.49
510.08	7.68
510.512	7.87
510.943	8.07
511.374	8.27
511.805	8.48
512.237	8.69
512.668	8.9
513.099	9.11
513.53	9.33
513.961	9.56
514.391	9.81
514.822	10.05
515.253	10.27
515.684	10.5
516.114	10.74
516.545	10.98
516.975	11.23
517.406	11.49
517.836	11.74
518.267	12
518.697	12.24
519.127	12.47
519.558	12.72
519.988	13
520.418	13.25
520.848	13.5
521.278	13.75
521.708	14.15
522.138	14.39
522.567	14.62
522.997	14.84
523.427	15.07
523.857	15.29
524.286	15.49
524.716	15.68
525.145	15.89
525.575	16.08
526.004	16.28
526.433	16.31
526.863	16.48
527.292	16.65
527.721	16.82
528.15	16.98
528.579	17.15
529.008	17.31
529.437	17.45
529.866	17.58
530.295	17.72
530.724	17.83
531.152	17.95
531.581	18.08
532.01	18.19
532.438	18.3
532.867	18.39
533.295	18.48
533.723	18.57
534.152	18.66
534.58	18.75
535.008	18.81
535.436	18.88
535.865	18.94
536.293	18.99
536.721	19.04
537.149	19.09
537.576	19.14
538.004	19.19
538.432	19.24
538.86	19.28
539.287	19.3
539.715	19.35
540.143	19.38
540.57	19.42
540.998	19.46
541.425	19.5
541.852	19.54
542.28	19.58
542.707	19.59
543.134	19.61
543.561	19.65
543.988	19.68
544.415	19.7
544.842	19.72
545.269	19.77
545.696	19.79
546.123	19.81
546.549	19.83
546.976	19.86
547.403	19.9
547.829	19.91
548.256	19.92
548.682	19.93
549.108	19.96
549.535	19.97
549.961	19.96
550.387	19.95
550.813	19.96
551.24	19.94
551.666	19.91
552.092	19.89
552.518	19.89
552.943	19.87
553.369	19.86
553.795	19.83
554.221	19.82
554.646	19.79
555.072	19.77
555.498	19.71
555.923	19.68
556.349	19.63
556.774	19.58
557.199	19.51
557.625	19.45
558.05	19.38
558.475	19.31
558.9	19.23
559.325	19.15
559.75	19.06
560.175	18.99
560.6	18.89
561.025	18.8
561.449	18.71
561.874	18.6
562.299	18.49
562.723	18.38
563.148	18.27
563.572	18.14
563.997	18.02
564.421	17.88
564.846	17.73
565.27	17.61
565.694	17.49
566.118	17.35
566.542	17.22
566.966	17.08
567.39	16.94
567.814	16.8
568.238	16.66
568.662	16.52
569.086	16.39
569.509	16.27
569.933	16.14
570.357	15.99
570.78	15.84
571.204	15.72
571.627	15.6
572.05	15.47
572.474	15.34
572.897	15.24
573.32	15.12
573.743	15.01
574.166	14.9
574.589	14.78
575.012	14.67
575.435	14.58
575.858	14.48
576.281	14.39
576.704	14.29
577.126	14.2
577.549	14.11
577.972	14.02
578.394	13.94
578.817	13.86
579.239	13.78
579.661	13.71
580.084	13.63
580.506	13.54
580.928	13.46
581.35	13.39
581.772	13.32
582.194	13.25
582.616	13.18
583.038	13.11
583.46	13.03
583.882	12.97
584.303	12.89
584.725	12.82
585.147	12.76
585.568	12.71
585.99	12.66
586.411	12.59
586.833	12.54
587.254	12.47
587.675	12.42
588.096	12.37
588.518	12.32
588.939	12.29
589.36	12.25
589.781	12.21
590.202	12.17
590.623	12.13
591.043	12.09
591.464	12.06
591.885	12.03
592.305	11.99
592.726	11.96
593.147	11.93
593.567	11.89
593.987	11.85
594.408	11.81
594.828	11.77
595.248	11.74
595.669	11.71
596.089	11.67
596.509	11.64
596.929	11.62
597.349	11.58
597.769	11.55
598.189	11.51
598.608	11.48
599.028	11.46
599.448	11.42
599.867	11.38
600.287	11.35
600.706	11.31
601.126	11.26
601.545	11.22
601.965	11.19
602.384	11.15
602.803	11.11
603.222	11.07
603.641	11.02
604.061	10.98
604.48	10.93
604.898	10.86
605.317	10.82
605.736	10.78
606.155	10.73
606.574	10.67
606.992	10.61
607.411	10.56
607.829	10.48
608.248	10.41
608.666	10.35
609.085	10.29
609.503	10.24
609.921	10.18
610.339	10.12
610.758	10.06
611.176	9.98
611.594	9.93
612.012	9.86
612.43	9.82
612.847	9.76
613.265	9.7
613.683	9.64
614.101	9.58
614.518	9.52
614.936	9.45
615.353	9.38
615.771	9.33
616.188	9.27
616.606	9.22
617.023	9.18
617.44	9.14
617.857	9.09
618.274	9.05
618.691	8.99
619.108	8.95
619.525	8.91
619.942	8.89
620.359	8.86
620.776	8.85
621.192	8.81
621.609	8.79
622.026	8.77
622.442	8.75
622.859	8.73
623.275	8.73
623.691	8.72
624.108	8.71
624.524	8.68
624.94	8.67
625.356	8.66
625.772	8.65
626.188	8.63
626.604	8.61
627.02	8.61
627.436	8.6
627.852	8.58
628.268	8.58
628.683	8.59
629.099	8.58
629.514	8.57
629.93	8.55
630.345	8.52
630.761	8.49
631.176	8.47
631.591	8.45
632.007	8.42
632.422	8.38
632.837	8.33
633.252	8.28
633.667	8.22
634.082	8.16
634.497	8.09
634.911	8.03
635.326	7.97
635.741	7.9
636.155	7.81
636.57	7.73
636.984	7.64
637.399	7.55
637.813	7.47
638.228	7.37
638.642	7.26
639.056	7.17
639.47	7.08
639.884	6.99
640.298	6.89
640.712	6.79
641.126	6.71
641.54	6.6
641.954	6.52
642.368	6.43
642.781	6.36
643.195	6.28
643.609	6.2
644.022	6.11
644.436	6.04
644.849	5.96
645.262	5.9
645.676	5.83
646.089	5.77
646.502	5.71
646.915	5.66
647.328	5.6
647.741	5.57
648.154	5.52
648.567	5.5
648.98	5.46
649.393	5.44
649.805	5.42
650.218	5.39
650.631	5.36
651.043	5.34
651.456	5.33
651.868	5.3
652.28	5.27
652.693	5.24
653.105	5.21
653.517	5.18
653.929	5.16
654.341	5.12
654.753	5.09
655.165	5.05
655.577	5.02
655.989	4.97
656.401	4.94
656.813	4.91
657.224	4.86
657.636	4.81
658.047	4.77
658.459	4.72
658.87	4.66
659.282	4.61
659.693	4.57
660.104	4.52
660.515	4.47
660.926	4.41
661.338	4.35
661.749	4.31
662.159	4.27
662.57	4.23
662.981	4.18
663.392	4.14
663.803	4.1
664.213	4.05
664.624	4.02
665.035	4
665.445	3.98
665.855	3.96
666.266	3.94
666.676	3.93
667.086	3.91
667.497	3.9
667.907	3.9
668.317	3.9
668.727	3.9
669.137	3.91
669.547	3.91
669.956	3.92
670.366	3.92
670.776	3.94
671.186	3.94
671.595	3.95
672.005	3.95
672.414	3.96
672.824	3.97
673.233	3.99
673.642	4.01
674.052	4.02
674.461	4.03
674.87	4.04
675.279	4.07
675.688	4.1
676.097	4.14
676.506	4.17
676.915	4.2
677.323	4.24
677.732	4.27
678.141	4.3
678.549	4.33
678.958	4.37
679.366	4.42
679.775	4.46
680.183	4.51
680.592	4.56
681	4.62
681.408	4.69
681.816	4.75
682.224	4.84
682.632	4.93
683.04	5.01
683.448	5.12
683.856	5.22
684.264	5.34
684.671	5.47
685.079	5.61
685.487	5.77
685.894	5.94
686.302	6.14
686.709	6.35
687.116	6.58
687.524	6.85
687.931	7.13
688.338	7.44
688.745	7.77
689.152	8.11
689.559	8.49
689.966	8.89
690.373	9.31
690.78	9.75
691.187	10.2
691.593	10.67
692	11.15
692.407	11.64
692.813	12.14
693.22	12.65
693.626	13.18
694.032	13.71
694.439	14.25
694.845	14.79
695.251	15.32
695.657	15.86
696.063	16.41
696.469	16.97
696.875	17.53
697.281	18.07
697.687	18.62
698.093	19.16
698.498	19.7
698.904	20.24
699.31	20.75
699.715	21.31
700.12	21.82
700.526	22.34
700.931	22.85
701.337	23.32
701.742	23.81
702.147	24.3
702.552	24.79
702.957	25.24
703.362	25.68
703.767	26.14
704.172	26.57
704.577	27.02
704.981	27.46
705.386	27.89
705.791	28.31
706.195	28.74
706.6	29.17
707.004	29.58
707.408	29.99
707.813	30.41
708.217	30.79
708.621	31.18
709.025	31.56
709.43	31.91
709.834	32.28
710.237	32.67
710.641	33.02
711.045	33.35
711.449	33.7
711.853	34.05
712.256	34.37
712.66	34.71
713.064	35.04
713.467	35.37
713.87	35.71
714.274	36
714.677	36.29
715.08	36.57
715.484	36.87
715.887	37.18
716.29	37.47
716.693	37.77
717.096	38.03
717.499	38.3
717.901	38.54
718.304	38.79
718.707	39.04
719.109	39.28
719.512	39.54
719.915	39.78
720.317	39.97
720.719	40.17
721.122	40.37
721.524	40.61
721.926	40.84
722.328	41.06
722.731	41.26
723.133	41.46
723.535	41.65
723.937	41.82
724.338	42
724.74	42.18
725.142	42.47
725.544	42.63
725.945	42.8
726.347	42.92
726.748	43.07
727.15	43.2
727.551	43.37
727.952	43.51
728.354	43.66
728.755	43.8
729.156	43.92
729.557	43.93
729.958	44.04
730.359	44.14
730.76	44.26
731.161	44.36
731.562	44.48
731.962	44.55
732.363	44.65
732.763	44.73
733.164	44.81
733.564	44.92
733.965	45
734.365	45.07
734.766	45.14
735.166	45.21
735.566	45.28
735.966	45.34
736.366	45.41
736.766	45.48
737.166	45.56
737.566	45.6
737.966	45.67
738.365	45.73
738.765	45.8
739.165	45.86
739.564	45.91
739.964	45.96
740.363	46.02
740.763	46.06
741.162	46.1
741.561	46.1
741.96	46.14
742.36	46.15
742.759	46.18
743.158	46.21
743.557	46.2
743.955	46.23
744.354	46.25
744.753	46.26
745.152	46.31
745.55	46.32
745.949	46.35
746.348	46.37
746.746	46.38
747.144	46.42
747.543	46.42
747.941	46.48
748.339	46.48
748.737	46.49
749.136	46.5
749.534	46.47
749.932	46.48
750.33	46.5
750.727	46.52
751.125	46.54
751.523	46.53
751.921	46.57
752.318	46.58
752.716	46.59
753.113	46.6
753.511	46.61
753.908	46.66
754.305	46.69
754.703	46.7
755.1	46.72
755.497	46.73
755.894	46.75
756.291	46.74
756.688	46.72
757.085	46.74
757.482	46.76
757.878	46.78
758.275	46.76
758.672	46.74
759.068	46.78
759.465	46.77
759.861	46.76
760.258	46.78
760.654	46.78
761.05	46.81
761.447	46.83
761.843	46.8
762.239	46.8
762.635	46.81
763.031	46.8
763.427	46.76
763.822	46.77
764.218	46.76
764.614	46.75
765.01	46.72
765.405	46.69
765.801	46.66
766.196	46.68
766.592	46.65
766.987	46.66
767.382	46.68
767.778	46.71
768.173	46.69
768.568	46.69
768.963	46.68
769.358	46.72
769.753	46.73
770.148	46.72
770.542	46.71
770.937	46.75
771.332	46.73
771.726	46.73
772.121	46.72
772.515	46.73
772.91	46.73
773.304	46.76
773.699	46.75
774.093	46.74
774.487	46.75
774.881	46.77
775.275	46.73
775.669	46.73
776.063	46.72
776.457	46.7
776.851	46.68
777.245	46.67
777.638	46.64
778.032	46.65
778.425	46.68
778.819	46.67
779.212	46.67
779.606	46.69
779.999	46.69
780.392	46.71
780.786	46.72
781.179	46.74
781.572	46.76
781.965	46.8
782.358	46.81
782.751	46.78
783.143	46.81
783.536	46.79
783.929	46.79
784.322	46.81
784.714	46.83
785.107	46.86
785.499	46.88
785.891	46.89
786.284	46.91
786.676	46.89
787.068	46.9
787.46	46.91
787.852	46.93
788.245	46.92
788.636	46.91
789.028	46.91
789.42	46.9
789.812	46.89
790.204	46.9
790.595	46.86
790.987	46.88
791.378	46.91
791.77	46.92
792.161	46.92
792.553	46.93
792.944	46.94
793.335	46.93
793.726	46.94
794.117	46.93
794.508	46.92
794.899	46.93
795.29	46.92
795.681	46.88
796.072	46.85
796.463	46.89
796.853	46.87
797.244	46.87
797.634	46.88
798.025	46.88
798.415	46.88
798.806	46.88
799.196	46.9
799.586	46.91
799.976	46.95
800.366	46.95
800.756	46.92
801.146	46.96
801.536	46.96
801.926	46.94
802.316	46.93
802.706	46.95
803.095	46.97
803.485	46.96
803.874	46.93
804.264	46.89
804.653	46.9
805.043	46.91
805.432	46.89
805.821	46.9
806.21	46.92
806.599	46.92
806.988	46.91
807.377	46.89
807.766	46.9
808.155	46.88
808.544	46.92
808.933	46.92
809.321	46.92
809.71	46.95
810.098	46.95
810.487	46.92
810.875	46.92
811.264	46.91
811.652	46.97
812.04	46.95
812.428	46.99
812.816	46.96
813.204	46.94
813.592	46.92
813.98	46.9
814.368	46.9
814.756	46.93
815.144	46.93
815.531	46.92
815.919	46.88
816.306	46.89
816.694	46.87
817.081	46.89
817.469	46.91
817.856	46.9
818.243	46.89
818.63	46.87
819.017	46.85
819.404	46.84
819.791	46.84
820.178	46.84
820.565	46.82
820.952	46.82
821.339	46.8
821.725	46.82
822.112	46.87
822.498	46.89
822.885	46.92
823.271	46.92
823.657	46.9
824.044	46.93
824.43	46.96
824.816	46.97
825.202	46.98
825.588	47
825.974	46.96
826.36	46.94
826.746	46.92
827.132	46.91
827.517	46.94
827.903	46.97
828.289	46.96
828.674	46.94
829.06	46.94
829.445	46.94
829.83	46.93
830.216	46.94
830.601	46.94
830.986	46.94
831.371	46.93
831.756	46.91
832.141	46.91
832.526	46.91
832.911	46.91
833.295	46.91
833.68	46.93
834.065	46.94
834.449	46.94
834.834	46.94
835.218	46.94
835.603	46.95
835.987	46.93
836.371	46.92
836.755	46.91
837.139	46.9
837.524	46.89
837.908	46.9
838.291	46.91
838.675	46.89
839.059	46.92
839.443	46.9
839.827	46.89
840.21	46.88
840.594	46.9
840.977	46.89
841.361	46.9
841.744	46.87
842.127	46.85
842.511	46.83
842.894	46.83
843.277	46.8
843.66	46.78
844.043	46.8
844.426	46.82
844.809	46.81
845.191	46.83
845.574	46.82
845.957	46.83
846.339	46.82
846.722	46.81
847.104	46.8
847.487	46.8
847.869	46.81
848.252	46.81
848.634	46.79
849.016	46.8
849.398	46.8
849.78	46.82
850.162	46.82
850.544	46.85
850.926	46.86
851.307	46.87
851.689	46.91
852.071	46.91
852.452	46.92
852.834	46.94
853.215	46.92
853.597	46.93
853.978	46.91
854.359	46.91
854.741	46.89
855.122	46.88
855.503	46.87
855.884	46.82
856.265	46.83
856.646	46.8
857.026	46.8
857.407	46.82
857.788	46.82
858.169	46.85
858.549	46.85
858.93	46.85
859.31	46.86
859.69	46.88
860.071	46.9
860.451	46.9
860.831	46.91
861.211	46.92
861.591	46.91
861.971	46.89
862.351	46.91
862.731	46.93
863.111	46.92
863.491	46.93
863.87	46.92
864.25	46.93
864.629	46.93
865.009	46.93
865.388	46.9
865.768	46.93
866.147	46.94
866.526	46.93
866.905	46.91
867.284	46.93
867.663	46.94
868.042	46.94
868.421	46.95
868.8	46.98
869.179	46.99
869.558	47.01
869.936	46.98
870.315	46.96
870.693	46.95
871.072	46.98
871.45	46.97
871.828	46.99
872.207	47
872.585	46.99
872.963	46.96
873.341	46.96
873.719	46.94
874.097	46.96
874.475	46.99
874.853	46.98
875.23	46.99
875.608	46.97
875.986	46.98
876.363	46.96
876.741	46.98
877.118	46.98
877.495	46.96
877.873	46.99
878.25	46.99
878.627	47
879.004	47.01
879.381	46.99
879.758	46.99
880.135	46.94
880.512	46.92
880.889	46.91
881.265	46.91
881.642	46.94
882.019	46.93
882.395	46.91
882.772	46.9
883.148	46.87
883.524	46.86
883.901	46.87
884.277	46.87
884.653	46.85
885.029	46.85
885.405	46.85
885.781	46.84
886.157	46.83
886.532	46.83
886.908	46.81
887.284	46.84
887.659	46.84
888.035	46.8
888.411	46.8
888.786	46.81
889.161	46.8
889.537	46.8
889.912	46.77
890.287	46.77
890.662	46.74
891.037	46.74
891.412	46.7
891.787	46.66
892.162	46.68
892.536	46.68
892.911	46.66
893.286	46.65
893.66	46.63
894.035	46.66
894.409	46.66
894.784	46.68
895.158	46.69
895.532	46.72
895.906	46.75
896.281	46.77
896.655	46.77
897.029	46.81
897.402	46.82
897.776	46.85
898.15	46.81
898.524	46.81
898.898	46.81
899.271	46.81
899.645	46.8
900.018	46.82
900.392	46.81
900.765	46.81
901.138	46.79
901.511	46.79
901.884	46.76
902.258	46.8
902.631	46.79
903.003	46.79
903.376	46.79
903.749	46.8
904.122	46.79
904.495	46.8
904.867	46.82
905.24	46.84
905.612	46.85
905.985	46.85
906.357	46.86
906.729	46.88
907.102	46.93
907.474	46.93
907.846	46.93
908.218	46.94
908.59	46.96
908.962	46.95
909.334	46.95
909.705	46.95
910.077	46.99
910.449	46.98
910.82	46.98
911.192	46.95
911.563	46.97
911.935	46.93
912.306	46.96
912.677	46.93
913.048	46.98
913.419	46.96
913.79	46.97
914.161	46.96
914.532	46.94
914.903	46.95
915.274	46.96
915.645	46.98
916.015	47.03
916.386	47
916.756	47.03
917.127	47.02
917.497	47.06
917.868	47.06
918.238	47.08
918.608	47.14
918.978	47.13
919.348	47.14
919.718	47.13
920.088	47.13
920.458	47.16
920.828	47.13
921.198	47.06
921.567	47.04
921.937	47.04
922.306	46.99
922.676	46.95
923.045	46.95
923.415	46.92
923.784	46.89
924.153	46.89
924.522	46.88
924.891	46.91
925.26	46.95
925.629	46.97
925.998	46.95
926.367	46.96
926.736	46.97
927.104	46.99
927.473	46.98
927.842	46.97
928.21	46.97
928.578	46.94
928.947	46.94
929.315	46.88
929.683	46.83
930.051	46.82
930.42	46.82
930.788	46.8
931.156	46.78
931.523	46.8
931.891	46.83
932.259	46.82
932.627	46.82
932.994	46.81
933.362	46.83
933.729	46.86
934.097	46.88
934.464	46.91
934.831	46.93
935.199	46.92
935.566	46.89
935.933	46.84
936.3	46.79
936.667	46.77
937.034	46.77
937.401	46.83
937.767	46.8
938.134	46.77
938.501	46.8
938.867	46.8
939.234	46.83
939.6	46.83
939.967	46.86
940.333	46.88
940.699	46.92
941.065	46.9
941.431	46.83
941.798	46.82
942.163	46.83
942.529	46.74
942.895	46.75
943.261	46.66
943.627	46.67
943.992	46.73
944.358	46.72
944.723	46.72
945.089	46.64
945.454	46.66
945.82	46.65
946.185	46.66
946.55	46.61
946.915	46.6
947.28	46.58
947.645	46.58
948.01	46.55
948.375	46.52
948.74	46.48
949.104	46.56
949.469	46.5
949.834	46.48
950.198	46.49
950.562	46.52
950.927	46.46
951.291	46.43
951.655	46.33
952.02	46.31
952.384	46.25
952.748	46.24
953.112	46.21
953.476	46.22
953.839	46.17
954.203	46.13
954.567	46.08
954.931	46.06
955.294	46.11
955.658	46.17
956.021	46.11
956.385	46.12
956.748	46.07
957.111	46.03
957.474	46.02
957.837	46.01
958.2	46
958.563	46.02
958.926	46.05
959.289	46.03
959.652	45.99
960.015	45.99
960.377	46.02
960.74	46.06
961.102	46.12
961.465	46.18
961.827	46.27
962.189	46.24
962.552	46.21
962.914	46.17
963.276	46.21
963.638	46.22
964	46.27
964.362	46.31
964.724	46.26
965.085	46.22
965.447	46.11
965.809	46.08
966.17	46.08
966.532	46.16
966.893	46.23
967.255	46.22
967.616	46.19
967.977	46.18
968.338	46.14
968.699	46.2
969.061	46.18
969.421	46.24
969.782	46.29
970.143	46.28
970.504	46.24
970.865	46.19
971.225	46.15
971.586	46.17
971.946	46.12
972.307	46.16
972.667	46.14
973.027	46.18
973.388	46.21
973.748	46.17
974.108	46.28
974.468	46.27
974.828	46.33
975.188	46.34
975.548	46.31
975.907	46.33
976.267	46.29
976.627	46.28
976.986	46.18
977.346	46.08
977.705	46.05
978.064	46.01
978.424	46.03
978.783	45.95
979.142	45.96
979.501	46.01
979.86	46.11
980.219	46.11
980.578	46.22
980.937	46.36
981.296	46.4
981.654	46.46
982.013	46.45
982.371	46.39
982.73	46.45
983.088	46.48
983.447	46.52
983.805	46.43
984.163	46.43
984.521	46.29
984.879	46.19
985.237	46.25
985.595	46.21
985.953	46.23
986.311	46.25
986.669	46.17
987.026	46.14
987.384	46.11
987.741	46.12
988.099	46.21
988.456	46.21
988.814	46.27
989.171	46.2
989.528	46.19
989.885	46.23
990.242	46.35
990.599	46.44
990.956	46.55
991.313	46.55
991.67	46.53
992.027	46.56
992.383	46.59
992.74	46.65
993.096	46.65
993.453	46.65
993.809	46.61
994.165	46.57
994.522	46.6
994.878	46.51
995.234	46.53
995.59	46.55
995.946	46.54
996.302	46.61
996.658	46.59
997.013	46.67
997.369	46.81
997.725	46.78
998.08	46.8
998.436	46.76
998.791	46.91
999.147	46.91
999.502	46.97
999.857	46.89
1000.212	46.82
1000.567	46.76
1000.922	46.74
1001.277	46.61
1001.632	46.66
1001.987	46.65
1002.342	46.59
1002.696	46.43
1003.051	46.55
1003.406	46.64
1003.76	46.67
1004.114	46.68
1004.469	46.77
1004.823	47.08
1005.177	47.18
1005.531	47.18
1005.885	47.2
1006.239	47.27
1006.593	47.48
1006.947	47.34
1007.301	47.2
1007.655	47.19
1008.008	47.37
1008.362	47.46
1008.715	47.2
1009.069	47.3
1009.422	47.33
1009.776	47.29
1010.129	47.36
1010.482	47.29
1010.835	47.46
1011.188	47.55
1011.541	47.58
1011.894	47.48
1012.247	47.35
1012.6	47.49
1012.952	47.4
1013.305	47.48
1013.657	47.61
1014.01	47.78
1014.362	47.87
1014.715	47.96
1015.067	47.92
1015.419	48.1
1015.771	48.09
1016.123	48.33
1016.475	48.4
1016.827	48.46
1017.179	48.47
1017.531	48.33
1017.883	48.23
1018.234	48.32
1018.586	48.41
1018.938	48.71
1019.289	48.74
1019.64	48.78
1019.992	48.6
1020.343	48.39
1020.694	48.26
1021.045	48.07
1021.396	48.23
1021.747	48.36
1022.098	48.42
1022.449	48.17
1022.8	48.06
1023.151	47.93
1023.501	48.25
1023.852	48.21
1024.202	48.28
1024.553	48.14
1024.903	48.42
1025.253	48.34
1025.604	48.22
1025.954	47.91
1026.304	48.19
1026.654	48.04
1027.004	48.16
1027.354	47.9
1027.703	47.99
1028.053	47.91
1028.403	48.42
1028.753	48.26
1029.102	48.54
1029.452	48.64
1029.801	48.81
1030.15	48.56
1030.499	48.65
897.758	1390.44
901.051	1401.69
904.343	1395.31
907.636	1419.11
910.928	1379.09
914.22	1382.33
917.511	1363.24
920.803	1307.71
924.094	1301.74
927.384	1267.73
930.675	1219.91
933.965	1213.51
937.255	1137.81
940.544	1092.02
943.834	1040.98
947.123	1033.95
950.411	971.25
953.7	950.08
956.988	898.66
960.276	862.64
963.563	851.08
966.851	818.28
970.138	810.44
973.424	786.88
976.711	794.33
979.997	753.27
983.283	748.06
986.568	732.14
989.853	710.54
993.138	697.86
996.423	669.65
999.708	650.37
1002.992	644.75
1006.275	616.66
1009.559	610.4
1012.842	586.83
1016.125	571.94
1019.408	561.88
1022.69	553.54
1025.972	542.44
1029.254	529.95
1032.536	521.87
1035.817	509.54
1039.098	502.74
1042.379	492.52
1045.659	488.29
1048.939	476.28
1052.219	465.93
1055.498	459.18
1058.778	449.38
1062.057	438.06
1065.335	432.7
1068.614	428.61
1071.892	424.39
1075.17	410.33
1078.447	402.41
1081.724	399.01
1085.001	396.55
1088.278	388.35
1091.554	381.07
1094.83	381.44
1098.106	379.56
1101.382	376.31
1104.657	373.07
1107.932	367.11
1111.206	369.74
1114.481	360.21
1117.755	356.8
1121.029	353.7
1124.302	354.95
1127.575	346.96
1130.848	342.52
1134.121	339.13
1137.393	336.94
1140.665	329.6
1143.937	328.13
1147.208	325.87
1150.48	325.21
1153.75	320.54
1157.021	315.43
1160.291	315.09
1163.561	312.47
1166.831	313.35
1170.101	310.44
1173.37	310.03
1176.639	310.74
1179.907	308.31
1183.176	303.89
1186.444	304.1
1189.711	304
1192.979	303.61
1196.246	301.21
1199.513	301.86
1202.78	299.38
1206.046	299.62
1209.312	296.35
1212.578	296.8
1215.843	298.87
1219.108	297.11
1222.373	303.31
1225.638	305.36
1228.902	309.28
1232.166	309.6
1235.43	312.86
1238.693	316.35
1241.956	318.49
1245.219	323.52
1248.482	323.35
1251.744	322.86
1255.006	324.73
1258.268	316.12
1261.529	312.79
1264.79	310.69
1268.051	309.08
1271.312	305.11
1274.572	301.49
1277.832	298.36
1281.092	294.35
1284.351	291.9
1287.61	291.63
1290.869	287.49
1294.128	285.7
1297.386	286.04
1300.644	282.38
1303.902	283.25
1307.159	283.11
1310.416	282.66
1313.673	282.19
1316.93	284.42
1320.186	285.23
1323.442	286.25
1326.697	291.09
1329.953	292.44
1333.208	293.6
1336.463	297.54
1339.717	297.8
1342.972	300.48
1346.226	303.51
1349.479	304.03
1352.733	305.63
1355.986	306.51
1359.238	306.49
1362.491	307.52
1365.743	310.41
1368.995	310.82
1372.247	309.02
1375.498	309.31
1378.749	311.59
1382	308.3
1385.251	309.43
1388.501	307.75
1391.751	309.08
1395	307.09
1398.25	305.15
1401.499	303.38
1404.748	302.26
1407.996	301.13
1411.244	299.77
1414.492	297.27
1417.74	294.6
1420.987	290.06
1424.234	290.11
1427.481	286.07
1430.728	286.18
1433.974	283.16
1437.22	280.85
1440.465	280.08
1443.711	277.79
1446.956	275.6
1450.201	272.67
1453.445	270.68
1456.689	269.78
1459.933	264.61
1463.177	262.84
1466.42	258.24
1469.663	255.36
1472.906	253.4
1476.148	247.65
1479.391	244.72
1482.633	242.69
1485.874	238.81
1489.115	236.65
1492.356	233.91
1495.597	234.05
1498.838	230.16
1502.078	229.16
1505.318	228.14
1508.557	227.97
1511.797	226.89
1515.036	225.68
1518.274	224.55
1521.513	222.74
1524.751	222.38
1527.989	222.16
1531.227	220.36
1534.464	221.15
1537.701	219.92
1540.938	219.2
1544.174	216.58
1547.41	216.65
1550.646	215.25
1553.882	215.75
1557.117	213.49
1560.352	212.66
1563.587	211.42
1566.821	210.09
1570.055	207.59
1573.289	206.2
1576.523	206.05
1579.756	204.54
1582.989	203.41
1586.222	203.3
1589.454	202.04
1592.686	203.4
1595.918	201.92
1599.15	201.53
1602.381	201.89
1605.612	201.75
1608.843	202.28
1612.073	201.53
1615.303	202.97
1618.533	202.92
1621.762	202.63
1624.992	202.76
1628.221	202.16
1631.449	202.32
1634.678	202.02
1637.906	202.65
1641.134	202.92
1644.361	202.39
1647.588	203.26
1650.815	202.04
1654.042	201.03
1657.269	202.24
1660.495	202.12
1663.72	201.48
1666.946	202.6
1670.171	202.81
1673.396	202.4
1676.621	202.54
1679.845	203.16
1683.069	202.82
1686.293	204.73
1689.517	205.91
1692.74	205.32
1695.963	206.13
1699.185	208.15
1702.408	207.59
1705.63	208.85
1708.852	209.23
1712.073	209.99
1715.294	210.04
1718.515	211.95
1721.736	210.83
1724.956	211.81
1728.176	211.8
1731.396	213.75
1734.616	212.63
1737.835	213.82
1741.054	212.03
1744.272	213.17
1747.491	214.91
1750.709	214.96
1753.927	214.47
1757.144	214.01
1760.361	214.57
1763.578	215.3
1766.795	214.29
1770.011	216.43
1773.227	216.06
1776.443	219.22
1779.658	219.8
1782.874	219.03
1786.089	220.41
1789.303	221.03
1792.518	224.07
1795.732	224
1798.945	226.24
1802.159	226.25
1805.372	226.4
1808.585	230.96
1811.797	231.08
1815.01	231.58
1818.222	233.72
1821.434	235.2
1824.645	236.12
1827.856	239.26
1831.067	241.17
1834.278	240.86
1837.488	243.21
1840.698	245.01
1843.908	242.41
1847.117	243.78
1850.326	245.44
1853.535	244.55
1856.744	248.26
1859.952	248.34
1863.16	247.05
1866.368	245.23
1869.575	247.74
1872.782	243.68
1875.989	243.33
1879.196	242.26
1882.402	240.82
1885.608	241.51
1888.814	241.93
1892.019	240.23
1895.224	239.3
1898.429	238.3
1901.634	239.88
1904.838	239.71
1908.042	242.5
1911.246	242.98
1914.449	244.46
1917.652	245.17
1920.855	244.25
1924.058	244.2
1927.26	243.44
1930.462	244.34
1933.664	246.95
1936.865	244.84
1940.066	244.3
1943.267	243.22
1946.467	242.59
1949.668	244.68
1952.868	246.52
1956.067	246.78
1959.267	247.41
1962.466	248.35
1965.665	247.36
1968.863	248.12
1972.061	252.38
1975.259	254.79
1978.457	256.47
1981.654	258.88
1984.852	259.08
1988.048	258.81
1991.245	261.26
1994.441	264.06
1997.637	265.71
2000.833	271.41
2004.028	274.24
2007.223	275.12
2010.418	277.3
2013.613	282.84
2016.807	285.57
2020.001	287.18
2023.194	291.82
2026.388	298.3
2029.581	304.74
2032.774	308
2035.966	312.38
2039.158	313.69
2042.35	319
2045.542	321.97
2048.733	327.09
2051.924	331.25
2055.115	337.4
2058.306	337.76
2061.496	340.86
2064.686	341.46
2067.875	347.31
2071.065	348.92
2074.254	347.97
2077.442	352.53
2080.631	353.71
2083.819	355.94
2087.007	357.98
2090.195	361.43
2093.382	365.19
2096.569	362.83
2099.756	368
2102.942	368.66
2106.128	372.67
2109.314	380.77
2112.5	379.57
2115.685	388.19
2118.87	388.44
2122.055	396.21
2125.239	399.79
2128.424	404.03
2131.608	408.73
2134.791	414.01
2137.974	415.99
2141.157	416.47
2144.34	417.38
2147.523	424.44
2150.705	421.3
2153.887	425.18
2157.068	425.14
2160.25	421.19
2163.431	423.79
2166.611	427.46
2169.792	436.02
2172.972	441.04
2176.152	444.72
2179.331	450.45
2182.511	457.16
2185.69	462.73
2188.868	473.13
2192.047	472.46
2195.225	487.33
2198.403	498.38
2201.58	507.52
2204.758	516.48
2207.935	526.99
2211.111	535.23
2214.288	541.71
2217.464	543.1
2220.64	550.95
2223.815	557.72
2226.991	583.21
2230.166	583.22
2233.34	593.09
2236.515	602.09
2239.689	601.11
2242.863	605.27
2246.036	625.02
2249.209	619.61
2252.382	630.58
2255.555	650.82
2258.727	653.09
2261.9	654.81
2265.071	661.88
2268.243	672.34
2271.414	682.06
2274.585	699.71
2277.756	704.95
2280.926	708.13
2284.096	723.9
2287.266	741.21
2290.436	744.64
2293.605	761.78
2296.774	786.18
2299.942	808.93
2303.111	813.75
2306.279	831.29
2309.447	842.7
2312.614	864.52
2315.781	888.23
2318.948	933.76
2322.115	918.98
2325.281	969.86
2328.447	948.76
2331.613	986.7
2334.779	978.13
2337.944	1021.17
2341.109	1027.88
2344.274	1055.79
2347.438	1096.16
2350.602	1095.14
2353.766	1124.7
2356.929	1139.33
2360.092	1132.67
2363.255	1216.85
2366.418	1211.47
2369.58	1234.57
2372.742	1314.81
2375.904	1350.19
2379.066	1339
2382.227	1310.55
2385.388	1426.96
2388.548	1427.62
2391.709	1446.32
2394.869	1612.29
2398.029	1544.37
2401.188	1587.08
2404.347	1579.22
2407.506	1546.51
2410.665	1592.6
2413.823	1692.32
2416.981	1792.96
2420.139	1730.94
2423.296	1712.61
2426.453	1790.27
2429.61	1719.66
2432.767	1796.77
2435.923	1779.7
2439.079	1950.34
2442.235	1972.71
2445.391	1955.57
2448.546	1939.82
2451.701	1887.11
2454.855	1884.62
2458.009	2001
2461.163	2079.9
2464.317	2150.76
2467.471	2207.91
2470.624	2207.36
2473.777	2147.05
2476.929	2098.56
2480.082	2030.12
2483.234	2005.16
2486.385	2111.91
2489.537	2120.38
2492.688	2202.68
2495.839	2133.33
2498.989	2093.15
2502.14	2100.79
2505.29	2124.18
2508.439	2150.54
2511.589	2144.74
2514.738	2347.18
2517.887	2300.49
2521.035	2426.18
2524.183	2446.27
2527.331	2455.14
2530.479	2453.87
2533.627	2468.38
