Data from N_2_DIV_PA_2N_Splice17_13-39-13-217.txt Node
Date: Sat Mar 07 13:39:13 EST 2020
User: sa697716
Spectrometer: NQ5500242
Trigger mode: 0
Integration Time (sec): 1.450000E-1
Scans to average: 20
Nonlinearity correction enabled: false
Boxcar width: 5
Storing dark spectrum: false
XAxis mode: Wavelengths
Number of Pixels in Spectrum: 512
>>>>>Begin Spectral Data<<<<<
187.83	209.7
188.298	235.49
188.766	224.04
189.233	182.24
189.701	181.08
190.169	206.75
190.636	224.51
191.104	310.11
191.571	214.26
192.039	-153.87
192.506	-168.32
192.974	52.09
193.441	159.39
193.908	117.33
194.375	67.98
194.842	19.05
195.31	42.41
195.777	123.56
196.244	84.5
196.711	90.21
197.177	90.86
197.644	90.62
198.111	91.43
198.578	91.97
199.045	92.99
199.511	93.23
199.978	93
200.445	93.14
200.911	93.24
201.378	93.4
201.844	93.41
202.31	93.06
202.777	93.07
203.243	92.44
203.709	91.66
204.176	90.5
204.642	89.51
205.108	88.91
205.574	88.08
206.04	86.78
206.506	86.05
206.972	85.15
207.438	84.21
207.903	82.94
208.369	81.32
208.835	79.64
209.301	77.86
209.766	75.47
210.232	73.39
210.697	71.15
211.163	69.29
211.628	67.25
212.094	65.24
212.559	63.73
213.024	62.02
213.49	60.47
213.955	58.87
214.42	57.24
214.885	55.47
215.35	52.99
215.815	50.06
216.28	46.05
216.745	41.7
217.21	37.39
217.675	33.2
218.14	29.64
218.604	26.59
219.069	23.99
219.534	21.87
219.998	20.18
220.463	18.82
220.927	17.53
221.392	16.55
221.856	15.76
222.32	15.08
222.785	14.53
223.249	14.02
223.713	13.57
224.177	13.21
224.642	12.85
225.106	12.46
225.57	12.12
226.034	11.87
226.497	11.62
226.961	11.38
227.425	11.16
227.889	10.94
228.353	10.73
228.816	10.51
229.28	10.31
229.744	10.13
230.207	10
230.671	9.82
231.134	9.64
231.597	9.52
232.061	9.39
232.524	9.25
232.987	9.14
233.45	9.06
233.914	8.95
234.377	8.85
234.84	8.75
235.303	8.67
235.766	8.6
236.229	8.54
236.691	8.45
237.154	8.36
237.617	8.31
238.08	8.24
238.542	8.16
239.005	8.11
239.468	8.05
239.93	8
240.393	7.93
240.855	7.84
241.317	7.77
241.78	7.7
242.242	7.64
242.704	7.57
243.166	7.49
243.629	7.43
244.091	7.35
244.553	7.28
245.015	7.21
245.477	7.15
245.939	7.1
246.4	7.04
246.862	6.98
247.324	6.93
247.786	6.87
248.247	6.82
248.709	6.74
249.17	6.69
249.632	6.66
250.093	6.62
250.555	6.57
251.016	6.53
251.477	6.48
251.939	6.45
252.4	6.41
252.861	6.37
253.322	6.34
253.783	6.32
254.244	6.3
254.705	6.25
255.166	6.22
255.627	6.19
256.088	6.16
256.549	6.13
257.009	6.09
257.47	6.06
257.931	6.01
258.391	5.95
258.852	5.9
259.312	5.86
259.773	5.81
260.233	5.77
260.694	5.72
261.154	5.67
261.614	5.62
262.074	5.57
262.534	5.53
262.994	5.5
263.455	5.46
263.915	5.43
264.374	5.4
264.834	5.38
265.294	5.34
265.754	5.32
266.214	5.3
266.673	5.29
267.133	5.27
267.593	5.25
268.052	5.23
268.512	5.23
268.971	5.21
269.431	5.2
269.89	5.18
270.349	5.17
270.809	5.16
271.268	5.14
271.727	5.12
272.186	5.12
272.645	5.11
273.104	5.1
273.563	5.08
274.022	5.07
274.481	5.06
274.94	5.05
275.399	5.04
275.857	5.03
276.316	5.03
276.775	5.02
277.233	5.01
277.692	5.01
278.15	5
278.609	5
279.067	5
279.525	4.99
279.984	4.99
280.442	4.99
280.9	4.99
281.358	4.98
281.816	4.99
282.274	4.98
282.732	4.98
283.19	4.97
283.648	4.97
284.106	4.96
284.564	4.96
285.021	4.95
285.479	4.94
285.937	4.93
286.394	4.93
286.852	4.92
287.309	4.91
287.767	4.9
288.224	4.88
288.682	4.86
289.139	4.84
289.596	4.83
290.053	4.81
290.511	4.78
290.968	4.76
291.425	4.73
291.882	4.72
292.339	4.7
292.796	4.69
293.252	4.68
293.709	4.67
294.166	4.67
294.623	4.65
295.079	4.64
295.536	4.63
295.992	4.63
296.449	4.62
296.905	4.61
297.362	4.6
297.818	4.59
298.274	4.6
298.731	4.58
299.187	4.57
299.643	4.56
300.099	4.57
300.555	4.56
301.011	4.56
301.467	4.57
301.923	4.56
302.379	4.56
302.835	4.56
303.291	4.56
303.746	4.56
304.202	4.57
304.658	4.58
305.113	4.58
305.569	4.58
306.024	4.59
306.479	4.58
306.935	4.58
307.39	4.59
307.845	4.59
308.301	4.6
308.756	4.6
309.211	4.6
309.666	4.61
310.121	4.62
310.576	4.61
311.031	4.62
311.486	4.63
311.94	4.63
312.395	4.63
312.85	4.64
313.305	4.63
313.759	4.64
314.214	4.64
314.668	4.63
315.123	4.62
315.577	4.62
316.032	4.61
316.486	4.6
316.94	4.6
317.394	4.6
317.849	4.58
318.303	4.57
318.757	4.55
319.211	4.54
319.665	4.52
320.119	4.51
320.572	4.49
321.026	4.49
321.48	4.48
321.934	4.46
322.387	4.46
322.841	4.46
323.295	4.46
323.748	4.45
324.202	4.46
324.655	4.46
325.108	4.47
325.562	4.48
326.015	4.49
326.468	4.49
326.921	4.5
327.374	4.49
327.827	4.49
328.28	4.49
328.733	4.49
329.186	4.49
329.639	4.5
330.092	4.5
330.545	4.51
330.997	4.5
331.45	4.52
331.903	4.53
332.355	4.54
332.808	4.55
333.26	4.55
333.713	4.56
334.165	4.56
334.617	4.56
335.069	4.56
335.522	4.56
335.974	4.57
336.426	4.55
336.878	4.54
337.33	4.53
337.782	4.54
338.234	4.55
338.686	4.55
339.137	4.55
339.589	4.53
340.041	4.53
340.493	4.51
340.944	4.49
341.396	4.49
341.847	4.48
342.299	4.46
342.75	4.44
343.201	4.41
343.653	4.39
344.104	4.36
344.555	4.35
345.006	4.33
345.457	4.32
345.908	4.31
346.359	4.31
346.81	4.3
347.261	4.29
347.712	4.28
348.163	4.27
348.613	4.28
349.064	4.29
349.515	4.29
349.965	4.29
350.416	4.29
350.866	4.28
351.317	4.27
351.767	4.28
352.217	4.28
352.668	4.29
353.118	4.29
353.568	4.28
354.018	4.29
354.468	4.29
354.918	4.31
355.368	4.31
355.818	4.33
356.268	4.32
356.718	4.32
357.168	4.32
357.617	4.32
358.067	4.32
358.517	4.34
358.966	4.33
359.416	4.33
359.865	4.32
360.315	4.33
360.764	4.33
361.213	4.33
361.663	4.33
362.112	4.34
362.561	4.34
363.01	4.34
363.459	4.33
363.908	4.32
364.357	4.34
364.806	4.34
365.255	4.34
365.703	4.36
366.152	4.37
366.601	4.38
367.05	4.38
367.498	4.39
367.947	4.4
368.395	4.41
368.844	4.42
369.292	4.42
369.74	4.42
370.189	4.42
370.637	4.41
371.085	4.42
371.533	4.42
371.981	4.42
372.429	4.43
372.877	4.43
373.325	4.43
373.773	4.43
374.221	4.43
374.669	4.44
375.116	4.44
375.564	4.45
376.012	4.46
376.459	4.46
376.907	4.48
377.354	4.49
377.801	4.51
378.249	4.53
378.696	4.55
379.143	4.57
379.591	4.59
380.038	4.61
380.485	4.64
380.932	4.66
381.379	4.69
381.826	4.7
382.273	4.72
382.72	4.72
383.166	4.73
383.613	4.75
384.06	4.76
384.506	4.78
384.953	4.79
385.4	4.8
385.846	4.84
386.292	4.85
386.739	4.87
387.185	4.9
387.631	4.93
388.078	4.96
388.524	4.99
388.97	5.02
389.416	5.06
389.862	5.1
390.308	5.14
390.754	5.17
391.2	5.21
391.645	5.25
392.091	5.29
392.537	5.33
392.983	5.37
393.428	5.41
393.874	5.45
394.319	5.48
394.765	5.5
395.21	5.52
395.655	5.55
396.101	5.59
396.546	5.63
396.991	5.67
397.436	5.71
397.881	5.75
398.326	5.8
398.771	5.85
399.216	5.89
399.661	5.93
400.106	5.97
400.551	6
400.995	6.02
401.44	6.06
401.885	6.09
402.329	6.13
402.774	6.17
403.218	6.23
403.663	6.25
404.107	6.29
404.551	6.34
404.995	6.37
405.44	6.41
405.884	6.46
406.328	6.5
406.772	6.54
407.216	6.58
407.66	6.61
408.104	6.62
408.547	6.65
408.991	6.67
409.435	6.71
409.879	6.74
410.322	6.78
410.766	6.82
411.209	6.85
411.653	6.89
412.096	6.93
412.54	6.95
412.983	7
413.426	7.07
413.869	7.11
414.312	7.17
414.756	7.22
415.199	7.24
415.642	7.28
416.085	7.3
416.527	7.31
416.97	7.31
417.413	7.32
417.856	7.32
418.298	7.32
418.741	7.33
419.184	7.32
419.626	7.33
420.069	7.35
420.511	7.36
420.953	7.39
421.396	7.42
421.838	7.44
422.28	7.48
422.722	7.53
423.164	7.54
423.606	7.57
424.048	7.6
424.49	7.6
424.932	7.6
425.374	7.58
425.816	7.56
426.258	7.55
426.699	7.55
427.141	7.55
427.582	7.55
428.024	7.58
428.465	7.58
428.907	7.57
429.348	7.55
429.789	7.56
430.231	7.61
430.672	7.65
431.113	7.67
431.554	7.7
431.995	7.7
432.436	7.71
432.877	7.71
433.318	7.75
433.759	7.78
434.2	7.83
434.64	7.85
435.081	7.87
435.522	7.88
435.962	7.89
436.403	7.9
436.843	7.92
437.284	7.91
437.724	7.91
438.164	7.9
438.604	7.91
439.045	7.91
439.485	7.91
439.925	7.9
440.365	7.91
440.805	7.91
441.245	7.92
441.685	7.96
442.125	7.98
442.564	7.98
443.004	7.99
443.444	7.99
443.883	7.99
444.323	7.98
444.762	7.99
445.202	7.99
445.641	8
446.081	8
446.52	7.99
446.959	8
447.398	8.01
447.837	8.01
448.276	8
448.716	8
449.154	8.01
449.593	8.02
450.032	8
450.471	7.96
450.91	7.92
451.349	7.9
451.787	7.87
452.226	7.83
452.664	7.82
453.103	7.79
453.541	7.77
453.98	7.76
454.418	7.71
454.856	7.69
455.295	7.67
455.733	7.65
456.171	7.62
456.609	7.61
457.047	7.58
457.485	7.56
457.923	7.56
458.361	7.53
458.798	7.54
459.236	7.53
459.674	7.52
460.111	7.52
460.549	7.54
460.987	7.53
461.424	7.53
461.862	7.55
462.299	7.57
462.736	7.57
463.173	7.57
463.611	7.56
464.048	7.57
464.485	7.58
464.922	7.57
465.359	7.57
465.796	7.6
466.233	7.62
466.67	7.63
467.106	7.64
467.543	7.63
467.98	7.63
468.416	7.62
468.853	7.63
469.29	7.63
469.726	7.63
470.162	7.62
470.599	7.59
471.035	7.56
471.471	7.54
471.907	7.51
472.344	7.5
472.78	7.5
473.216	7.47
473.652	7.45
474.088	7.42
474.523	7.4
474.959	7.38
475.395	7.35
475.831	7.33
476.266	7.31
476.702	7.29
477.138	7.26
477.573	7.24
478.008	7.24
478.444	7.21
478.879	7.21
479.314	7.2
479.75	7.19
480.185	7.18
480.62	7.16
481.055	7.13
481.49	7.11
481.925	7.09
482.36	7.07
482.795	7.05
483.229	7.04
483.664	7.02
484.099	6.99
484.534	6.97
484.968	6.97
485.403	6.95
485.837	6.95
486.271	6.95
486.706	6.95
487.14	6.94
487.574	6.93
488.009	6.93
488.443	6.93
488.877	6.94
489.311	6.94
489.745	6.94
490.179	6.95
490.613	6.97
491.046	6.97
491.48	6.97
491.914	6.98
492.348	6.99
492.781	7
493.215	7.02
493.648	7.02
494.082	7.03
494.515	7.04
494.948	7.05
495.382	7.05
495.815	7.06
496.248	7.07
496.681	7.08
497.114	7.09
497.547	7.09
497.98	7.1
498.413	7.12
498.846	7.14
499.279	7.15
499.711	7.15
500.144	7.16
500.577	7.19
501.009	7.21
501.442	7.23
501.874	7.26
502.306	7.27
502.739	7.31
503.171	7.34
503.603	7.36
504.036	7.4
504.468	7.43
504.9	7.45
505.332	7.48
505.764	7.51
506.196	7.53
506.627	7.58
507.059	7.63
507.491	7.66
507.923	7.71
508.354	7.77
508.786	7.81
509.217	7.88
509.649	7.95
510.08	8.01
510.512	8.08
510.943	8.15
511.374	8.21
511.805	8.29
512.237	8.35
512.668	8.42
513.099	8.5
513.53	8.58
513.961	8.66
514.391	8.74
514.822	8.84
515.253	8.93
515.684	9.02
516.114	9.12
516.545	9.22
516.975	9.32
517.406	9.43
517.836	9.54
518.267	9.65
518.697	9.75
519.127	9.86
519.558	9.96
519.988	10.08
520.418	10.2
520.848	10.3
521.278	10.41
521.708	10.74
522.138	10.85
522.567	10.95
522.997	11.05
523.427	11.16
523.857	11.28
524.286	11.38
524.716	11.49
525.145	11.6
525.575	11.71
526.004	11.81
526.433	11.69
526.863	11.79
527.292	11.9
527.721	11.99
528.15	12.09
528.579	12.16
529.008	12.24
529.437	12.33
529.866	12.4
530.295	12.49
530.724	12.55
531.152	12.64
531.581	12.69
532.01	12.76
532.438	12.82
532.867	12.88
533.295	12.94
533.723	13
534.152	13.04
534.58	13.09
535.008	13.13
535.436	13.19
535.865	13.23
536.293	13.27
536.721	13.3
537.149	13.34
537.576	13.37
538.004	13.41
538.432	13.44
538.86	13.49
539.287	13.51
539.715	13.54
540.143	13.55
540.57	13.57
540.998	13.59
541.425	13.62
541.852	13.65
542.28	13.68
542.707	13.69
543.134	13.71
543.561	13.73
543.988	13.75
544.415	13.76
544.842	13.78
545.269	13.8
545.696	13.82
546.123	13.84
546.549	13.86
546.976	13.88
547.403	13.9
547.829	13.92
548.256	13.93
548.682	13.95
549.108	13.98
549.535	13.99
549.961	14
550.387	14.01
550.813	14.01
551.24	14
551.666	13.99
552.092	14
552.518	13.99
552.943	13.98
553.369	13.96
553.795	13.93
554.221	13.92
554.646	13.9
555.072	13.88
555.498	13.84
555.923	13.8
556.349	13.76
556.774	13.71
557.199	13.67
557.625	13.63
558.05	13.58
558.475	13.54
558.9	13.47
559.325	13.42
559.75	13.36
560.175	13.31
560.6	13.25
561.025	13.2
561.449	13.13
561.874	13.06
562.299	12.99
562.723	12.92
563.148	12.83
563.572	12.76
563.997	12.68
564.421	12.58
564.846	12.49
565.27	12.4
565.694	12.33
566.118	12.24
566.542	12.16
566.966	12.07
567.39	11.98
567.814	11.9
568.238	11.81
568.662	11.73
569.086	11.65
569.509	11.58
569.933	11.5
570.357	11.42
570.78	11.34
571.204	11.27
571.627	11.21
572.05	11.13
572.474	11.08
572.897	11.02
573.32	10.97
573.743	10.92
574.166	10.85
574.589	10.78
575.012	10.74
575.435	10.68
575.858	10.63
576.281	10.58
576.704	10.54
577.126	10.5
577.549	10.46
577.972	10.41
578.394	10.36
578.817	10.34
579.239	10.3
579.661	10.26
580.084	10.24
580.506	10.21
580.928	10.17
581.35	10.14
581.772	10.09
582.194	10.05
582.616	10.02
583.038	10
583.46	9.95
583.882	9.93
584.303	9.89
584.725	9.86
585.147	9.84
585.568	9.82
585.99	9.8
586.411	9.79
586.833	9.77
587.254	9.74
587.675	9.72
588.096	9.69
588.518	9.67
588.939	9.66
589.36	9.65
589.781	9.62
590.202	9.61
590.623	9.58
591.043	9.55
591.464	9.53
591.885	9.51
592.305	9.49
592.726	9.49
593.147	9.48
593.567	9.44
593.987	9.41
594.408	9.39
594.828	9.36
595.248	9.34
595.669	9.34
596.089	9.33
596.509	9.31
596.929	9.28
597.349	9.26
597.769	9.23
598.189	9.21
598.608	9.21
599.028	9.21
599.448	9.18
599.867	9.16
600.287	9.13
600.706	9.11
601.126	9.09
601.545	9.08
601.965	9.06
602.384	9.05
602.803	9.03
603.222	9.01
603.641	8.97
604.061	8.95
604.48	8.92
604.898	8.89
605.317	8.87
605.736	8.85
606.155	8.83
606.574	8.8
606.992	8.77
607.411	8.75
607.829	8.68
608.248	8.65
608.666	8.62
609.085	8.6
609.503	8.58
609.921	8.56
610.339	8.53
610.758	8.51
611.176	8.48
611.594	8.46
612.012	8.43
612.43	8.44
612.847	8.42
613.265	8.4
613.683	8.38
614.101	8.36
614.518	8.33
614.936	8.31
615.353	8.27
615.771	8.26
616.188	8.23
616.606	8.22
617.023	8.19
617.44	8.18
617.857	8.16
618.274	8.14
618.691	8.12
619.108	8.11
619.525	8.1
619.942	8.09
620.359	8.08
620.776	8.07
621.192	8.06
621.609	8.05
622.026	8.04
622.442	8.03
622.859	8.03
623.275	8.03
623.691	8.03
624.108	8.01
624.524	8.01
624.94	8.01
625.356	8.01
625.772	8.01
626.188	8
626.604	8.01
627.02	8
627.436	7.99
627.852	7.99
628.268	7.99
628.683	7.99
629.099	7.98
629.514	7.98
629.93	7.98
630.345	7.98
630.761	7.98
631.176	7.97
631.591	7.97
632.007	7.96
632.422	7.95
632.837	7.94
633.252	7.94
633.667	7.94
634.082	7.92
634.497	7.91
634.911	7.9
635.326	7.89
635.741	7.87
636.155	7.86
636.57	7.86
636.984	7.85
637.399	7.84
637.813	7.81
638.228	7.8
638.642	7.78
639.056	7.75
639.47	7.72
639.884	7.71
640.298	7.68
640.712	7.64
641.126	7.61
641.54	7.58
641.954	7.55
642.368	7.53
642.781	7.51
643.195	7.49
643.609	7.48
644.022	7.45
644.436	7.42
644.849	7.4
645.262	7.39
645.676	7.38
646.089	7.37
646.502	7.37
646.915	7.37
647.328	7.35
647.741	7.34
648.154	7.32
648.567	7.33
648.98	7.32
649.393	7.31
649.805	7.31
650.218	7.3
650.631	7.3
651.043	7.28
651.456	7.27
651.868	7.25
652.28	7.24
652.693	7.24
653.105	7.24
653.517	7.23
653.929	7.23
654.341	7.21
654.753	7.2
655.165	7.18
655.577	7.17
655.989	7.16
656.401	7.15
656.813	7.14
657.224	7.12
657.636	7.09
658.047	7.09
658.459	7.07
658.87	7.06
659.282	7.04
659.693	7.03
660.104	7.02
660.515	7
660.926	6.99
661.338	6.97
661.749	6.96
662.159	6.96
662.57	6.95
662.981	6.94
663.392	6.93
663.803	6.93
664.213	6.91
664.624	6.9
665.035	6.9
665.445	6.9
665.855	6.89
666.266	6.9
666.676	6.91
667.086	6.9
667.497	6.9
667.907	6.89
668.317	6.89
668.727	6.9
669.137	6.9
669.547	6.91
669.956	6.91
670.366	6.91
670.776	6.91
671.186	6.9
671.595	6.9
672.005	6.91
672.414	6.92
672.824	6.93
673.233	6.92
673.642	6.93
674.052	6.95
674.461	6.96
674.87	6.98
675.279	7.01
675.688	7.03
676.097	7.05
676.506	7.08
676.915	7.11
677.323	7.13
677.732	7.14
678.141	7.17
678.549	7.17
678.958	7.19
679.366	7.22
679.775	7.23
680.183	7.26
680.592	7.29
681	7.31
681.408	7.32
681.816	7.36
682.224	7.41
682.632	7.45
683.04	7.49
683.448	7.52
683.856	7.54
684.264	7.59
684.671	7.62
685.079	7.65
685.487	7.7
685.894	7.77
686.302	7.82
686.709	7.88
687.116	7.94
687.524	8.01
687.931	8.1
688.338	8.2
688.745	8.28
689.152	8.39
689.559	8.52
689.966	8.65
690.373	8.79
690.78	8.94
691.187	9.1
691.593	9.27
692	9.47
692.407	9.66
692.813	9.88
693.22	10.12
693.626	10.36
694.032	10.61
694.439	10.88
694.845	11.16
695.251	11.45
695.657	11.75
696.063	12.06
696.469	12.37
696.875	12.71
697.281	13.05
697.687	13.4
698.093	13.76
698.498	14.11
698.904	14.48
699.31	14.85
699.715	15.24
700.12	15.64
700.526	16.03
700.931	16.45
701.337	16.86
701.742	17.27
702.147	17.68
702.552	18.1
702.957	18.51
703.362	18.93
703.767	19.33
704.172	19.74
704.577	20.15
704.981	20.58
705.386	21
705.791	21.41
706.195	21.82
706.6	22.24
707.004	22.66
707.408	23.11
707.813	23.53
708.217	23.97
708.621	24.39
709.025	24.81
709.43	25.19
709.834	25.6
710.237	26.01
710.641	26.43
711.045	26.84
711.449	27.24
711.853	27.66
712.256	28.07
712.66	28.49
713.064	28.89
713.467	29.3
713.87	29.73
714.274	30.14
714.677	30.57
715.08	30.97
715.484	31.38
715.887	31.78
716.29	32.15
716.693	32.54
717.096	32.93
717.499	33.33
717.901	33.71
718.304	34.09
718.707	34.46
719.109	34.82
719.512	35.17
719.915	35.53
720.317	35.88
720.719	36.2
721.122	36.54
721.524	36.86
721.926	37.19
722.328	37.5
722.731	37.79
723.133	38.11
723.535	38.43
723.937	38.72
724.338	39.01
724.74	39.31
725.142	39.75
725.544	40.01
725.945	40.32
726.347	40.57
726.748	40.85
727.15	41.09
727.551	41.34
727.952	41.56
728.354	41.79
728.755	42.01
729.156	42.2
729.557	42.26
729.958	42.46
730.359	42.63
730.76	42.84
731.161	43.01
731.562	43.23
731.962	43.38
732.363	43.56
732.763	43.71
733.164	43.88
733.564	44.08
733.965	44.24
734.365	44.38
734.766	44.51
735.166	44.66
735.566	44.82
735.966	44.94
736.366	45.08
736.766	45.2
737.166	45.34
737.566	45.44
737.966	45.53
738.365	45.65
738.765	45.77
739.165	45.87
739.564	45.97
739.964	46.06
740.363	46.14
740.763	46.23
741.162	46.32
741.561	46.39
741.96	46.47
742.36	46.54
742.759	46.6
743.158	46.67
743.557	46.75
743.955	46.8
744.354	46.84
744.753	46.9
745.152	46.99
745.55	47.02
745.949	47.07
746.348	47.15
746.746	47.2
747.144	47.26
747.543	47.31
747.941	47.34
748.339	47.37
748.737	47.41
749.136	47.44
749.534	47.43
749.932	47.48
750.33	47.5
750.727	47.53
751.125	47.55
751.523	47.57
751.921	47.61
752.318	47.61
752.716	47.66
753.113	47.7
753.511	47.74
753.908	47.79
754.305	47.83
754.703	47.86
755.1	47.88
755.497	47.92
755.894	47.92
756.291	47.92
756.688	47.96
757.085	47.97
757.482	47.98
757.878	48.01
758.275	48.02
758.672	48.01
759.068	48.06
759.465	48.09
759.861	48.12
760.258	48.14
760.654	48.18
761.05	48.22
761.447	48.24
761.843	48.24
762.239	48.24
762.635	48.27
763.031	48.31
763.427	48.28
763.822	48.29
764.218	48.29
764.614	48.32
765.01	48.32
765.405	48.32
765.801	48.31
766.196	48.33
766.592	48.33
766.987	48.31
767.382	48.31
767.778	48.33
768.173	48.34
768.568	48.33
768.963	48.32
769.358	48.33
769.753	48.32
770.148	48.34
770.542	48.34
770.937	48.35
771.332	48.38
771.726	48.39
772.121	48.39
772.515	48.41
772.91	48.42
773.304	48.45
773.699	48.45
774.093	48.45
774.487	48.47
774.881	48.49
775.275	48.48
775.669	48.48
776.063	48.47
776.457	48.5
776.851	48.47
777.245	48.45
777.638	48.43
778.032	48.45
778.425	48.48
778.819	48.48
779.212	48.5
779.606	48.53
779.999	48.52
780.392	48.56
780.786	48.54
781.179	48.59
781.572	48.65
781.965	48.67
782.358	48.66
782.751	48.66
783.143	48.66
783.536	48.65
783.929	48.65
784.322	48.67
784.714	48.65
785.107	48.67
785.499	48.65
785.891	48.65
786.284	48.68
786.676	48.69
787.068	48.69
787.46	48.69
787.852	48.71
788.245	48.7
788.636	48.69
789.028	48.71
789.42	48.7
789.812	48.72
790.204	48.73
790.595	48.73
790.987	48.75
791.378	48.74
791.77	48.76
792.161	48.73
792.553	48.75
792.944	48.73
793.335	48.73
793.726	48.74
794.117	48.74
794.508	48.68
794.899	48.68
795.29	48.69
795.681	48.66
796.072	48.64
796.463	48.7
796.853	48.72
797.244	48.73
797.634	48.71
798.025	48.7
798.415	48.7
798.806	48.75
799.196	48.74
799.586	48.72
799.976	48.78
800.366	48.8
800.756	48.77
801.146	48.8
801.536	48.83
801.926	48.83
802.316	48.84
802.706	48.86
803.095	48.87
803.485	48.87
803.874	48.88
804.264	48.85
804.653	48.85
805.043	48.87
805.432	48.83
805.821	48.84
806.21	48.87
806.599	48.87
806.988	48.85
807.377	48.82
807.766	48.81
808.155	48.82
808.544	48.83
808.933	48.82
809.321	48.81
809.71	48.81
810.098	48.8
810.487	48.77
810.875	48.78
811.264	48.79
811.652	48.84
812.04	48.85
812.428	48.87
812.816	48.87
813.204	48.87
813.592	48.85
813.98	48.85
814.368	48.85
814.756	48.86
815.144	48.84
815.531	48.83
815.919	48.78
816.306	48.76
816.694	48.72
817.081	48.72
817.469	48.73
817.856	48.74
818.243	48.72
818.63	48.71
819.017	48.68
819.404	48.66
819.791	48.66
820.178	48.68
820.565	48.67
820.952	48.69
821.339	48.66
821.725	48.66
822.112	48.67
822.498	48.69
822.885	48.7
823.271	48.71
823.657	48.68
824.044	48.66
824.43	48.67
824.816	48.67
825.202	48.66
825.588	48.68
825.974	48.64
826.36	48.63
826.746	48.62
827.132	48.6
827.517	48.6
827.903	48.65
828.289	48.66
828.674	48.64
829.06	48.63
829.445	48.61
829.83	48.6
830.216	48.61
830.601	48.61
830.986	48.6
831.371	48.58
831.756	48.58
832.141	48.56
832.526	48.56
832.911	48.56
833.295	48.57
833.68	48.56
834.065	48.54
834.449	48.52
834.834	48.51
835.218	48.52
835.603	48.54
835.987	48.5
836.371	48.48
836.755	48.45
837.139	48.43
837.524	48.41
837.908	48.44
838.291	48.46
838.675	48.47
839.059	48.47
839.443	48.44
839.827	48.43
840.21	48.45
840.594	48.47
840.977	48.47
841.361	48.48
841.744	48.46
842.127	48.42
842.511	48.39
842.894	48.38
843.277	48.36
843.66	48.36
844.043	48.37
844.426	48.36
844.809	48.35
845.191	48.36
845.574	48.36
845.957	48.38
846.339	48.39
846.722	48.42
847.104	48.43
847.487	48.43
847.869	48.45
848.252	48.45
848.634	48.46
849.016	48.46
849.398	48.47
849.78	48.48
850.162	48.46
850.544	48.46
850.926	48.46
851.307	48.46
851.689	48.46
852.071	48.45
852.452	48.45
852.834	48.46
853.215	48.46
853.597	48.46
853.978	48.45
854.359	48.46
854.741	48.48
855.122	48.46
855.503	48.44
855.884	48.44
856.265	48.44
856.646	48.43
857.026	48.43
857.407	48.43
857.788	48.4
858.169	48.41
858.549	48.41
858.93	48.38
859.31	48.41
859.69	48.42
860.071	48.44
860.451	48.47
860.831	48.47
861.211	48.45
861.591	48.45
861.971	48.46
862.351	48.46
862.731	48.49
863.111	48.49
863.491	48.49
863.87	48.48
864.25	48.45
864.629	48.44
865.009	48.46
865.388	48.48
865.768	48.47
866.147	48.49
866.526	48.48
866.905	48.47
867.284	48.46
867.663	48.45
868.042	48.48
868.421	48.51
868.8	48.52
869.179	48.5
869.558	48.49
869.936	48.49
870.315	48.47
870.693	48.48
871.072	48.49
871.45	48.54
871.828	48.55
872.207	48.54
872.585	48.52
872.963	48.54
873.341	48.55
873.719	48.56
874.097	48.58
874.475	48.61
874.853	48.63
875.23	48.63
875.608	48.6
875.986	48.62
876.363	48.63
876.741	48.64
877.118	48.63
877.495	48.63
877.873	48.63
878.25	48.63
878.627	48.62
879.004	48.61
879.381	48.61
879.758	48.6
880.135	48.58
880.512	48.56
880.889	48.54
881.265	48.51
881.642	48.49
882.019	48.48
882.395	48.44
882.772	48.43
883.148	48.41
883.524	48.37
883.901	48.35
884.277	48.29
884.653	48.26
885.029	48.26
885.405	48.27
885.781	48.26
886.157	48.26
886.532	48.27
886.908	48.25
887.284	48.26
887.659	48.24
888.035	48.23
888.411	48.24
888.786	48.26
889.161	48.25
889.537	48.23
889.912	48.23
890.287	48.22
890.662	48.22
891.037	48.22
891.412	48.21
891.787	48.2
892.162	48.19
892.536	48.19
892.911	48.19
893.286	48.18
893.66	48.19
894.035	48.18
894.409	48.18
894.784	48.18
895.158	48.18
895.532	48.21
895.906	48.24
896.281	48.27
896.655	48.29
897.029	48.32
897.402	48.33
897.776	48.36
898.15	48.4
898.524	48.41
898.898	48.43
899.271	48.46
899.645	48.47
900.018	48.49
900.392	48.47
900.765	48.48
901.138	48.47
901.511	48.48
901.884	48.5
902.258	48.49
902.631	48.52
903.003	48.53
903.376	48.54
903.749	48.53
904.122	48.54
904.495	48.59
904.867	48.6
905.24	48.65
905.612	48.68
905.985	48.66
906.357	48.67
906.729	48.69
907.102	48.68
907.474	48.69
907.846	48.72
908.218	48.71
908.59	48.72
908.962	48.72
909.334	48.71
909.705	48.71
910.077	48.71
910.449	48.73
910.82	48.73
911.192	48.74
911.563	48.74
911.935	48.71
912.306	48.73
912.677	48.77
913.048	48.79
913.419	48.78
913.79	48.76
914.161	48.79
914.532	48.81
914.903	48.81
915.274	48.83
915.645	48.86
916.015	48.89
916.386	48.86
916.756	48.82
917.127	48.83
917.497	48.86
917.868	48.89
918.238	48.88
918.608	48.9
918.978	48.92
919.348	48.91
919.718	48.92
920.088	48.93
920.458	48.98
920.828	48.99
921.198	48.97
921.567	48.96
921.937	48.98
922.306	48.98
922.676	48.97
923.045	48.97
923.415	48.98
923.784	48.96
924.153	48.95
924.522	48.97
924.891	48.98
925.26	48.99
925.629	48.99
925.998	48.98
926.367	48.98
926.736	49
927.104	48.99
927.473	48.98
927.842	48.98
928.21	49.01
928.578	48.95
928.947	49.01
929.315	49.01
929.683	49.03
930.051	49.05
930.42	49.05
930.788	49.01
931.156	49.01
931.523	49.03
931.891	49.07
932.259	49.08
932.627	49.14
932.994	49.13
933.362	49.15
933.729	49.16
934.097	49.17
934.464	49.22
934.831	49.26
935.199	49.34
935.566	49.42
935.933	49.39
936.3	49.45
936.667	49.49
937.034	49.59
937.401	49.67
937.767	49.73
938.134	49.8
938.501	49.89
938.867	49.95
939.234	49.93
939.6	49.94
939.967	50.02
940.333	49.98
940.699	50.01
941.065	49.89
941.431	49.87
941.798	49.89
942.163	49.88
942.529	49.81
942.895	49.81
943.261	49.83
943.627	49.8
943.992	49.77
944.358	49.75
944.723	49.7
945.089	49.67
945.454	49.67
945.82	49.6
946.185	49.56
946.55	49.46
946.915	49.42
947.28	49.34
947.645	49.32
948.01	49.35
948.375	49.3
948.74	49.3
949.104	49.31
949.469	49.23
949.834	49.15
950.198	49.15
950.562	49.18
950.927	49.15
951.291	49.07
951.655	49
952.02	48.94
952.384	48.94
952.748	48.85
953.112	48.79
953.476	48.78
953.839	48.77
954.203	48.77
954.567	48.75
954.931	48.7
955.294	48.71
955.658	48.71
956.021	48.66
956.385	48.58
956.748	48.6
957.111	48.56
957.474	48.54
957.837	48.52
958.2	48.41
958.563	48.34
958.926	48.35
959.289	48.31
959.652	48.28
960.015	48.27
960.377	48.27
960.74	48.24
961.102	48.25
961.465	48.3
961.827	48.4
962.189	48.49
962.552	48.54
962.914	48.52
963.276	48.58
963.638	48.56
964	48.58
964.362	48.61
964.724	48.6
965.085	48.61
965.447	48.56
965.809	48.46
966.17	48.39
966.532	48.39
966.893	48.42
967.255	48.4
967.616	48.43
967.977	48.42
968.338	48.39
968.699	48.45
969.061	48.45
969.421	48.47
969.782	48.49
970.143	48.54
970.504	48.55
970.865	48.6
971.225	48.62
971.586	48.62
971.946	48.61
972.307	48.65
972.667	48.65
973.027	48.69
973.388	48.7
973.748	48.73
974.108	48.78
974.468	48.73
974.828	48.76
975.188	48.72
975.548	48.74
975.907	48.8
976.267	48.79
976.627	48.84
976.986	48.78
977.346	48.79
977.705	48.8
978.064	48.78
978.424	48.89
978.783	48.79
979.142	48.85
979.501	48.93
979.86	48.94
980.219	49.01
980.578	49.02
980.937	49.07
981.296	49.06
981.654	49.07
982.013	49.13
982.371	49.17
982.73	49.23
983.088	49.25
983.447	49.2
983.805	49.25
984.163	49.26
984.521	49.29
984.879	49.33
985.237	49.43
985.595	49.48
985.953	49.45
986.311	49.4
986.669	49.42
987.026	49.5
987.384	49.57
987.741	49.53
988.099	49.61
988.456	49.6
988.814	49.69
989.171	49.7
989.528	49.7
989.885	49.75
990.242	49.87
990.599	49.95
990.956	50.02
991.313	50.08
991.67	50.16
992.027	50.31
992.383	50.44
992.74	50.52
993.096	50.56
993.453	50.58
993.809	50.62
994.165	50.66
994.522	50.87
994.878	50.89
995.234	50.9
995.59	50.98
995.946	50.92
996.302	50.97
996.658	51
997.013	51.02
997.369	51.21
997.725	51.42
998.08	51.5
998.436	51.36
998.791	51.46
999.147	51.55
999.502	51.64
999.857	51.65
1000.212	51.6
1000.567	51.69
1000.922	51.79
1001.277	51.75
1001.632	51.62
1001.987	51.59
1002.342	51.59
1002.696	51.55
1003.051	51.7
1003.406	51.76
1003.76	51.85
1004.114	51.88
1004.469	51.88
1004.823	52.17
1005.177	52.22
1005.531	52.42
1005.885	52.58
1006.239	52.74
1006.593	53.02
1006.947	53.18
1007.301	53.17
1007.655	53.24
1008.008	53.6
1008.362	53.77
1008.715	53.65
1009.069	53.81
1009.422	53.95
1009.776	53.97
1010.129	54.01
1010.482	53.96
1010.835	53.91
1011.188	54.14
1011.541	54.17
1011.894	54.11
1012.247	54.13
1012.6	54.33
1012.952	54.38
1013.305	54.57
1013.657	54.68
1014.01	54.86
1014.362	54.89
1014.715	55.07
1015.067	55.11
1015.419	55.41
1015.771	55.52
1016.123	55.74
1016.475	55.76
1016.827	56.03
1017.179	55.92
1017.531	56.17
1017.883	56.24
1018.234	56.69
1018.586	56.83
1018.938	57.32
1019.289	57.35
1019.64	57.41
1019.992	57.42
1020.343	57.66
1020.694	57.6
1021.045	57.93
1021.396	57.98
1021.747	58.35
1022.098	58.41
1022.449	58.44
1022.8	58.37
1023.151	58.46
1023.501	58.74
1023.852	59.03
1024.202	59.08
1024.553	59.32
1024.903	59.45
1025.253	59.92
1025.604	60.02
1025.954	59.95
1026.304	60.17
1026.654	60.37
1027.004	60.37
1027.354	60.33
1027.703	60.26
1028.053	60.38
1028.403	60.73
1028.753	60.7
1029.102	60.76
1029.452	60.97
1029.801	61.43
1030.15	61.48
1030.499	61.29
897.758	1820.82
901.051	1827.41
904.343	1816.08
907.636	1851.67
910.928	1802.71
914.22	1800.3
917.511	1774.44
920.803	1697.37
924.094	1689.44
927.384	1650.6
930.675	1579.76
933.965	1567.7
937.255	1477.44
940.544	1420.76
943.834	1346.88
947.123	1333.63
950.411	1257.36
953.7	1231.4
956.988	1161.82
960.276	1115.12
963.563	1097.93
966.851	1057.69
970.138	1048.69
973.424	1014.63
976.711	1021.81
979.997	971.81
983.283	967
986.568	944.44
989.853	914.42
993.138	900.72
996.423	864.8
999.708	840.55
1002.992	832.21
1006.275	793.42
1009.559	784.58
1012.842	755.24
1016.125	735.62
1019.408	722.26
1022.69	712.48
1025.972	699.21
1029.254	681.25
1032.536	669.72
1035.817	655.45
1039.098	647.33
1042.379	633.21
1045.659	626.9
1048.939	611.17
1052.219	598.22
1055.498	588.99
1058.778	576.41
1062.057	560.75
1065.335	554.83
1068.614	548
1071.892	542.57
1075.17	523.81
1078.447	513.63
1081.724	510.48
1085.001	507.39
1088.278	495.99
1091.554	485.75
1094.83	485.37
1098.106	483.88
1101.382	478.8
1104.657	476.3
1107.932	467.42
1111.206	471.65
1114.481	459.36
1117.755	454.24
1121.029	449.97
1124.302	451.01
1127.575	441.94
1130.848	436.43
1134.121	430.69
1137.393	429.59
1140.665	419.26
1143.937	417.81
1147.208	412.72
1150.48	413.46
1153.75	407.4
1157.021	400.4
1160.291	400.49
1163.561	396.6
1166.831	395.98
1170.101	393.5
1173.37	391.79
1176.639	392.92
1179.907	388.3
1183.176	384.88
1186.444	383.93
1189.711	384.01
1192.979	383.33
1196.246	379.74
1199.513	381.11
1202.78	378.65
1206.046	378.72
1209.312	374.69
1212.578	375.55
1215.843	379.18
1219.108	376.22
1222.373	384.79
1225.638	387.29
1228.902	393.57
1232.166	394.03
1235.43	397.91
1238.693	403.42
1241.956	405.45
1245.219	412.36
1248.482	411.75
1251.744	411.63
1255.006	413.32
1258.268	402.24
1261.529	398.68
1264.79	394.65
1268.051	392.08
1271.312	386.97
1274.572	382.11
1277.832	378.54
1281.092	372.19
1284.351	369.29
1287.61	369.2
1290.869	363.68
1294.128	361.43
1297.386	361.33
1300.644	357.5
1303.902	359.19
1307.159	356.8
1310.416	357.52
1313.673	357.18
1316.93	361.04
1320.186	361.42
1323.442	362.01
1326.697	368.86
1329.953	369.75
1333.208	371.32
1336.463	376.05
1339.717	376.49
1342.972	381.89
1346.226	383.95
1349.479	383.85
1352.733	386.31
1355.986	387.25
1359.238	387.5
1362.491	390.18
1365.743	394.47
1368.995	393.73
1372.247	392.9
1375.498	393.58
1378.749	396.53
1382	391.76
1385.251	395.01
1388.501	390.81
1391.751	394.3
1395	391.57
1398.25	388.14
1401.499	386.15
1404.748	386.42
1407.996	381.65
1411.244	379.86
1414.492	378.22
1417.74	375.2
1420.987	368.63
1424.234	369.73
1427.481	363.58
1430.728	364.4
1433.974	359.63
1437.22	356.02
1440.465	354.97
1443.711	353.72
1446.956	351.55
1450.201	345.21
1453.445	342.75
1456.689	341.67
1459.933	336.17
1463.177	333.86
1466.42	327.6
1469.663	324.27
1472.906	322.91
1476.148	313.93
1479.391	309
1482.633	305.55
1485.874	301.72
1489.115	299.62
1492.356	294.81
1495.597	294.11
1498.838	288.85
1502.078	287.08
1505.318	285.55
1508.557	284.91
1511.797	285.22
1515.036	283.82
1518.274	283.07
1521.513	279.97
1524.751	279.5
1527.989	279.3
1531.227	277.24
1534.464	278.59
1537.701	276.53
1540.938	275.54
1544.174	272.1
1547.41	271.44
1550.646	270.45
1553.882	270.36
1557.117	267.15
1560.352	265.15
1563.587	264.56
1566.821	262.59
1570.055	259.34
1573.289	257.31
1576.523	257.2
1579.756	255.19
1582.989	253.47
1586.222	253.09
1589.454	250.98
1592.686	253.24
1595.918	252.18
1599.15	250.88
1602.381	251.41
1605.612	251.48
1608.843	253.01
1612.073	252.04
1615.303	253.67
1618.533	254.14
1621.762	252.85
1624.992	253.23
1628.221	252.86
1631.449	252.73
1634.678	252.31
1637.906	253.38
1641.134	253.19
1644.361	252.54
1647.588	253.87
1650.815	252.47
1654.042	251.04
1657.269	252.93
1660.495	253.16
1663.72	250.87
1666.946	252.47
1670.171	252.83
1673.396	252.48
1676.621	252.59
1679.845	252.31
1683.069	251.82
1686.293	253.76
1689.517	255.24
1692.74	254.85
1695.963	256.36
1699.185	259.9
1702.408	259.6
1705.63	260.43
1708.852	261.21
1712.073	261.85
1715.294	262.56
1718.515	264.27
1721.736	263.89
1724.956	264.31
1728.176	264.35
1731.396	266.83
1734.616	265.42
1737.835	265.97
1741.054	265.13
1744.272	265.75
1747.491	268.93
1750.709	269.21
1753.927	268.96
1757.144	267.84
1760.361	269.82
1763.578	269.95
1766.795	268.61
1770.011	271.04
1773.227	271.29
1776.443	274.57
1779.658	276.16
1782.874	274.57
1786.089	276.01
1789.303	276.97
1792.518	280.45
1795.732	280.25
1798.945	283.99
1802.159	284.02
1805.372	285.19
1808.585	290.68
1811.797	290.59
1815.01	291.01
1818.222	293.6
1821.434	296.14
1824.645	297.4
1827.856	302.95
1831.067	305.5
1834.278	303.04
1837.488	305.63
1840.698	308.33
1843.908	304.45
1847.117	307.37
1850.326	309.35
1853.535	307.61
1856.744	313.13
1859.952	312.5
1863.16	310.94
1866.368	308.7
1869.575	314.86
1872.782	309.69
1875.989	308.66
1879.196	308.73
1882.402	306.8
1885.608	308.75
1888.814	311.26
1892.019	309.72
1895.224	310.09
1898.429	308.82
1901.634	311.68
1904.838	310.9
1908.042	316.32
1911.246	317.65
1914.449	319.76
1917.652	320.23
1920.855	319.29
1924.058	319.44
1927.26	317.88
1930.462	319.86
1933.664	323.58
1936.865	320.69
1940.066	321.04
1943.267	318.16
1946.467	318.34
1949.668	320.64
1952.868	324.5
1956.067	323.95
1959.267	324.06
1962.466	325.41
1965.665	322.76
1968.863	323.61
1972.061	327.36
1975.259	329.85
1978.457	332.94
1981.654	334.67
1984.852	335.34
1988.048	333.68
1991.245	337.37
1994.441	341.29
1997.637	343.84
2000.833	350.7
2004.028	354.48
2007.223	357.06
2010.418	361.19
2013.613	366.38
2016.807	370.78
2020.001	373.02
2023.194	379.09
2026.388	387.41
2029.581	395.02
2032.774	398.53
2035.966	406.17
2039.158	407.09
2042.35	414.98
2045.542	417.04
2048.733	423.19
2051.924	429.39
2055.115	437.03
2058.306	437.27
2061.496	443.02
2064.686	442.19
2067.875	450.08
2071.065	451.83
2074.254	449.73
2077.442	454.8
2080.631	456.68
2083.819	461.27
2087.007	461.16
2090.195	466.87
2093.382	470.48
2096.569	465.58
2099.756	474.52
2102.942	475.02
2106.128	480.14
2109.314	491.04
2112.5	488.95
2115.685	500.48
2118.87	501.58
2122.055	511.42
2125.239	515.01
2128.424	522.31
2131.608	526.89
2134.791	533.65
2137.974	536.28
2141.157	537.64
2144.34	538.45
2147.523	547.7
2150.705	542.86
2153.887	547.5
2157.068	548.87
2160.25	542.4
2163.431	544.52
2166.611	550.63
2169.792	560.68
2172.972	567.64
2176.152	569.35
2179.331	578.29
2182.511	587.57
2185.69	596.3
2188.868	608.49
2192.047	609.83
2195.225	628.29
2198.403	643.71
2201.58	654.49
2204.758	667.72
2207.935	681.82
2211.111	694.55
2214.288	702.48
2217.464	704.7
2220.64	712.34
2223.815	723.11
2226.991	753.39
2230.166	756.25
2233.34	772.47
2236.515	783.06
2239.689	785.71
2242.863	788.99
2246.036	815.35
2249.209	806.22
2252.382	819.4
2255.555	847.38
2258.727	849.55
2261.9	851.67
2265.071	859.92
2268.243	872.2
2271.414	884.09
2274.585	904.3
2277.756	912.61
2280.926	918.21
2284.096	940.26
2287.266	961.9
2290.436	967.91
2293.605	992.63
2296.774	1025.6
2299.942	1059.89
2303.111	1064.79
2306.279	1092.65
2309.447	1102.75
2312.614	1132.11
2315.781	1163.49
2318.948	1218.5
2322.115	1198.89
2325.281	1263.11
2328.447	1233.68
2331.613	1285.93
2334.779	1268.84
2337.944	1324.84
2341.109	1337.24
2344.274	1374.34
2347.438	1425.35
2350.602	1425.12
2353.766	1468.13
2356.929	1490.52
2360.092	1479.99
2363.255	1592.77
2366.418	1584.87
2369.58	1613.91
2372.742	1716.36
2375.904	1759.18
2379.066	1747.7
2382.227	1714.6
2385.388	1861.12
2388.548	1869.09
2391.709	1894
2394.869	2112.07
2398.029	2014.25
2401.188	2075.3
2404.347	2068.45
2407.506	2034.07
2410.665	2090.05
2413.823	2218.82
2416.981	2347.67
2420.139	2266.09
2423.296	2233.61
2426.453	2330.34
2429.61	2238.5
2432.767	2348.88
2435.923	2323.96
2439.079	2527.94
2442.235	2560.51
2445.391	2536.06
2448.546	2519.07
2451.701	2451.2
2454.855	2450.84
2458.009	2608.92
2461.163	2707.14
2464.317	2808.9
2467.471	2881.34
2470.624	2880.5
2473.777	2812.34
2476.929	2748.27
2480.082	2671.5
2483.234	2636.68
2486.385	2762.25
2489.537	2777.46
2492.688	2883.58
2495.839	2801.74
2498.989	2747.88
2502.14	2761.87
2505.29	2795.59
2508.439	2842.77
2511.589	2828.57
2514.738	3081.37
2517.887	3014.11
2521.035	3199.45
2524.183	3219.25
2527.331	3239.42
2530.479	3240.69
2533.627	3259.4
