Data from N_2_DEC_NC_4N_Splice17_13-26-56-809.txt Node
Date: Sat Mar 07 13:26:56 EST 2020
User: sa697716
Spectrometer: NQ5500242
Trigger mode: 0
Integration Time (sec): 1.450000E-1
Scans to average: 20
Nonlinearity correction enabled: false
Boxcar width: 5
Storing dark spectrum: false
XAxis mode: Wavelengths
Number of Pixels in Spectrum: 512
>>>>>Begin Spectral Data<<<<<
187.83	147.36
188.298	142.26
188.766	116.27
189.233	86.84
189.701	83.03
190.169	113.94
190.636	104.37
191.104	130.34
191.571	19.45
192.039	-104.49
192.506	-300.11
192.974	140.94
193.441	65.71
193.908	48.52
194.375	21.17
194.842	-76.46
195.31	-27.93
195.777	-205.89
196.244	17.9
196.711	37.6
197.177	41.34
197.644	41.3
198.111	40.73
198.578	41.54
199.045	41.72
199.511	41.37
199.978	41.83
200.445	42.01
200.911	42.22
201.378	42.61
201.844	42.31
202.31	41.86
202.777	41.97
203.243	41.81
203.709	41.2
204.176	40.85
204.642	40.75
205.108	40.65
205.574	40.39
206.04	39.85
206.506	39.44
206.972	39.45
207.438	39.35
207.903	38.87
208.369	38.51
208.835	38.34
209.301	37.6
209.766	36.78
210.232	36.15
210.697	35.27
211.163	34.75
211.628	34.09
212.094	33.19
212.559	32.63
213.024	32.08
213.49	31.43
213.955	30.57
214.42	30.21
214.885	29.75
215.35	28.83
215.815	27.73
216.28	26.26
216.745	24.81
217.21	23.5
217.675	22.25
218.14	21.09
218.604	20.27
219.069	19.56
219.534	18.9
219.998	18.38
220.463	18
220.927	17.61
221.392	17.32
221.856	17.07
222.32	16.86
222.785	16.69
223.249	16.52
223.713	16.35
224.177	16.2
224.642	15.98
225.106	15.78
225.57	15.57
226.034	15.43
226.497	15.26
226.961	15.1
227.425	14.95
227.889	14.79
228.353	14.64
228.816	14.48
229.28	14.3
229.744	14.17
230.207	14.02
230.671	13.89
231.134	13.75
231.597	13.65
232.061	13.52
232.524	13.39
232.987	13.25
233.45	13.13
233.914	13.01
234.377	12.91
234.84	12.79
235.303	12.7
235.766	12.62
236.229	12.51
236.691	12.4
237.154	12.32
237.617	12.23
238.08	12.14
238.542	12.03
239.005	11.95
239.468	11.84
239.93	11.76
240.393	11.66
240.855	11.55
241.317	11.47
241.78	11.37
242.242	11.27
242.704	11.18
243.166	11.1
243.629	11.04
244.091	10.95
244.553	10.89
245.015	10.81
245.477	10.75
245.939	10.69
246.4	10.62
246.862	10.56
247.324	10.5
247.786	10.43
248.247	10.36
248.709	10.28
249.17	10.2
249.632	10.14
250.093	10.1
250.555	10.04
251.016	9.99
251.477	9.92
251.939	9.88
252.4	9.83
252.861	9.78
253.322	9.74
253.783	9.7
254.244	9.67
254.705	9.61
255.166	9.55
255.627	9.49
256.088	9.44
256.549	9.39
257.009	9.33
257.47	9.27
257.931	9.21
258.391	9.14
258.852	9.08
259.312	9.02
259.773	8.96
260.233	8.91
260.694	8.86
261.154	8.8
261.614	8.75
262.074	8.7
262.534	8.65
262.994	8.61
263.455	8.57
263.915	8.54
264.374	8.51
264.834	8.48
265.294	8.46
265.754	8.43
266.214	8.42
266.673	8.4
267.133	8.37
267.593	8.35
268.052	8.33
268.512	8.31
268.971	8.28
269.431	8.24
269.89	8.21
270.349	8.19
270.809	8.15
271.268	8.12
271.727	8.08
272.186	8.06
272.645	8.04
273.104	8
273.563	7.97
274.022	7.94
274.481	7.91
274.94	7.88
275.399	7.84
275.857	7.82
276.316	7.79
276.775	7.77
277.233	7.74
277.692	7.71
278.15	7.69
278.609	7.66
279.067	7.64
279.525	7.62
279.984	7.58
280.442	7.56
280.9	7.53
281.358	7.51
281.816	7.48
282.274	7.45
282.732	7.41
283.19	7.37
283.648	7.33
284.106	7.3
284.564	7.26
285.021	7.24
285.479	7.21
285.937	7.17
286.394	7.14
286.852	7.1
287.309	7.08
287.767	7.05
288.224	7.03
288.682	7
289.139	6.98
289.596	6.95
290.053	6.91
290.511	6.89
290.968	6.87
291.425	6.85
291.882	6.84
292.339	6.82
292.796	6.8
293.252	6.79
293.709	6.77
294.166	6.75
294.623	6.74
295.079	6.72
295.536	6.72
295.992	6.7
296.449	6.69
296.905	6.68
297.362	6.66
297.818	6.65
298.274	6.64
298.731	6.62
299.187	6.61
299.643	6.6
300.099	6.6
300.555	6.58
301.011	6.57
301.467	6.56
301.923	6.54
302.379	6.53
302.835	6.53
303.291	6.52
303.746	6.51
304.202	6.51
304.658	6.5
305.113	6.49
305.569	6.48
306.024	6.47
306.479	6.46
306.935	6.46
307.39	6.46
307.845	6.45
308.301	6.45
308.756	6.45
309.211	6.44
309.666	6.43
310.121	6.42
310.576	6.42
311.031	6.42
311.486	6.42
311.94	6.43
312.395	6.42
312.85	6.43
313.305	6.41
313.759	6.41
314.214	6.41
314.668	6.41
315.123	6.4
315.577	6.4
316.032	6.39
316.486	6.37
316.94	6.35
317.394	6.33
317.849	6.31
318.303	6.29
318.757	6.27
319.211	6.27
319.665	6.26
320.119	6.26
320.572	6.26
321.026	6.26
321.48	6.25
321.934	6.25
322.387	6.24
322.841	6.25
323.295	6.25
323.748	6.25
324.202	6.23
324.655	6.22
325.108	6.2
325.562	6.19
326.015	6.18
326.468	6.17
326.921	6.17
327.374	6.16
327.827	6.16
328.28	6.15
328.733	6.16
329.186	6.16
329.639	6.15
330.092	6.15
330.545	6.15
330.997	6.15
331.45	6.16
331.903	6.16
332.355	6.16
332.808	6.16
333.26	6.16
333.713	6.14
334.165	6.13
334.617	6.13
335.069	6.12
335.522	6.12
335.974	6.11
336.426	6.1
336.878	6.07
337.33	6.05
337.782	6.04
338.234	6.03
338.686	6.02
339.137	6.03
339.589	6.01
340.041	6
340.493	5.98
340.944	5.96
341.396	5.96
341.847	5.95
342.299	5.94
342.75	5.94
343.201	5.93
343.653	5.92
344.104	5.9
344.555	5.9
345.006	5.88
345.457	5.87
345.908	5.87
346.359	5.86
346.81	5.86
347.261	5.85
347.712	5.83
348.163	5.82
348.613	5.82
349.064	5.82
349.515	5.81
349.965	5.8
350.416	5.79
350.866	5.78
351.317	5.76
351.767	5.76
352.217	5.76
352.668	5.77
353.118	5.76
353.568	5.75
354.018	5.75
354.468	5.77
354.918	5.77
355.368	5.77
355.818	5.78
356.268	5.78
356.718	5.79
357.168	5.78
357.617	5.77
358.067	5.76
358.517	5.77
358.966	5.78
359.416	5.77
359.865	5.79
360.315	5.79
360.764	5.8
361.213	5.81
361.663	5.81
362.112	5.83
362.561	5.85
363.01	5.86
363.459	5.85
363.908	5.85
364.357	5.86
364.806	5.86
365.255	5.86
365.703	5.86
366.152	5.88
366.601	5.88
367.05	5.88
367.498	5.88
367.947	5.88
368.395	5.9
368.844	5.9
369.292	5.89
369.74	5.9
370.189	5.9
370.637	5.91
371.085	5.9
371.533	5.92
371.981	5.93
372.429	5.94
372.877	5.95
373.325	5.95
373.773	5.96
374.221	5.97
374.669	5.99
375.116	5.99
375.564	6.01
376.012	6.02
376.459	6.03
376.907	6.04
377.354	6.06
377.801	6.08
378.249	6.11
378.696	6.12
379.143	6.15
379.591	6.17
380.038	6.19
380.485	6.22
380.932	6.24
381.379	6.27
381.826	6.29
382.273	6.32
382.72	6.32
383.166	6.35
383.613	6.37
384.06	6.39
384.506	6.41
384.953	6.44
385.4	6.47
385.846	6.51
386.292	6.54
386.739	6.57
387.185	6.6
387.631	6.64
388.078	6.68
388.524	6.71
388.97	6.74
389.416	6.79
389.862	6.84
390.308	6.87
390.754	6.92
391.2	6.96
391.645	6.99
392.091	7.05
392.537	7.09
392.983	7.13
393.428	7.18
393.874	7.22
394.319	7.26
394.765	7.3
395.21	7.33
395.655	7.37
396.101	7.41
396.546	7.47
396.991	7.51
397.436	7.55
397.881	7.6
398.326	7.65
398.771	7.7
399.216	7.75
399.661	7.8
400.106	7.85
400.551	7.89
400.995	7.92
401.44	7.94
401.885	7.97
402.329	8.01
402.774	8.04
403.218	8.08
403.663	8.12
404.107	8.15
404.551	8.17
404.995	8.2
405.44	8.23
405.884	8.26
406.328	8.29
406.772	8.31
407.216	8.33
407.66	8.35
408.104	8.34
408.547	8.36
408.991	8.38
409.435	8.39
409.879	8.39
410.322	8.42
410.766	8.44
411.209	8.48
411.653	8.51
412.096	8.53
412.54	8.56
412.983	8.58
413.426	8.61
413.869	8.62
414.312	8.65
414.756	8.67
415.199	8.68
415.642	8.69
416.085	8.69
416.527	8.68
416.97	8.67
417.413	8.68
417.856	8.69
418.298	8.69
418.741	8.7
419.184	8.69
419.626	8.7
420.069	8.71
420.511	8.72
420.953	8.73
421.396	8.74
421.838	8.76
422.28	8.76
422.722	8.77
423.164	8.79
423.606	8.79
424.048	8.8
424.49	8.81
424.932	8.8
425.374	8.79
425.816	8.76
426.258	8.75
426.699	8.73
427.141	8.72
427.582	8.72
428.024	8.72
428.465	8.72
428.907	8.7
429.348	8.7
429.789	8.7
430.231	8.72
430.672	8.74
431.113	8.75
431.554	8.78
431.995	8.8
432.436	8.8
432.877	8.8
433.318	8.83
433.759	8.86
434.2	8.88
434.64	8.9
435.081	8.91
435.522	8.93
435.962	8.97
436.403	8.99
436.843	9
437.284	9.01
437.724	9.01
438.164	9
438.604	9
439.045	9
439.485	9.03
439.925	9.04
440.365	9.06
440.805	9.07
441.245	9.1
441.685	9.15
442.125	9.21
442.564	9.26
443.004	9.31
443.444	9.35
443.883	9.4
444.323	9.43
444.762	9.47
445.202	9.52
445.641	9.57
446.081	9.62
446.52	9.65
446.959	9.7
447.398	9.75
447.837	9.78
448.276	9.82
448.716	9.86
449.154	9.93
449.593	9.97
450.032	9.99
450.471	9.99
450.91	10.01
451.349	10.04
451.787	10.05
452.226	10.07
452.664	10.1
453.103	10.11
453.541	10.15
453.98	10.15
454.418	10.16
454.856	10.17
455.295	10.2
455.733	10.19
456.171	10.19
456.609	10.2
457.047	10.2
457.485	10.21
457.923	10.21
458.361	10.2
458.798	10.2
459.236	10.21
459.674	10.21
460.111	10.21
460.549	10.23
460.987	10.24
461.424	10.24
461.862	10.24
462.299	10.24
462.736	10.24
463.173	10.25
463.611	10.26
464.048	10.25
464.485	10.27
464.922	10.28
465.359	10.28
465.796	10.28
466.233	10.29
466.67	10.29
467.106	10.3
467.543	10.3
467.98	10.3
468.416	10.29
468.853	10.29
469.29	10.29
469.726	10.28
470.162	10.29
470.599	10.29
471.035	10.29
471.471	10.29
471.907	10.28
472.344	10.28
472.78	10.3
473.216	10.3
473.652	10.32
474.088	10.31
474.523	10.33
474.959	10.33
475.395	10.33
475.831	10.33
476.266	10.34
476.702	10.34
477.138	10.36
477.573	10.36
478.008	10.37
478.444	10.36
478.879	10.37
479.314	10.36
479.75	10.38
480.185	10.39
480.62	10.39
481.055	10.4
481.49	10.41
481.925	10.41
482.36	10.43
482.795	10.44
483.229	10.46
483.664	10.48
484.099	10.5
484.534	10.51
484.968	10.54
485.403	10.56
485.837	10.58
486.271	10.62
486.706	10.65
487.14	10.67
487.574	10.71
488.009	10.75
488.443	10.78
488.877	10.84
489.311	10.88
489.745	10.93
490.179	10.99
490.613	11.05
491.046	11.1
491.48	11.17
491.914	11.25
492.348	11.32
492.781	11.4
493.215	11.47
493.648	11.54
494.082	11.62
494.515	11.69
494.948	11.77
495.382	11.86
495.815	11.97
496.248	12.05
496.681	12.14
497.114	12.23
497.547	12.33
497.98	12.44
498.413	12.55
498.846	12.67
499.279	12.79
499.711	12.89
500.144	13.02
500.577	13.14
501.009	13.27
501.442	13.4
501.874	13.54
502.306	13.67
502.739	13.82
503.171	13.97
503.603	14.11
504.036	14.26
504.468	14.42
504.9	14.57
505.332	14.74
505.764	14.92
506.196	15.1
506.627	15.28
507.059	15.47
507.491	15.65
507.923	15.83
508.354	16.04
508.786	16.25
509.217	16.46
509.649	16.67
510.08	16.87
510.512	17.07
510.943	17.29
511.374	17.5
511.805	17.71
512.237	17.92
512.668	18.15
513.099	18.36
513.53	18.57
513.961	18.79
514.391	19.01
514.822	19.24
515.253	19.44
515.684	19.62
516.114	19.84
516.545	20.05
516.975	20.27
517.406	20.47
517.836	20.68
518.267	20.89
518.697	21.08
519.127	21.26
519.558	21.46
519.988	21.67
520.418	21.87
520.848	22.05
521.278	22.23
521.708	22.57
522.138	22.73
522.567	22.89
522.997	23.06
523.427	23.22
523.857	23.37
524.286	23.51
524.716	23.65
525.145	23.79
525.575	23.94
526.004	24.08
526.433	24.03
526.863	24.15
527.292	24.26
527.721	24.36
528.15	24.46
528.579	24.57
529.008	24.66
529.437	24.73
529.866	24.81
530.295	24.9
530.724	24.98
531.152	25.05
531.581	25.14
532.01	25.21
532.438	25.28
532.867	25.34
533.295	25.38
533.723	25.45
534.152	25.51
534.58	25.56
535.008	25.58
535.436	25.63
535.865	25.67
536.293	25.71
536.721	25.73
537.149	25.76
537.576	25.79
538.004	25.84
538.432	25.86
538.86	25.88
539.287	25.9
539.715	25.93
540.143	25.94
540.57	25.96
540.998	25.97
541.425	26
541.852	26.02
542.28	26.05
542.707	26.06
543.134	26.08
543.561	26.1
543.988	26.12
544.415	26.13
544.842	26.15
545.269	26.17
545.696	26.19
546.123	26.19
546.549	26.19
546.976	26.2
547.403	26.21
547.829	26.22
548.256	26.25
548.682	26.26
549.108	26.29
549.535	26.3
549.961	26.31
550.387	26.31
550.813	26.32
551.24	26.33
551.666	26.33
552.092	26.33
552.518	26.34
552.943	26.33
553.369	26.32
553.795	26.29
554.221	26.29
554.646	26.26
555.072	26.24
555.498	26.22
555.923	26.21
556.349	26.19
556.774	26.15
557.199	26.12
557.625	26.09
558.05	26.05
558.475	26.01
558.9	25.98
559.325	25.94
559.75	25.9
560.175	25.86
560.6	25.81
561.025	25.78
561.449	25.74
561.874	25.68
562.299	25.63
562.723	25.58
563.148	25.52
563.572	25.46
563.997	25.38
564.421	25.32
564.846	25.25
565.27	25.18
565.694	25.09
566.118	25.03
566.542	24.97
566.966	24.9
567.39	24.81
567.814	24.73
568.238	24.65
568.662	24.58
569.086	24.5
569.509	24.43
569.933	24.36
570.357	24.28
570.78	24.18
571.204	24.09
571.627	24.01
572.05	23.93
572.474	23.85
572.897	23.78
573.32	23.68
573.743	23.59
574.166	23.52
574.589	23.42
575.012	23.35
575.435	23.28
575.858	23.21
576.281	23.13
576.704	23.07
577.126	22.99
577.549	22.93
577.972	22.87
578.394	22.81
578.817	22.73
579.239	22.68
579.661	22.62
580.084	22.57
580.506	22.52
580.928	22.46
581.35	22.41
581.772	22.37
582.194	22.32
582.616	22.28
583.038	22.24
583.46	22.18
583.882	22.14
584.303	22.08
584.725	22.02
585.147	22
585.568	21.96
585.99	21.92
586.411	21.87
586.833	21.82
587.254	21.77
587.675	21.73
588.096	21.69
588.518	21.66
588.939	21.64
589.36	21.61
589.781	21.58
590.202	21.55
590.623	21.53
591.043	21.5
591.464	21.48
591.885	21.46
592.305	21.44
592.726	21.43
593.147	21.42
593.567	21.39
593.987	21.38
594.408	21.34
594.828	21.31
595.248	21.31
595.669	21.3
596.089	21.27
596.509	21.28
596.929	21.27
597.349	21.25
597.769	21.24
598.189	21.22
598.608	21.21
599.028	21.21
599.448	21.21
599.867	21.16
600.287	21.15
600.706	21.14
601.126	21.11
601.545	21.07
601.965	21.05
602.384	21
602.803	20.95
603.222	20.91
603.641	20.87
604.061	20.82
604.48	20.78
604.898	20.72
605.317	20.66
605.736	20.62
606.155	20.57
606.574	20.5
606.992	20.46
607.411	20.41
607.829	20.33
608.248	20.26
608.666	20.19
609.085	20.13
609.503	20.07
609.921	20.01
610.339	19.94
610.758	19.88
611.176	19.81
611.594	19.74
612.012	19.66
612.43	19.62
612.847	19.57
613.265	19.52
613.683	19.47
614.101	19.41
614.518	19.34
614.936	19.27
615.353	19.21
615.771	19.16
616.188	19.11
616.606	19.08
617.023	19.03
617.44	18.98
617.857	18.93
618.274	18.88
618.691	18.84
619.108	18.82
619.525	18.79
619.942	18.75
620.359	18.72
620.776	18.7
621.192	18.68
621.609	18.66
622.026	18.61
622.442	18.61
622.859	18.57
623.275	18.54
623.691	18.51
624.108	18.5
624.524	18.48
624.94	18.47
625.356	18.45
625.772	18.42
626.188	18.41
626.604	18.41
627.02	18.39
627.436	18.4
627.852	18.39
628.268	18.4
628.683	18.39
629.099	18.39
629.514	18.38
629.93	18.37
630.345	18.36
630.761	18.34
631.176	18.32
631.591	18.29
632.007	18.26
632.422	18.24
632.837	18.2
633.252	18.15
633.667	18.11
634.082	18.05
634.497	18
634.911	17.95
635.326	17.89
635.741	17.83
636.155	17.78
636.57	17.71
636.984	17.64
637.399	17.56
637.813	17.48
638.228	17.39
638.642	17.31
639.056	17.22
639.47	17.12
639.884	17.02
640.298	16.92
640.712	16.82
641.126	16.7
641.54	16.59
641.954	16.49
642.368	16.39
642.781	16.29
643.195	16.19
643.609	16.09
644.022	15.99
644.436	15.9
644.849	15.8
645.262	15.71
645.676	15.62
646.089	15.54
646.502	15.46
646.915	15.38
647.328	15.31
647.741	15.22
648.154	15.16
648.567	15.11
648.98	15.04
649.393	14.97
649.805	14.92
650.218	14.88
650.631	14.83
651.043	14.77
651.456	14.72
651.868	14.66
652.28	14.62
652.693	14.57
653.105	14.51
653.517	14.46
653.929	14.41
654.341	14.33
654.753	14.25
655.165	14.17
655.577	14.09
655.989	14
656.401	13.91
656.813	13.82
657.224	13.72
657.636	13.6
658.047	13.5
658.459	13.38
658.87	13.27
659.282	13.15
659.693	13.04
660.104	12.91
660.515	12.79
660.926	12.68
661.338	12.54
661.749	12.43
662.159	12.32
662.57	12.2
662.981	12.09
663.392	11.99
663.803	11.9
664.213	11.8
664.624	11.71
665.035	11.62
665.445	11.52
665.855	11.46
666.266	11.38
666.676	11.32
667.086	11.25
667.497	11.19
667.907	11.14
668.317	11.09
668.727	11.05
669.137	11.01
669.547	10.97
669.956	10.94
670.366	10.91
670.776	10.88
671.186	10.86
671.595	10.83
672.005	10.79
672.414	10.77
672.824	10.75
673.233	10.74
673.642	10.74
674.052	10.74
674.461	10.74
674.87	10.74
675.279	10.76
675.688	10.77
676.097	10.79
676.506	10.82
676.915	10.84
677.323	10.87
677.732	10.91
678.141	10.95
678.549	10.99
678.958	11.04
679.366	11.12
679.775	11.18
680.183	11.28
680.592	11.38
681	11.5
681.408	11.64
681.816	11.78
682.224	11.95
682.632	12.12
683.04	12.31
683.448	12.52
683.856	12.74
684.264	12.99
684.671	13.23
685.079	13.5
685.487	13.8
685.894	14.12
686.302	14.45
686.709	14.79
687.116	15.16
687.524	15.53
687.931	15.92
688.338	16.32
688.745	16.73
689.152	17.14
689.559	17.58
689.966	17.99
690.373	18.41
690.78	18.84
691.187	19.27
691.593	19.69
692	20.12
692.407	20.52
692.813	20.92
693.22	21.31
693.626	21.73
694.032	22.12
694.439	22.52
694.845	22.91
695.251	23.27
695.657	23.63
696.063	24
696.469	24.35
696.875	24.7
697.281	25.05
697.687	25.39
698.093	25.7
698.498	26.02
698.904	26.33
699.31	26.59
699.715	26.89
700.12	27.15
700.526	27.42
700.931	27.67
701.337	27.92
701.742	28.14
702.147	28.38
702.552	28.6
702.957	28.8
703.362	28.99
703.767	29.2
704.172	29.39
704.577	29.6
704.981	29.81
705.386	30.01
705.791	30.18
706.195	30.37
706.6	30.55
707.004	30.72
707.408	30.89
707.813	31.07
708.217	31.23
708.621	31.39
709.025	31.53
709.43	31.66
709.834	31.8
710.237	31.93
710.641	32.06
711.045	32.17
711.449	32.3
711.853	32.47
712.256	32.57
712.66	32.71
713.064	32.82
713.467	32.94
713.87	33.07
714.274	33.17
714.677	33.3
715.08	33.42
715.484	33.55
715.887	33.68
716.29	33.75
716.693	33.87
717.096	33.96
717.499	34.07
717.901	34.15
718.304	34.23
718.707	34.34
719.109	34.42
719.512	34.5
719.915	34.59
720.317	34.62
720.719	34.68
721.122	34.76
721.524	34.82
721.926	34.88
722.328	34.96
722.731	35.01
723.133	35.08
723.535	35.16
723.937	35.22
724.338	35.27
724.74	35.33
725.142	35.48
725.544	35.54
725.945	35.62
726.347	35.67
726.748	35.71
727.15	35.75
727.551	35.79
727.952	35.81
728.354	35.87
728.755	35.9
729.156	35.93
729.557	35.88
729.958	35.9
730.359	35.9
730.76	35.92
731.161	35.95
731.562	36
731.962	36.01
732.363	36.05
732.763	36.05
733.164	36.06
733.564	36.09
733.965	36.12
734.365	36.14
734.766	36.16
735.166	36.19
735.566	36.21
735.966	36.23
736.366	36.25
736.766	36.24
737.166	36.27
737.566	36.32
737.966	36.33
738.365	36.34
738.765	36.39
739.165	36.42
739.564	36.43
739.964	36.44
740.363	36.42
740.763	36.45
741.162	36.48
741.561	36.48
741.96	36.46
742.36	36.48
742.759	36.5
743.158	36.49
743.557	36.47
743.955	36.48
744.354	36.5
744.753	36.54
745.152	36.55
745.55	36.56
745.949	36.57
746.348	36.6
746.746	36.57
747.144	36.59
747.543	36.6
747.941	36.63
748.339	36.63
748.737	36.63
749.136	36.63
749.534	36.61
749.932	36.62
750.33	36.61
750.727	36.61
751.125	36.63
751.523	36.62
751.921	36.63
752.318	36.62
752.716	36.63
753.113	36.64
753.511	36.64
753.908	36.67
754.305	36.67
754.703	36.67
755.1	36.67
755.497	36.68
755.894	36.68
756.291	36.69
756.688	36.68
757.085	36.69
757.482	36.68
757.878	36.69
758.275	36.65
758.672	36.65
759.068	36.67
759.465	36.64
759.861	36.63
760.258	36.63
760.654	36.63
761.05	36.63
761.447	36.62
761.843	36.62
762.239	36.61
762.635	36.63
763.031	36.63
763.427	36.62
763.822	36.65
764.218	36.67
764.614	36.67
765.01	36.65
765.405	36.65
765.801	36.63
766.196	36.63
766.592	36.65
766.987	36.66
767.382	36.65
767.778	36.66
768.173	36.63
768.568	36.61
768.963	36.61
769.358	36.62
769.753	36.62
770.148	36.62
770.542	36.61
770.937	36.58
771.332	36.58
771.726	36.56
772.121	36.57
772.515	36.57
772.91	36.56
773.304	36.58
773.699	36.58
774.093	36.58
774.487	36.59
774.881	36.59
775.275	36.61
775.669	36.57
776.063	36.56
776.457	36.56
776.851	36.53
777.245	36.51
777.638	36.5
778.032	36.51
778.425	36.51
778.819	36.51
779.212	36.53
779.606	36.53
779.999	36.55
780.392	36.59
780.786	36.59
781.179	36.63
781.572	36.67
781.965	36.67
782.358	36.66
782.751	36.65
783.143	36.63
783.536	36.62
783.929	36.62
784.322	36.63
784.714	36.62
785.107	36.61
785.499	36.61
785.891	36.6
786.284	36.59
786.676	36.62
787.068	36.62
787.46	36.63
787.852	36.62
788.245	36.62
788.636	36.62
789.028	36.61
789.42	36.6
789.812	36.59
790.204	36.59
790.595	36.6
790.987	36.56
791.378	36.6
791.77	36.59
792.161	36.6
792.553	36.59
792.944	36.57
793.335	36.57
793.726	36.58
794.117	36.57
794.508	36.55
794.899	36.56
795.29	36.58
795.681	36.56
796.072	36.55
796.463	36.57
796.853	36.57
797.244	36.59
797.634	36.59
798.025	36.6
798.415	36.6
798.806	36.61
799.196	36.59
799.586	36.57
799.976	36.59
800.366	36.61
800.756	36.58
801.146	36.59
801.536	36.61
801.926	36.62
802.316	36.62
802.706	36.64
803.095	36.64
803.485	36.66
803.874	36.67
804.264	36.67
804.653	36.67
805.043	36.7
805.432	36.72
805.821	36.73
806.21	36.74
806.599	36.75
806.988	36.73
807.377	36.73
807.766	36.73
808.155	36.71
808.544	36.7
808.933	36.69
809.321	36.68
809.71	36.65
810.098	36.65
810.487	36.63
810.875	36.61
811.264	36.61
811.652	36.63
812.04	36.63
812.428	36.68
812.816	36.68
813.204	36.68
813.592	36.66
813.98	36.69
814.368	36.68
814.756	36.68
815.144	36.71
815.531	36.71
815.919	36.69
816.306	36.7
816.694	36.68
817.081	36.7
817.469	36.73
817.856	36.74
818.243	36.72
818.63	36.73
819.017	36.73
819.404	36.7
819.791	36.7
820.178	36.71
820.565	36.71
820.952	36.7
821.339	36.69
821.725	36.68
822.112	36.71
822.498	36.73
822.885	36.75
823.271	36.74
823.657	36.73
824.044	36.76
824.43	36.76
824.816	36.77
825.202	36.78
825.588	36.77
825.974	36.76
826.36	36.74
826.746	36.7
827.132	36.69
827.517	36.7
827.903	36.72
828.289	36.75
828.674	36.75
829.06	36.73
829.445	36.72
829.83	36.74
830.216	36.74
830.601	36.73
830.986	36.75
831.371	36.75
831.756	36.75
832.141	36.74
832.526	36.69
832.911	36.68
833.295	36.68
833.68	36.7
834.065	36.71
834.449	36.7
834.834	36.71
835.218	36.7
835.603	36.7
835.987	36.69
836.371	36.69
836.755	36.67
837.139	36.67
837.524	36.66
837.908	36.67
838.291	36.68
838.675	36.66
839.059	36.66
839.443	36.65
839.827	36.65
840.21	36.65
840.594	36.65
840.977	36.64
841.361	36.64
841.744	36.62
842.127	36.59
842.511	36.56
842.894	36.57
843.277	36.57
843.66	36.54
844.043	36.55
844.426	36.56
844.809	36.55
845.191	36.6
845.574	36.6
845.957	36.63
846.339	36.65
846.722	36.66
847.104	36.68
847.487	36.68
847.869	36.71
848.252	36.69
848.634	36.68
849.016	36.68
849.398	36.66
849.78	36.67
850.162	36.64
850.544	36.64
850.926	36.63
851.307	36.62
851.689	36.61
852.071	36.6
852.452	36.61
852.834	36.64
853.215	36.62
853.597	36.64
853.978	36.64
854.359	36.65
854.741	36.66
855.122	36.68
855.503	36.67
855.884	36.66
856.265	36.66
856.646	36.65
857.026	36.64
857.407	36.66
857.788	36.65
858.169	36.65
858.549	36.65
858.93	36.65
859.31	36.62
859.69	36.64
860.071	36.66
860.451	36.65
860.831	36.66
861.211	36.64
861.591	36.63
861.971	36.63
862.351	36.64
862.731	36.65
863.111	36.66
863.491	36.68
863.87	36.66
864.25	36.66
864.629	36.67
865.009	36.68
865.388	36.68
865.768	36.7
866.147	36.69
866.526	36.68
866.905	36.68
867.284	36.67
867.663	36.69
868.042	36.71
868.421	36.71
868.8	36.71
869.179	36.74
869.558	36.73
869.936	36.73
870.315	36.73
870.693	36.72
871.072	36.72
871.45	36.72
871.828	36.71
872.207	36.73
872.585	36.73
872.963	36.74
873.341	36.73
873.719	36.74
874.097	36.74
874.475	36.75
874.853	36.76
875.23	36.78
875.608	36.78
875.986	36.79
876.363	36.8
876.741	36.81
877.118	36.82
877.495	36.81
877.873	36.83
878.25	36.85
878.627	36.87
879.004	36.86
879.381	36.88
879.758	36.88
880.135	36.86
880.512	36.84
880.889	36.8
881.265	36.8
881.642	36.8
882.019	36.79
882.395	36.77
882.772	36.77
883.148	36.76
883.524	36.71
883.901	36.71
884.277	36.7
884.653	36.69
885.029	36.71
885.405	36.69
885.781	36.68
886.157	36.69
886.532	36.68
886.908	36.63
887.284	36.64
887.659	36.65
888.035	36.63
888.411	36.62
888.786	36.61
889.161	36.61
889.537	36.6
889.912	36.61
890.287	36.6
890.662	36.6
891.037	36.62
891.412	36.61
891.787	36.59
892.162	36.59
892.536	36.58
892.911	36.59
893.286	36.57
893.66	36.58
894.035	36.57
894.409	36.56
894.784	36.57
895.158	36.55
895.532	36.56
895.906	36.56
896.281	36.58
896.655	36.59
897.029	36.61
897.402	36.6
897.776	36.61
898.15	36.62
898.524	36.64
898.898	36.63
899.271	36.64
899.645	36.66
900.018	36.69
900.392	36.68
900.765	36.7
901.138	36.68
901.511	36.7
901.884	36.7
902.258	36.69
902.631	36.7
903.003	36.73
903.376	36.74
903.749	36.74
904.122	36.75
904.495	36.78
904.867	36.76
905.24	36.78
905.612	36.79
905.985	36.77
906.357	36.78
906.729	36.77
907.102	36.76
907.474	36.77
907.846	36.75
908.218	36.72
908.59	36.7
908.962	36.7
909.334	36.7
909.705	36.7
910.077	36.72
910.449	36.73
910.82	36.71
911.192	36.71
911.563	36.68
911.935	36.66
912.306	36.67
912.677	36.66
913.048	36.67
913.419	36.66
913.79	36.66
914.161	36.67
914.532	36.65
914.903	36.68
915.274	36.66
915.645	36.66
916.015	36.66
916.386	36.66
916.756	36.69
917.127	36.69
917.497	36.71
917.868	36.71
918.238	36.71
918.608	36.73
918.978	36.72
919.348	36.76
919.718	36.77
920.088	36.81
920.458	36.82
920.828	36.8
921.198	36.79
921.567	36.78
921.937	36.77
922.306	36.76
922.676	36.73
923.045	36.72
923.415	36.68
923.784	36.69
924.153	36.69
924.522	36.69
924.891	36.68
925.26	36.7
925.629	36.7
925.998	36.7
926.367	36.73
926.736	36.75
927.104	36.77
927.473	36.77
927.842	36.76
928.21	36.75
928.578	36.72
928.947	36.74
929.315	36.72
929.683	36.71
930.051	36.69
930.42	36.68
930.788	36.65
931.156	36.63
931.523	36.64
931.891	36.67
932.259	36.68
932.627	36.69
932.994	36.68
933.362	36.66
933.729	36.68
934.097	36.68
934.464	36.69
934.831	36.7
935.199	36.7
935.566	36.7
935.933	36.62
936.3	36.56
936.667	36.54
937.034	36.56
937.401	36.59
937.767	36.56
938.134	36.59
938.501	36.57
938.867	36.57
939.234	36.56
939.6	36.58
939.967	36.64
940.333	36.67
940.699	36.7
941.065	36.61
941.431	36.62
941.798	36.63
942.163	36.63
942.529	36.62
942.895	36.6
943.261	36.59
943.627	36.56
943.992	36.59
944.358	36.58
944.723	36.57
945.089	36.58
945.454	36.56
945.82	36.56
946.185	36.56
946.55	36.49
946.915	36.51
947.28	36.48
947.645	36.45
948.01	36.42
948.375	36.43
948.74	36.4
949.104	36.41
949.469	36.37
949.834	36.35
950.198	36.35
950.562	36.33
950.927	36.29
951.291	36.27
951.655	36.24
952.02	36.2
952.384	36.18
952.748	36.18
953.112	36.17
953.476	36.17
953.839	36.14
954.203	36.08
954.567	36.06
954.931	36.02
955.294	36.03
955.658	36.06
956.021	36.04
956.385	36
956.748	35.98
957.111	35.93
957.474	35.89
957.837	35.84
958.2	35.83
958.563	35.81
958.926	35.84
959.289	35.81
959.652	35.74
960.015	35.77
960.377	35.76
960.74	35.77
961.102	35.8
961.465	35.84
961.827	35.91
962.189	35.92
962.552	35.95
962.914	35.9
963.276	35.94
963.638	35.98
964	35.99
964.362	36
964.724	35.95
965.085	35.9
965.447	35.86
965.809	35.79
966.17	35.8
966.532	35.84
966.893	35.89
967.255	35.85
967.616	35.84
967.977	35.82
968.338	35.8
968.699	35.83
969.061	35.88
969.421	35.94
969.782	35.98
970.143	35.96
970.504	35.93
970.865	35.93
971.225	35.93
971.586	35.9
971.946	35.91
972.307	35.94
972.667	35.95
973.027	35.96
973.388	35.89
973.748	35.91
974.108	35.97
974.468	35.98
974.828	36.06
975.188	36.08
975.548	36.11
975.907	36.11
976.267	36.12
976.627	36.1
976.986	36.04
977.346	36.03
977.705	36.04
978.064	36
978.424	35.99
978.783	35.86
979.142	35.81
979.501	35.86
979.86	35.88
980.219	35.86
980.578	35.86
980.937	35.92
981.296	35.97
981.654	35.96
982.013	35.98
982.371	35.98
982.73	36.03
983.088	36.07
983.447	35.99
983.805	35.97
984.163	35.98
984.521	36.02
984.879	35.97
985.237	36.02
985.595	36.09
985.953	36.02
986.311	36
986.669	36.02
987.026	35.99
987.384	36.07
987.741	36.05
988.099	36.1
988.456	36.01
988.814	36.01
989.171	35.94
989.528	35.82
989.885	35.88
990.242	35.9
990.599	35.89
990.956	35.95
991.313	35.93
991.67	35.91
992.027	35.91
992.383	35.94
992.74	36.06
993.096	36.08
993.453	36.14
993.809	36.13
994.165	36.08
994.522	36.15
994.878	36.18
995.234	36.28
995.59	36.36
995.946	36.34
996.302	36.44
996.658	36.4
997.013	36.42
997.369	36.46
997.725	36.59
998.08	36.76
998.436	36.81
998.791	36.81
999.147	36.74
999.502	36.73
999.857	36.8
1000.212	36.72
1000.567	36.68
1000.922	36.71
1001.277	36.66
1001.632	36.47
1001.987	36.47
1002.342	36.37
1002.696	36.35
1003.051	36.4
1003.406	36.53
1003.76	36.53
1004.114	36.56
1004.469	36.57
1004.823	36.83
1005.177	36.88
1005.531	37.03
1005.885	36.9
1006.239	36.99
1006.593	37.21
1006.947	37.22
1007.301	37.04
1007.655	36.96
1008.008	37.09
1008.362	37.28
1008.715	37.02
1009.069	37.12
1009.422	37.09
1009.776	37.14
1010.129	37.1
1010.482	36.95
1010.835	37.11
1011.188	37.18
1011.541	37.32
1011.894	37.29
1012.247	37.22
1012.6	37.3
1012.952	37.27
1013.305	37.45
1013.657	37.51
1014.01	37.6
1014.362	37.6
1014.715	37.63
1015.067	37.74
1015.419	37.86
1015.771	37.79
1016.123	37.9
1016.475	37.81
1016.827	37.95
1017.179	37.82
1017.531	38.06
1017.883	38.04
1018.234	38.27
1018.586	38.16
1018.938	38.37
1019.289	38.18
1019.64	38.31
1019.992	38.23
1020.343	38.28
1020.694	38.23
1021.045	38.39
1021.396	38.35
1021.747	38.5
1022.098	38.44
1022.449	38.44
1022.8	38.41
1023.151	38.63
1023.501	38.88
1023.852	39.16
1024.202	39.05
1024.553	38.87
1024.903	39.08
1025.253	39.14
1025.604	39.16
1025.954	38.87
1026.304	39.13
1026.654	39.19
1027.004	38.99
1027.354	38.67
1027.703	38.38
1028.053	38.48
1028.403	38.87
1028.753	38.54
1029.102	38.53
1029.452	38.55
1029.801	38.85
1030.15	38.72
1030.499	38.39
897.758	1392.84
901.051	1405.51
904.343	1396.18
907.636	1419.37
910.928	1379.4
914.22	1378.41
917.511	1360.3
920.803	1305.59
924.094	1296.01
927.384	1267.65
930.675	1212.49
933.965	1206.47
937.255	1133.86
940.544	1090.23
943.834	1038.48
947.123	1031.47
950.411	968.64
953.7	946.24
956.988	895.87
960.276	859.45
963.563	845.76
966.851	816.3
970.138	808.46
973.424	781.76
976.711	785.32
979.997	746.74
983.283	741.2
986.568	726.92
989.853	704.41
993.138	689.38
996.423	665.56
999.708	645.85
1002.992	637.43
1006.275	609.83
1009.559	604.65
1012.842	583.28
1016.125	566.15
1019.408	556.39
1022.69	547.57
1025.972	537.51
1029.254	524.87
1032.536	514.55
1035.817	504.23
1039.098	497.84
1042.379	486.69
1045.659	480.68
1048.939	468.59
1052.219	460.17
1055.498	453.1
1058.778	443.04
1062.057	431.81
1065.335	426.29
1068.614	421.75
1071.892	416.65
1075.17	403.49
1078.447	395.43
1081.724	392.79
1085.001	390.21
1088.278	380.65
1091.554	373.12
1094.83	374.34
1098.106	371.55
1101.382	369.02
1104.657	366.01
1107.932	360.23
1111.206	361.81
1114.481	353.57
1117.755	349.64
1121.029	345.93
1124.302	346.53
1127.575	338.82
1130.848	334.33
1134.121	331.2
1137.393	328.6
1140.665	321.17
1143.937	319.43
1147.208	318.15
1150.48	316.96
1153.75	312.63
1157.021	308.67
1160.291	308.42
1163.561	305.77
1166.831	305.57
1170.101	302.82
1173.37	303.77
1176.639	304.36
1179.907	301.32
1183.176	296.95
1186.444	296.83
1189.711	296.79
1192.979	295.7
1196.246	293.48
1199.513	294.32
1202.78	292.27
1206.046	292.46
1209.312	288.01
1212.578	288.72
1215.843	290.67
1219.108	289.53
1222.373	295.38
1225.638	296.71
1228.902	301.01
1232.166	301.65
1235.43	304.44
1238.693	308.15
1241.956	310.18
1245.219	315.19
1248.482	314.99
1251.744	315.08
1255.006	316.48
1258.268	307.64
1261.529	305.62
1264.79	303.4
1268.051	301.41
1271.312	297.93
1274.572	293.99
1277.832	291.42
1281.092	286.63
1284.351	284.57
1287.61	284.4
1290.869	280.02
1294.128	278.95
1297.386	278.49
1300.644	274.99
1303.902	276.6
1307.159	274.6
1310.416	275.29
1313.673	274.71
1316.93	277.48
1320.186	277.76
1323.442	278.56
1326.697	282.85
1329.953	284.6
1333.208	285.7
1336.463	289.29
1339.717	289.33
1342.972	292.68
1346.226	295.46
1349.479	295.77
1352.733	297.07
1355.986	299.1
1359.238	299.07
1362.491	300.9
1365.743	303.1
1368.995	303.38
1372.247	303.07
1375.498	302.48
1378.749	306.18
1382	301.68
1385.251	303.13
1388.501	301.95
1391.751	302.94
1395	301.9
1398.25	299.54
1401.499	298.26
1404.748	298.05
1407.996	296.41
1411.244	295.52
1414.492	293.22
1417.74	291.7
1420.987	287.14
1424.234	287.43
1427.481	283.26
1430.728	283.47
1433.974	280.57
1437.22	277.96
1440.465	277.73
1443.711	275.12
1446.956	274.02
1450.201	270.74
1453.445	267.97
1456.689	267.12
1459.933	261.95
1463.177	259.63
1466.42	255.12
1469.663	252.07
1472.906	250.88
1476.148	243.45
1479.391	240.31
1482.633	237.68
1485.874	233.35
1489.115	231.97
1492.356	229.2
1495.597	228.88
1498.838	225.25
1502.078	223.88
1505.318	222.96
1508.557	222.3
1511.797	222.04
1515.036	220.89
1518.274	220.25
1521.513	218.36
1524.751	217.73
1527.989	217.2
1531.227	215.48
1534.464	216.14
1537.701	214.12
1540.938	213.45
1544.174	210.86
1547.41	210.75
1550.646	209.61
1553.882	209.36
1557.117	206.82
1560.352	205.66
1563.587	204.79
1566.821	203.55
1570.055	201.33
1573.289	200.1
1576.523	199.64
1579.756	198.11
1582.989	196.94
1586.222	196.55
1589.454	194.73
1592.686	196.77
1595.918	195.43
1599.15	194.57
1602.381	194.95
1605.612	194.92
1608.843	195.63
1612.073	195.21
1615.303	196.49
1618.533	195.88
1621.762	195.61
1624.992	196.74
1628.221	195.97
1631.449	196.32
1634.678	195.62
1637.906	196.23
1641.134	196.86
1644.361	196.3
1647.588	197.15
1650.815	195.94
1654.042	195.57
1657.269	196.63
1660.495	196.31
1663.72	195.73
1666.946	196.52
1670.171	197.35
1673.396	197.49
1676.621	196.97
1679.845	197.46
1683.069	197.6
1686.293	198.94
1689.517	200.11
1692.74	199.78
1695.963	200.21
1699.185	202.07
1702.408	202.08
1705.63	203.05
1708.852	203.13
1712.073	203.76
1715.294	204.24
1718.515	205.48
1721.736	205.07
1724.956	205.93
1728.176	205.98
1731.396	207.77
1734.616	207.09
1737.835	207.99
1741.054	206.63
1744.272	207.45
1747.491	209.12
1750.709	209.36
1753.927	208.96
1757.144	208.55
1760.361	209.11
1763.578	209.92
1766.795	209.59
1770.011	211.61
1773.227	211.37
1776.443	213.81
1779.658	215.19
1782.874	214.65
1786.089	215.69
1789.303	216.44
1792.518	219.54
1795.732	219.38
1798.945	221.67
1802.159	221.57
1805.372	221.51
1808.585	225.42
1811.797	226.13
1815.01	225.83
1818.222	227.74
1821.434	230.26
1824.645	230.85
1827.856	234.18
1831.067	236.6
1834.278	235.8
1837.488	238.04
1840.698	239.83
1843.908	237.71
1847.117	239.27
1850.326	241.16
1853.535	240.79
1856.744	243.52
1859.952	243.91
1863.16	242.99
1866.368	241.01
1869.575	244.18
1872.782	240.62
1875.989	240.48
1879.196	240.21
1882.402	239.11
1885.608	240.15
1888.814	240.85
1892.019	240.31
1895.224	240.21
1898.429	238.88
1901.634	241.35
1904.838	240.73
1908.042	244.06
1911.246	245.18
1914.449	246.65
1917.652	246.82
1920.855	246.92
1924.058	246.75
1927.26	245.73
1930.462	246.53
1933.664	249.24
1936.865	247.36
1940.066	247.78
1943.267	246.1
1946.467	245.52
1949.668	247.2
1952.868	250.13
1956.067	249.56
1959.267	250.1
1962.466	251.05
1965.665	249.66
1968.863	250.09
1972.061	253.92
1975.259	255.36
1978.457	257.07
1981.654	259.75
1984.852	260.07
1988.048	259.26
1991.245	261.63
1994.441	264.33
1997.637	266.35
2000.833	271.68
2004.028	275.41
2007.223	275.26
2010.418	278.66
2013.613	283.71
2016.807	285.89
2020.001	288.14
2023.194	292.47
2026.388	298.7
2029.581	305.08
2032.774	307.96
2035.966	313.56
2039.158	313.89
2042.35	320.6
2045.542	323.41
2048.733	327.99
2051.924	332.56
2055.115	338.38
2058.306	339.04
2061.496	342.87
2064.686	342.73
2067.875	348.24
2071.065	349.33
2074.254	347.89
2077.442	351.49
2080.631	353.25
2083.819	356.6
2087.007	357.05
2090.195	360.59
2093.382	363.96
2096.569	361.3
2099.756	368.14
2102.942	368.92
2106.128	372.13
2109.314	381.04
2112.5	380.4
2115.685	387.73
2118.87	388.9
2122.055	396.8
2125.239	400.02
2128.424	404.24
2131.608	408.68
2134.791	414.12
2137.974	414.66
2141.157	416.09
2144.34	416.96
2147.523	423.27
2150.705	419.84
2153.887	424.42
2157.068	424.87
2160.25	420.68
2163.431	422.9
2166.611	426.65
2169.792	434.31
2172.972	439.71
2176.152	442.39
2179.331	448.57
2182.511	455.62
2185.69	461.15
2188.868	468.95
2192.047	470.96
2195.225	485.02
2198.403	498.31
2201.58	506.96
2204.758	515.47
2207.935	525.99
2211.111	536.12
2214.288	542
2217.464	543.3
2220.64	552.49
2223.815	560.09
2226.991	581.37
2230.166	583.15
2233.34	591.61
2236.515	601.43
2239.689	602.11
2242.863	605.89
2246.036	624.9
2249.209	620.55
2252.382	631.71
2255.555	649.12
2258.727	652.08
2261.9	655.6
2265.071	662.09
2268.243	673.04
2271.414	681.44
2274.585	696.36
2277.756	705.61
2280.926	708
2284.096	723.68
2287.266	740.49
2290.436	747.58
2293.605	765.21
2296.774	788.68
2299.942	814.98
2303.111	817.65
2306.279	837.13
2309.447	849.2
2312.614	869.61
2315.781	892.4
2318.948	935.25
2322.115	920.73
2325.281	971.01
2328.447	947.82
2331.613	991.59
2334.779	977.66
2337.944	1021.27
2341.109	1030.52
2344.274	1054.57
2347.438	1095.58
2350.602	1096.48
2353.766	1129.68
2356.929	1145.63
2360.092	1136.62
2363.255	1222.77
2366.418	1213.13
2369.58	1237.92
2372.742	1316.79
2375.904	1348.24
2379.066	1344.97
2382.227	1311.86
2385.388	1426.62
2388.548	1426.4
2391.709	1444.64
2394.869	1610.9
2398.029	1538.7
2401.188	1585.22
2404.347	1574
2407.506	1545.45
2410.665	1593.14
2413.823	1688.64
2416.981	1790.05
2420.139	1731.1
2423.296	1711.84
2426.453	1786.66
2429.61	1716.58
2432.767	1795.57
2435.923	1773.67
2439.079	1945.79
2442.235	1974.28
2445.391	1951.04
2448.546	1935.11
2451.701	1883.6
2454.855	1878.71
2458.009	1995.4
2461.163	2079.67
2464.317	2157.41
2467.471	2214.56
2470.624	2218.92
2473.777	2151.66
2476.929	2093.9
2480.082	2040.9
2483.234	2017.43
2486.385	2120.98
2489.537	2129.93
2492.688	2206.7
2495.839	2145.26
2498.989	2098.72
2502.14	2112.74
2505.29	2134.02
2508.439	2170.85
2511.589	2168.11
2514.738	2354.12
2517.887	2306.43
2521.035	2433.85
2524.183	2459.92
2527.331	2477.91
2530.479	2466.15
2533.627	2482.77
