Data from N_2_DEC_CT_2N_Splice17_13-31-38-773.txt Node
Date: Sat Mar 07 13:31:38 EST 2020
User: sa697716
Spectrometer: NQ5500242
Trigger mode: 0
Integration Time (sec): 1.450000E-1
Scans to average: 20
Nonlinearity correction enabled: false
Boxcar width: 5
Storing dark spectrum: false
XAxis mode: Wavelengths
Number of Pixels in Spectrum: 512
>>>>>Begin Spectral Data<<<<<
187.83	152.29
188.298	163.46
188.766	150.82
189.233	114.65
189.701	112.53
190.169	124.13
190.636	100.75
191.104	32.92
191.571	-265.82
192.039	-321.98
192.506	-645.84
192.974	151.49
193.441	242.23
193.908	79.06
194.375	50.03
194.842	-13.51
195.31	-21.39
195.777	-73.38
196.244	47.8
196.711	59.37
197.177	61.16
197.644	61.98
198.111	62.56
198.578	63.03
199.045	63.87
199.511	64.04
199.978	64.15
200.445	64.51
200.911	64.27
201.378	64.26
201.844	64.22
202.31	64.08
202.777	64.37
203.243	64.34
203.709	64.04
204.176	63.7
204.642	63.45
205.108	63.47
205.574	62.82
206.04	62.31
206.506	62.04
206.972	61.86
207.438	61.81
207.903	60.93
208.369	60.11
208.835	59.36
209.301	58.56
209.766	57.35
210.232	56.43
210.697	55.68
211.163	54.99
211.628	54.2
212.094	53.44
212.559	52.69
213.024	52.13
213.49	51.61
213.955	51.04
214.42	50.36
214.885	49.59
215.35	48.61
215.815	47.43
216.28	45.7
216.745	44.04
217.21	42.2
217.675	40.57
218.14	39.23
218.604	38.08
219.069	37.17
219.534	36.47
219.998	35.96
220.463	35.44
220.927	34.95
221.392	34.6
221.856	34.25
222.32	34
222.785	33.73
223.249	33.48
223.713	33.24
224.177	32.99
224.642	32.72
225.106	32.41
225.57	32.12
226.034	31.89
226.497	31.65
226.961	31.42
227.425	31.19
227.889	30.97
228.353	30.72
228.816	30.45
229.28	30.21
229.744	29.98
230.207	29.73
230.671	29.51
231.134	29.28
231.597	29.06
232.061	28.83
232.524	28.59
232.987	28.37
233.45	28.19
233.914	27.98
234.377	27.78
234.84	27.57
235.303	27.41
235.766	27.22
236.229	27.03
236.691	26.84
237.154	26.65
237.617	26.49
238.08	26.33
238.542	26.14
239.005	25.98
239.468	25.79
239.93	25.63
240.393	25.46
240.855	25.26
241.317	25.07
241.78	24.9
242.242	24.72
242.704	24.55
243.166	24.36
243.629	24.19
244.091	24.03
244.553	23.87
245.015	23.7
245.477	23.54
245.939	23.39
246.4	23.26
246.862	23.13
247.324	22.99
247.786	22.84
248.247	22.7
248.709	22.56
249.17	22.41
249.632	22.29
250.093	22.17
250.555	22.07
251.016	21.96
251.477	21.84
251.939	21.72
252.4	21.63
252.861	21.54
253.322	21.44
253.783	21.37
254.244	21.29
254.705	21.19
255.166	21.1
255.627	21
256.088	20.93
256.549	20.85
257.009	20.77
257.47	20.67
257.931	20.57
258.391	20.48
258.852	20.38
259.312	20.29
259.773	20.22
260.233	20.16
260.694	20.1
261.154	20.02
261.614	19.95
262.074	19.9
262.534	19.85
262.994	19.82
263.455	19.79
263.915	19.76
264.374	19.74
264.834	19.72
265.294	19.69
265.754	19.67
266.214	19.66
266.673	19.65
267.133	19.65
267.593	19.64
268.052	19.64
268.512	19.64
268.971	19.63
269.431	19.63
269.89	19.62
270.349	19.63
270.809	19.62
271.268	19.6
271.727	19.59
272.186	19.58
272.645	19.57
273.104	19.55
273.563	19.53
274.022	19.51
274.481	19.48
274.94	19.47
275.399	19.43
275.857	19.42
276.316	19.39
276.775	19.37
277.233	19.34
277.692	19.31
278.15	19.28
278.609	19.26
279.067	19.24
279.525	19.21
279.984	19.18
280.442	19.13
280.9	19.1
281.358	19.06
281.816	19.02
282.274	18.99
282.732	18.94
283.19	18.9
283.648	18.85
284.106	18.81
284.564	18.76
285.021	18.73
285.479	18.69
285.937	18.65
286.394	18.62
286.852	18.59
287.309	18.55
287.767	18.51
288.224	18.46
288.682	18.42
289.139	18.38
289.596	18.33
290.053	18.28
290.511	18.26
290.968	18.21
291.425	18.17
291.882	18.14
292.339	18.1
292.796	18.07
293.252	18.04
293.709	18.01
294.166	17.98
294.623	17.95
295.079	17.93
295.536	17.89
295.992	17.86
296.449	17.84
296.905	17.81
297.362	17.78
297.818	17.75
298.274	17.72
298.731	17.69
299.187	17.65
299.643	17.61
300.099	17.58
300.555	17.53
301.011	17.5
301.467	17.46
301.923	17.42
302.379	17.38
302.835	17.34
303.291	17.3
303.746	17.26
304.202	17.23
304.658	17.19
305.113	17.15
305.569	17.12
306.024	17.08
306.479	17.04
306.935	17
307.39	16.97
307.845	16.93
308.301	16.9
308.756	16.87
309.211	16.84
309.666	16.82
310.121	16.79
310.576	16.76
311.031	16.72
311.486	16.69
311.94	16.67
312.395	16.63
312.85	16.61
313.305	16.58
313.759	16.55
314.214	16.52
314.668	16.49
315.123	16.46
315.577	16.42
316.032	16.38
316.486	16.33
316.94	16.29
317.394	16.24
317.849	16.2
318.303	16.16
318.757	16.11
319.211	16.08
319.665	16.04
320.119	16.01
320.572	15.97
321.026	15.94
321.48	15.91
321.934	15.88
322.387	15.85
322.841	15.83
323.295	15.8
323.748	15.77
324.202	15.73
324.655	15.69
325.108	15.67
325.562	15.64
326.015	15.61
326.468	15.59
326.921	15.57
327.374	15.53
327.827	15.51
328.28	15.48
328.733	15.45
329.186	15.42
329.639	15.39
330.092	15.36
330.545	15.34
330.997	15.31
331.45	15.28
331.903	15.27
332.355	15.25
332.808	15.23
333.26	15.2
333.713	15.18
334.165	15.16
334.617	15.16
335.069	15.14
335.522	15.12
335.974	15.12
336.426	15.1
336.878	15.08
337.33	15.06
337.782	15.05
338.234	15.03
338.686	15.01
339.137	14.98
339.589	14.94
340.041	14.92
340.493	14.87
340.944	14.83
341.396	14.8
341.847	14.77
342.299	14.73
342.75	14.69
343.201	14.66
343.653	14.63
344.104	14.59
344.555	14.57
345.006	14.54
345.457	14.51
345.908	14.48
346.359	14.46
346.81	14.42
347.261	14.39
347.712	14.37
348.163	14.34
348.613	14.33
349.064	14.31
349.515	14.29
349.965	14.27
350.416	14.25
350.866	14.22
351.317	14.21
351.767	14.2
352.217	14.19
352.668	14.17
353.118	14.17
353.568	14.14
354.018	14.15
354.468	14.15
354.918	14.12
355.368	14.13
355.818	14.13
356.268	14.11
356.718	14.12
357.168	14.11
357.617	14.1
358.067	14.09
358.517	14.11
358.966	14.09
359.416	14.08
359.865	14.08
360.315	14.08
360.764	14.07
361.213	14.06
361.663	14.04
362.112	14.04
362.561	14.03
363.01	14.01
363.459	13.98
363.908	13.96
364.357	13.95
364.806	13.92
365.255	13.91
365.703	13.9
366.152	13.88
366.601	13.86
367.05	13.85
367.498	13.82
367.947	13.8
368.395	13.8
368.844	13.79
369.292	13.76
369.74	13.75
370.189	13.72
370.637	13.7
371.085	13.67
371.533	13.66
371.981	13.65
372.429	13.63
372.877	13.63
373.325	13.6
373.773	13.58
374.221	13.56
374.669	13.54
375.116	13.52
375.564	13.51
376.012	13.5
376.459	13.47
376.907	13.47
377.354	13.47
377.801	13.45
378.249	13.45
378.696	13.42
379.143	13.42
379.591	13.41
380.038	13.41
380.485	13.4
380.932	13.38
381.379	13.38
381.826	13.35
382.273	13.35
382.72	13.32
383.166	13.3
383.613	13.28
384.06	13.25
384.506	13.24
384.953	13.22
385.4	13.21
385.846	13.22
386.292	13.21
386.739	13.19
387.185	13.17
387.631	13.18
388.078	13.17
388.524	13.18
388.97	13.19
389.416	13.21
389.862	13.21
390.308	13.21
390.754	13.23
391.2	13.25
391.645	13.26
392.091	13.29
392.537	13.3
392.983	13.31
393.428	13.32
393.874	13.34
394.319	13.33
394.765	13.33
395.21	13.34
395.655	13.35
396.101	13.36
396.546	13.38
396.991	13.41
397.436	13.43
397.881	13.48
398.326	13.51
398.771	13.54
399.216	13.59
399.661	13.63
400.106	13.68
400.551	13.7
400.995	13.74
401.44	13.76
401.885	13.79
402.329	13.82
402.774	13.84
403.218	13.88
403.663	13.92
404.107	13.95
404.551	13.97
404.995	13.99
405.44	14.03
405.884	14.06
406.328	14.11
406.772	14.13
407.216	14.16
407.66	14.19
408.104	14.21
408.547	14.24
408.991	14.27
409.435	14.3
409.879	14.34
410.322	14.39
410.766	14.43
411.209	14.46
411.653	14.52
412.096	14.56
412.54	14.6
412.983	14.64
413.426	14.72
413.869	14.77
414.312	14.84
414.756	14.89
415.199	14.92
415.642	14.95
416.085	14.99
416.527	15.01
416.97	15.02
417.413	15.04
417.856	15.05
418.298	15.04
418.741	15.05
419.184	15.08
419.626	15.1
420.069	15.13
420.511	15.15
420.953	15.18
421.396	15.21
421.838	15.25
422.28	15.28
422.722	15.34
423.164	15.37
423.606	15.4
424.048	15.41
424.49	15.41
424.932	15.42
425.374	15.42
425.816	15.4
426.258	15.4
426.699	15.4
427.141	15.39
427.582	15.4
428.024	15.42
428.465	15.43
428.907	15.42
429.348	15.42
429.789	15.43
430.231	15.47
430.672	15.51
431.113	15.54
431.554	15.58
431.995	15.62
432.436	15.63
432.877	15.66
433.318	15.69
433.759	15.73
434.2	15.77
434.64	15.79
435.081	15.81
435.522	15.82
435.962	15.83
436.403	15.86
436.843	15.85
437.284	15.87
437.724	15.88
438.164	15.86
438.604	15.87
439.045	15.87
439.485	15.87
439.925	15.88
440.365	15.9
440.805	15.91
441.245	15.95
441.685	15.99
442.125	16.02
442.564	16.04
443.004	16.08
443.444	16.12
443.883	16.15
444.323	16.19
444.762	16.23
445.202	16.28
445.641	16.34
446.081	16.37
446.52	16.4
446.959	16.44
447.398	16.5
447.837	16.53
448.276	16.57
448.716	16.62
449.154	16.66
449.593	16.7
450.032	16.71
450.471	16.69
450.91	16.68
451.349	16.7
451.787	16.7
452.226	16.7
452.664	16.7
453.103	16.69
453.541	16.67
453.98	16.68
454.418	16.67
454.856	16.67
455.295	16.67
455.733	16.66
456.171	16.66
456.609	16.67
457.047	16.65
457.485	16.64
457.923	16.65
458.361	16.65
458.798	16.65
459.236	16.64
459.674	16.62
460.111	16.62
460.549	16.63
460.987	16.62
461.424	16.61
461.862	16.64
462.299	16.63
462.736	16.61
463.173	16.6
463.611	16.57
464.048	16.58
464.485	16.58
464.922	16.58
465.359	16.57
465.796	16.56
466.233	16.55
466.67	16.52
467.106	16.52
467.543	16.52
467.98	16.51
468.416	16.5
468.853	16.49
469.29	16.47
469.726	16.44
470.162	16.43
470.599	16.44
471.035	16.42
471.471	16.41
471.907	16.4
472.344	16.41
472.78	16.41
473.216	16.39
473.652	16.39
474.088	16.37
474.523	16.39
474.959	16.38
475.395	16.35
475.831	16.34
476.266	16.33
476.702	16.32
477.138	16.3
477.573	16.28
478.008	16.29
478.444	16.27
478.879	16.28
479.314	16.25
479.75	16.24
480.185	16.23
480.62	16.22
481.055	16.21
481.49	16.2
481.925	16.19
482.36	16.19
482.795	16.18
483.229	16.19
483.664	16.2
484.099	16.21
484.534	16.22
484.968	16.23
485.403	16.25
485.837	16.27
486.271	16.3
486.706	16.32
487.14	16.34
487.574	16.37
488.009	16.41
488.443	16.45
488.877	16.49
489.311	16.54
489.745	16.6
490.179	16.65
490.613	16.72
491.046	16.78
491.48	16.85
491.914	16.93
492.348	17
492.781	17.08
493.215	17.15
493.648	17.24
494.082	17.33
494.515	17.41
494.948	17.51
495.382	17.59
495.815	17.69
496.248	17.81
496.681	17.93
497.114	18.04
497.547	18.14
497.98	18.26
498.413	18.39
498.846	18.51
499.279	18.64
499.711	18.78
500.144	18.93
500.577	19.07
501.009	19.2
501.442	19.35
501.874	19.53
502.306	19.7
502.739	19.9
503.171	20.07
503.603	20.26
504.036	20.46
504.468	20.65
504.9	20.84
505.332	21.05
505.764	21.26
506.196	21.48
506.627	21.7
507.059	21.92
507.491	22.14
507.923	22.37
508.354	22.63
508.786	22.87
509.217	23.14
509.649	23.41
510.08	23.67
510.512	23.94
510.943	24.2
511.374	24.46
511.805	24.73
512.237	25.02
512.668	25.31
513.099	25.57
513.53	25.85
513.961	26.1
514.391	26.37
514.822	26.66
515.253	26.93
515.684	27.19
516.114	27.47
516.545	27.74
516.975	28
517.406	28.26
517.836	28.54
518.267	28.8
518.697	29.06
519.127	29.29
519.558	29.55
519.988	29.82
520.418	30.07
520.848	30.3
521.278	30.54
521.708	30.84
522.138	31.07
522.567	31.27
522.997	31.48
523.427	31.7
523.857	31.93
524.286	32.11
524.716	32.28
525.145	32.47
525.575	32.67
526.004	32.85
526.433	32.96
526.863	33.14
527.292	33.3
527.721	33.44
528.15	33.58
528.579	33.73
529.008	33.88
529.437	34.01
529.866	34.14
530.295	34.26
530.724	34.39
531.152	34.51
531.581	34.61
532.01	34.74
532.438	34.87
532.867	34.97
533.295	35.07
533.723	35.15
534.152	35.24
534.58	35.31
535.008	35.37
535.436	35.45
535.865	35.5
536.293	35.56
536.721	35.63
537.149	35.68
537.576	35.75
538.004	35.82
538.432	35.88
538.86	35.92
539.287	35.98
539.715	36.03
540.143	36.06
540.57	36.11
540.998	36.14
541.425	36.17
541.852	36.21
542.28	36.24
542.707	36.26
543.134	36.3
543.561	36.34
543.988	36.37
544.415	36.39
544.842	36.42
545.269	36.46
545.696	36.51
546.123	36.52
546.549	36.56
546.976	36.6
547.403	36.64
547.829	36.65
548.256	36.68
548.682	36.7
549.108	36.75
549.535	36.79
549.961	36.79
550.387	36.8
550.813	36.83
551.24	36.83
551.666	36.84
552.092	36.85
552.518	36.87
552.943	36.87
553.369	36.89
553.795	36.87
554.221	36.84
554.646	36.83
555.072	36.84
555.498	36.81
555.923	36.78
556.349	36.74
556.774	36.69
557.199	36.64
557.625	36.59
558.05	36.54
558.475	36.49
558.9	36.45
559.325	36.41
559.75	36.35
560.175	36.31
560.6	36.22
561.025	36.15
561.449	36.08
561.874	36
562.299	35.92
562.723	35.83
563.148	35.73
563.572	35.6
563.997	35.49
564.421	35.37
564.846	35.26
565.27	35.16
565.694	35.06
566.118	34.94
566.542	34.82
566.966	34.7
567.39	34.6
567.814	34.48
568.238	34.37
568.662	34.27
569.086	34.14
569.509	34.02
569.933	33.9
570.357	33.78
570.78	33.65
571.204	33.54
571.627	33.43
572.05	33.31
572.474	33.21
572.897	33.13
573.32	33.02
573.743	32.92
574.166	32.82
574.589	32.72
575.012	32.63
575.435	32.56
575.858	32.46
576.281	32.36
576.704	32.26
577.126	32.17
577.549	32.07
577.972	31.98
578.394	31.88
578.817	31.79
579.239	31.72
579.661	31.65
580.084	31.56
580.506	31.48
580.928	31.41
581.35	31.34
581.772	31.27
582.194	31.18
582.616	31.12
583.038	31.07
583.46	31
583.882	30.93
584.303	30.87
584.725	30.81
585.147	30.75
585.568	30.7
585.99	30.63
586.411	30.57
586.833	30.53
587.254	30.46
587.675	30.4
588.096	30.35
588.518	30.31
588.939	30.26
589.36	30.19
589.781	30.15
590.202	30.1
590.623	30.05
591.043	30
591.464	29.97
591.885	29.93
592.305	29.89
592.726	29.85
593.147	29.78
593.567	29.75
593.987	29.72
594.408	29.67
594.828	29.6
595.248	29.58
595.669	29.52
596.089	29.48
596.509	29.43
596.929	29.37
597.349	29.32
597.769	29.27
598.189	29.22
598.608	29.17
599.028	29.14
599.448	29.11
599.867	29.04
600.287	29
600.706	28.95
601.126	28.89
601.545	28.85
601.965	28.83
602.384	28.78
602.803	28.73
603.222	28.66
603.641	28.61
604.061	28.57
604.48	28.5
604.898	28.45
605.317	28.39
605.736	28.35
606.155	28.29
606.574	28.23
606.992	28.17
607.411	28.11
607.829	28.04
608.248	27.97
608.666	27.9
609.085	27.86
609.503	27.81
609.921	27.74
610.339	27.68
610.758	27.62
611.176	27.54
611.594	27.47
612.012	27.41
612.43	27.35
612.847	27.3
613.265	27.21
613.683	27.14
614.101	27.07
614.518	26.99
614.936	26.92
615.353	26.84
615.771	26.78
616.188	26.72
616.606	26.65
617.023	26.6
617.44	26.53
617.857	26.48
618.274	26.42
618.691	26.37
619.108	26.33
619.525	26.28
619.942	26.25
620.359	26.19
620.776	26.16
621.192	26.15
621.609	26.12
622.026	26.1
622.442	26.07
622.859	26.04
623.275	26.02
623.691	26
624.108	26
624.524	25.98
624.94	25.98
625.356	25.97
625.772	25.95
626.188	25.93
626.604	25.91
627.02	25.91
627.436	25.9
627.852	25.9
628.268	25.88
628.683	25.86
629.099	25.86
629.514	25.83
629.93	25.8
630.345	25.76
630.761	25.72
631.176	25.68
631.591	25.62
632.007	25.57
632.422	25.51
632.837	25.44
633.252	25.36
633.667	25.25
634.082	25.16
634.497	25.05
634.911	24.94
635.326	24.82
635.741	24.69
636.155	24.54
636.57	24.4
636.984	24.24
637.399	24.07
637.813	23.9
638.228	23.72
638.642	23.54
639.056	23.36
639.47	23.17
639.884	22.99
640.298	22.79
640.712	22.58
641.126	22.38
641.54	22.17
641.954	21.98
642.368	21.78
642.781	21.59
643.195	21.4
643.609	21.21
644.022	21.04
644.436	20.87
644.849	20.71
645.262	20.58
645.676	20.42
646.089	20.28
646.502	20.17
646.915	20.06
647.328	19.97
647.741	19.87
648.154	19.77
648.567	19.69
648.98	19.61
649.393	19.55
649.805	19.49
650.218	19.45
650.631	19.4
651.043	19.33
651.456	19.28
651.868	19.23
652.28	19.18
652.693	19.14
653.105	19.09
653.517	19.04
653.929	18.98
654.341	18.92
654.753	18.85
655.165	18.79
655.577	18.73
655.989	18.66
656.401	18.56
656.813	18.48
657.224	18.38
657.636	18.27
658.047	18.16
658.459	18.05
658.87	17.95
659.282	17.81
659.693	17.7
660.104	17.56
660.515	17.42
660.926	17.3
661.338	17.19
661.749	17.05
662.159	16.94
662.57	16.83
662.981	16.71
663.392	16.58
663.803	16.47
664.213	16.34
664.624	16.24
665.035	16.14
665.445	16.04
665.855	15.93
666.266	15.84
666.676	15.76
667.086	15.67
667.497	15.59
667.907	15.53
668.317	15.48
668.727	15.42
669.137	15.36
669.547	15.31
669.956	15.26
670.366	15.22
670.776	15.19
671.186	15.17
671.595	15.13
672.005	15.1
672.414	15.08
672.824	15.06
673.233	15.06
673.642	15.07
674.052	15.05
674.461	15.04
674.87	15.05
675.279	15.08
675.688	15.09
676.097	15.13
676.506	15.17
676.915	15.21
677.323	15.25
677.732	15.3
678.141	15.36
678.549	15.43
678.958	15.54
679.366	15.66
679.775	15.75
680.183	15.9
680.592	16.06
681	16.24
681.408	16.45
681.816	16.69
682.224	16.95
682.632	17.22
683.04	17.52
683.448	17.85
683.856	18.18
684.264	18.56
684.671	18.96
685.079	19.39
685.487	19.85
685.894	20.33
686.302	20.83
686.709	21.37
687.116	21.93
687.524	22.52
687.931	23.13
688.338	23.75
688.745	24.39
689.152	25.03
689.559	25.7
689.966	26.38
690.373	27.05
690.78	27.73
691.187	28.38
691.593	29.04
692	29.7
692.407	30.35
692.813	31.02
693.22	31.66
693.626	32.28
694.032	32.91
694.439	33.5
694.845	34.11
695.251	34.69
695.657	35.27
696.063	35.85
696.469	36.4
696.875	36.94
697.281	37.42
697.687	37.94
698.093	38.44
698.498	38.9
698.904	39.37
699.31	39.82
699.715	40.27
700.12	40.68
700.526	41.08
700.931	41.47
701.337	41.85
701.742	42.24
702.147	42.61
702.552	42.97
702.957	43.3
703.362	43.61
703.767	43.9
704.172	44.18
704.577	44.49
704.981	44.79
705.386	45.06
705.791	45.32
706.195	45.59
706.6	45.84
707.004	46.09
707.408	46.34
707.813	46.59
708.217	46.84
708.621	47.11
709.025	47.3
709.43	47.5
709.834	47.75
710.237	47.95
710.641	48.12
711.045	48.32
711.449	48.5
711.853	48.7
712.256	48.87
712.66	49.02
713.064	49.15
713.467	49.33
713.87	49.48
714.274	49.61
714.677	49.78
715.08	49.93
715.484	50.07
715.887	50.23
716.29	50.35
716.693	50.51
717.096	50.65
717.499	50.78
717.901	50.9
718.304	51.04
718.707	51.17
719.109	51.28
719.512	51.4
719.915	51.52
720.317	51.6
720.719	51.7
721.122	51.8
721.524	51.9
721.926	52
722.328	52.1
722.731	52.16
723.133	52.26
723.535	52.33
723.937	52.41
724.338	52.49
724.74	52.57
725.142	52.76
725.544	52.82
725.945	52.93
726.347	52.99
726.748	53.07
727.15	53.14
727.551	53.21
727.952	53.27
728.354	53.33
728.755	53.36
729.156	53.39
729.557	53.33
729.958	53.37
730.359	53.39
730.76	53.45
731.161	53.48
731.562	53.54
731.962	53.54
732.363	53.59
732.763	53.64
733.164	53.69
733.564	53.74
733.965	53.79
734.365	53.82
734.766	53.85
735.166	53.87
735.566	53.89
735.966	53.9
736.366	53.94
736.766	53.94
737.166	53.96
737.566	53.98
737.966	53.98
738.365	54
738.765	54.02
739.165	54.03
739.564	54.06
739.964	54.1
740.363	54.13
740.763	54.15
741.162	54.2
741.561	54.2
741.96	54.19
742.36	54.22
742.759	54.23
743.158	54.24
743.557	54.21
743.955	54.22
744.354	54.23
744.753	54.22
745.152	54.27
745.55	54.25
745.949	54.28
746.348	54.31
746.746	54.32
747.144	54.34
747.543	54.36
747.941	54.41
748.339	54.38
748.737	54.36
749.136	54.36
749.534	54.31
749.932	54.33
750.33	54.32
750.727	54.34
751.125	54.33
751.523	54.32
751.921	54.31
752.318	54.31
752.716	54.33
753.113	54.35
753.511	54.35
753.908	54.39
754.305	54.4
754.703	54.39
755.1	54.39
755.497	54.39
755.894	54.41
756.291	54.41
756.688	54.4
757.085	54.4
757.482	54.38
757.878	54.4
758.275	54.37
758.672	54.37
759.068	54.39
759.465	54.38
759.861	54.39
760.258	54.38
760.654	54.38
761.05	54.39
761.447	54.4
761.843	54.43
762.239	54.41
762.635	54.41
763.031	54.41
763.427	54.36
763.822	54.35
764.218	54.36
764.614	54.37
765.01	54.33
765.405	54.32
765.801	54.3
766.196	54.27
766.592	54.28
766.987	54.27
767.382	54.26
767.778	54.27
768.173	54.27
768.568	54.23
768.963	54.2
769.358	54.25
769.753	54.25
770.148	54.26
770.542	54.24
770.937	54.25
771.332	54.26
771.726	54.29
772.121	54.3
772.515	54.29
772.91	54.3
773.304	54.35
773.699	54.35
774.093	54.34
774.487	54.32
774.881	54.36
775.275	54.35
775.669	54.35
776.063	54.31
776.457	54.32
776.851	54.31
777.245	54.3
777.638	54.31
778.032	54.3
778.425	54.33
778.819	54.34
779.212	54.36
779.606	54.38
779.999	54.38
780.392	54.39
780.786	54.41
781.179	54.41
781.572	54.46
781.965	54.44
782.358	54.46
782.751	54.46
783.143	54.49
783.536	54.48
783.929	54.48
784.322	54.5
784.714	54.55
785.107	54.55
785.499	54.58
785.891	54.55
786.284	54.6
786.676	54.62
787.068	54.59
787.46	54.58
787.852	54.59
788.245	54.59
788.636	54.56
789.028	54.54
789.42	54.53
789.812	54.54
790.204	54.58
790.595	54.54
790.987	54.53
791.378	54.57
791.77	54.61
792.161	54.58
792.553	54.61
792.944	54.62
793.335	54.64
793.726	54.65
794.117	54.66
794.508	54.61
794.899	54.63
795.29	54.64
795.681	54.61
796.072	54.59
796.463	54.64
796.853	54.61
797.244	54.61
797.634	54.61
798.025	54.64
798.415	54.62
798.806	54.64
799.196	54.66
799.586	54.67
799.976	54.68
800.366	54.66
800.756	54.66
801.146	54.71
801.536	54.75
801.926	54.73
802.316	54.72
802.706	54.75
803.095	54.76
803.485	54.75
803.874	54.72
804.264	54.75
804.653	54.77
805.043	54.77
805.432	54.75
805.821	54.77
806.21	54.76
806.599	54.8
806.988	54.81
807.377	54.81
807.766	54.82
808.155	54.85
808.544	54.84
808.933	54.85
809.321	54.85
809.71	54.86
810.098	54.83
810.487	54.85
810.875	54.8
811.264	54.81
811.652	54.83
812.04	54.82
812.428	54.86
812.816	54.88
813.204	54.9
813.592	54.87
813.98	54.9
814.368	54.9
814.756	54.91
815.144	54.93
815.531	54.93
815.919	54.92
816.306	54.92
816.694	54.88
817.081	54.88
817.469	54.88
817.856	54.92
818.243	54.89
818.63	54.88
819.017	54.87
819.404	54.87
819.791	54.87
820.178	54.91
820.565	54.92
820.952	54.95
821.339	54.93
821.725	54.94
822.112	54.93
822.498	54.96
822.885	55.01
823.271	55.01
823.657	54.99
824.044	55
824.43	54.98
824.816	54.97
825.202	54.93
825.588	54.96
825.974	54.95
826.36	54.96
826.746	54.96
827.132	54.94
827.517	54.94
827.903	54.98
828.289	55
828.674	54.99
829.06	54.99
829.445	54.99
829.83	54.98
830.216	54.96
830.601	54.96
830.986	54.91
831.371	54.9
831.756	54.92
832.141	54.89
832.526	54.9
832.911	54.89
833.295	54.89
833.68	54.92
834.065	54.92
834.449	54.91
834.834	54.89
835.218	54.92
835.603	54.93
835.987	54.9
836.371	54.88
836.755	54.84
837.139	54.86
837.524	54.87
837.908	54.87
838.291	54.88
838.675	54.9
839.059	54.93
839.443	54.9
839.827	54.88
840.21	54.88
840.594	54.91
840.977	54.91
841.361	54.91
841.744	54.89
842.127	54.86
842.511	54.82
842.894	54.81
843.277	54.79
843.66	54.78
844.043	54.82
844.426	54.8
844.809	54.8
845.191	54.81
845.574	54.81
845.957	54.81
846.339	54.82
846.722	54.86
847.104	54.87
847.487	54.86
847.869	54.86
848.252	54.87
848.634	54.89
849.016	54.9
849.398	54.91
849.78	54.9
850.162	54.92
850.544	54.91
850.926	54.92
851.307	54.91
851.689	54.92
852.071	54.93
852.452	54.91
852.834	54.92
853.215	54.9
853.597	54.88
853.978	54.87
854.359	54.87
854.741	54.88
855.122	54.88
855.503	54.88
855.884	54.88
856.265	54.9
856.646	54.89
857.026	54.89
857.407	54.92
857.788	54.94
858.169	54.97
858.549	54.98
858.93	54.97
859.31	54.97
859.69	55
860.071	55.02
860.451	55
860.831	55.02
861.211	55.01
861.591	55
861.971	54.99
862.351	55.01
862.731	55.01
863.111	55
863.491	55.02
863.87	55
864.25	54.98
864.629	55.01
865.009	55.01
865.388	55.03
865.768	55.05
866.147	55.07
866.526	55.07
866.905	55.08
867.284	55.09
867.663	55.07
868.042	55.09
868.421	55.11
868.8	55.12
869.179	55.13
869.558	55.13
869.936	55.1
870.315	55.11
870.693	55.11
871.072	55.1
871.45	55.13
871.828	55.14
872.207	55.17
872.585	55.15
872.963	55.14
873.341	55.14
873.719	55.13
874.097	55.15
874.475	55.14
874.853	55.14
875.23	55.19
875.608	55.18
875.986	55.21
876.363	55.18
876.741	55.19
877.118	55.21
877.495	55.23
877.873	55.24
878.25	55.27
878.627	55.27
879.004	55.28
879.381	55.28
879.758	55.26
880.135	55.25
880.512	55.25
880.889	55.25
881.265	55.23
881.642	55.2
882.019	55.2
882.395	55.16
882.772	55.17
883.148	55.11
883.524	55.06
883.901	55.07
884.277	55.05
884.653	55.01
885.029	55
885.405	54.98
885.781	54.99
886.157	54.96
886.532	54.97
886.908	54.95
887.284	54.96
887.659	54.96
888.035	54.93
888.411	54.93
888.786	54.94
889.161	54.94
889.537	54.97
889.912	54.98
890.287	55
890.662	55.01
891.037	55.01
891.412	55
891.787	54.99
892.162	55
892.536	54.99
892.911	54.99
893.286	54.98
893.66	54.96
894.035	54.96
894.409	54.95
894.784	54.91
895.158	54.9
895.532	54.92
895.906	54.92
896.281	54.91
896.655	54.92
897.029	54.93
897.402	54.92
897.776	54.93
898.15	54.93
898.524	54.93
898.898	54.94
899.271	54.96
899.645	54.98
900.018	55.03
900.392	55.04
900.765	55.05
901.138	55.03
901.511	55.07
901.884	55.07
902.258	55.08
902.631	55.1
903.003	55.12
903.376	55.13
903.749	55.11
904.122	55.1
904.495	55.11
904.867	55.15
905.24	55.17
905.612	55.16
905.985	55.15
906.357	55.15
906.729	55.16
907.102	55.16
907.474	55.19
907.846	55.2
908.218	55.18
908.59	55.17
908.962	55.17
909.334	55.18
909.705	55.18
910.077	55.2
910.449	55.2
910.82	55.19
911.192	55.18
911.563	55.12
911.935	55.11
912.306	55.14
912.677	55.16
913.048	55.17
913.419	55.15
913.79	55.15
914.161	55.15
914.532	55.17
914.903	55.16
915.274	55.16
915.645	55.2
916.015	55.21
916.386	55.2
916.756	55.2
917.127	55.23
917.497	55.23
917.868	55.24
918.238	55.22
918.608	55.23
918.978	55.26
919.348	55.29
919.718	55.28
920.088	55.31
920.458	55.34
920.828	55.32
921.198	55.27
921.567	55.3
921.937	55.31
922.306	55.31
922.676	55.29
923.045	55.3
923.415	55.27
923.784	55.28
924.153	55.31
924.522	55.29
924.891	55.31
925.26	55.33
925.629	55.32
925.998	55.29
926.367	55.32
926.736	55.33
927.104	55.32
927.473	55.3
927.842	55.28
928.21	55.24
928.578	55.2
928.947	55.21
929.315	55.18
929.683	55.15
930.051	55.11
930.42	55.09
930.788	55.05
931.156	55.02
931.523	55.02
931.891	55.06
932.259	55.06
932.627	55.06
932.994	55.02
933.362	55.01
933.729	55.01
934.097	55.08
934.464	55.1
934.831	55.11
935.199	55.17
935.566	55.15
935.933	55.07
936.3	55.03
936.667	55.04
937.034	55.11
937.401	55.15
937.767	55.16
938.134	55.15
938.501	55.2
938.867	55.25
939.234	55.22
939.6	55.24
939.967	55.28
940.333	55.35
940.699	55.4
941.065	55.33
941.431	55.37
941.798	55.36
942.163	55.35
942.529	55.31
942.895	55.29
943.261	55.28
943.627	55.26
943.992	55.31
944.358	55.3
944.723	55.25
945.089	55.27
945.454	55.27
945.82	55.28
946.185	55.25
946.55	55.17
946.915	55.17
947.28	55.14
947.645	55.16
948.01	55.14
948.375	55.11
948.74	55.1
949.104	55.08
949.469	55.01
949.834	55.01
950.198	55.03
950.562	55.04
950.927	54.95
951.291	54.86
951.655	54.77
952.02	54.73
952.384	54.68
952.748	54.64
953.112	54.64
953.476	54.58
953.839	54.48
954.203	54.46
954.567	54.45
954.931	54.46
955.294	54.47
955.658	54.54
956.021	54.54
956.385	54.49
956.748	54.47
957.111	54.46
957.474	54.46
957.837	54.5
958.2	54.43
958.563	54.38
958.926	54.4
959.289	54.41
959.652	54.34
960.015	54.32
960.377	54.33
960.74	54.3
961.102	54.28
961.465	54.31
961.827	54.34
962.189	54.39
962.552	54.41
962.914	54.39
963.276	54.43
963.638	54.47
964	54.46
964.362	54.48
964.724	54.48
965.085	54.46
965.447	54.42
965.809	54.39
966.17	54.37
966.532	54.37
966.893	54.4
967.255	54.36
967.616	54.35
967.977	54.32
968.338	54.33
968.699	54.31
969.061	54.28
969.421	54.32
969.782	54.35
970.143	54.35
970.504	54.35
970.865	54.38
971.225	54.44
971.586	54.44
971.946	54.42
972.307	54.38
972.667	54.36
973.027	54.41
973.388	54.42
973.748	54.37
974.108	54.39
974.468	54.41
974.828	54.39
975.188	54.3
975.548	54.3
975.907	54.37
976.267	54.34
976.627	54.43
976.986	54.38
977.346	54.31
977.705	54.29
978.064	54.3
978.424	54.29
978.783	54.21
979.142	54.24
979.501	54.16
979.86	54.19
980.219	54.2
980.578	54.18
980.937	54.25
981.296	54.25
981.654	54.24
982.013	54.25
982.371	54.22
982.73	54.21
983.088	54.18
983.447	54.19
983.805	54.21
984.163	54.23
984.521	54.18
984.879	54.14
985.237	54.15
985.595	54.22
985.953	54.18
986.311	54.18
986.669	54.16
987.026	54.11
987.384	54.15
987.741	54.06
988.099	54.14
988.456	54.15
988.814	54.16
989.171	54.16
989.528	54.11
989.885	54.12
990.242	54.2
990.599	54.33
990.956	54.45
991.313	54.45
991.67	54.55
992.027	54.6
992.383	54.76
992.74	54.8
993.096	54.85
993.453	54.88
993.809	54.87
994.165	54.83
994.522	54.81
994.878	54.82
995.234	54.87
995.59	54.79
995.946	54.78
996.302	54.7
996.658	54.73
997.013	54.72
997.369	54.78
997.725	54.85
998.08	55
998.436	55.07
998.791	55.12
999.147	55.1
999.502	55.1
999.857	55.03
1000.212	54.93
1000.567	54.94
1000.922	54.95
1001.277	54.88
1001.632	54.84
1001.987	54.67
1002.342	54.66
1002.696	54.65
1003.051	54.82
1003.406	54.97
1003.76	55
1004.114	55.1
1004.469	55.15
1004.823	55.43
1005.177	55.45
1005.531	55.53
1005.885	55.62
1006.239	55.58
1006.593	55.55
1006.947	55.44
1007.301	55.33
1007.655	55.42
1008.008	55.51
1008.362	55.64
1008.715	55.43
1009.069	55.56
1009.422	55.59
1009.776	55.58
1010.129	55.61
1010.482	55.76
1010.835	55.88
1011.188	55.97
1011.541	55.93
1011.894	55.92
1012.247	55.9
1012.6	56.09
1012.952	56.14
1013.305	56.28
1013.657	56.36
1014.01	56.43
1014.362	56.41
1014.715	56.49
1015.067	56.52
1015.419	56.63
1015.771	56.68
1016.123	56.53
1016.475	56.52
1016.827	56.53
1017.179	56.56
1017.531	56.67
1017.883	56.81
1018.234	56.93
1018.586	56.86
1018.938	57.12
1019.289	57.18
1019.64	57.22
1019.992	57.4
1020.343	57.51
1020.694	57.41
1021.045	57.26
1021.396	57.31
1021.747	57.34
1022.098	57.38
1022.449	57.54
1022.8	57.55
1023.151	57.56
1023.501	57.58
1023.852	57.6
1024.202	57.37
1024.553	57.62
1024.903	57.65
1025.253	57.81
1025.604	57.68
1025.954	57.61
1026.304	57.62
1026.654	57.55
1027.004	57.35
1027.354	57.39
1027.703	57.48
1028.053	57.5
1028.403	57.51
1028.753	57.58
1029.102	57.77
1029.452	58.26
1029.801	58.62
1030.15	58.63
1030.499	58.58
897.758	1441.48
901.051	1452.38
904.343	1447.14
907.636	1471.22
910.928	1432.4
914.22	1427.25
917.511	1410.2
920.803	1350.36
924.094	1343.06
927.384	1313.17
930.675	1256.78
933.965	1252.31
937.255	1175.48
940.544	1129.3
943.834	1075.43
947.123	1067.19
950.411	1006.73
953.7	984.75
956.988	930.6
960.276	894.16
963.563	881.01
966.851	849.23
970.138	841.44
973.424	816.8
976.711	820.62
979.997	779.52
983.283	774.4
986.568	759.12
989.853	736.88
993.138	725.56
996.423	697.63
999.708	677.4
1002.992	670.16
1006.275	641.55
1009.559	634.66
1012.842	613.86
1016.125	596.91
1019.408	586.43
1022.69	579.1
1025.972	566.36
1029.254	552.35
1032.536	543.91
1035.817	532.67
1039.098	525.1
1042.379	513.54
1045.659	508.89
1048.939	494.2
1052.219	486.29
1055.498	478.1
1058.778	466.6
1062.057	457.13
1065.335	451.38
1068.614	446.39
1071.892	440.86
1075.17	428.01
1078.447	419.08
1081.724	416.44
1085.001	413.47
1088.278	405
1091.554	396.69
1094.83	397.47
1098.106	393.68
1101.382	391.06
1104.657	387.9
1107.932	382.48
1111.206	384.09
1114.481	375.42
1117.755	371.55
1121.029	368.4
1124.302	367.74
1127.575	361.55
1130.848	356.39
1134.121	353.49
1137.393	351.37
1140.665	343.51
1143.937	341.78
1147.208	338.56
1150.48	338.31
1153.75	333.55
1157.021	329.24
1160.291	329.39
1163.561	325.86
1166.831	326.05
1170.101	322.96
1173.37	322.57
1176.639	323.84
1179.907	320.56
1183.176	317.63
1186.444	317
1189.711	316.61
1192.979	316.1
1196.246	313.72
1199.513	314.93
1202.78	313.36
1206.046	313.51
1209.312	310.34
1212.578	310.89
1215.843	313.11
1219.108	310.97
1222.373	317.55
1225.638	319.77
1228.902	324.53
1232.166	324.33
1235.43	327.43
1238.693	330.75
1241.956	332.64
1245.219	338.12
1248.482	337.79
1251.744	337.64
1255.006	339.43
1258.268	331.06
1261.529	328.22
1264.79	324.97
1268.051	323.28
1271.312	318.72
1274.572	314.8
1277.832	312.44
1281.092	307
1284.351	304.42
1287.61	304.46
1290.869	299.89
1294.128	298.05
1297.386	298.31
1300.644	295.02
1303.902	297.02
1307.159	295.85
1310.416	296.25
1313.673	295.43
1316.93	298.76
1320.186	298.6
1323.442	299.47
1326.697	304.78
1329.953	305.99
1333.208	306.4
1336.463	310.27
1339.717	309.89
1342.972	314.22
1346.226	316.83
1349.479	317.24
1352.733	317.98
1355.986	319.46
1359.238	319.46
1362.491	321.02
1365.743	323.47
1368.995	324.46
1372.247	323.89
1375.498	324.07
1378.749	326.25
1382	321.8
1385.251	323.88
1388.501	322.11
1391.751	324.59
1395	322.64
1398.25	319.78
1401.499	318.29
1404.748	317.44
1407.996	314.44
1411.244	313.15
1414.492	310.99
1417.74	309.22
1420.987	303.73
1424.234	303.67
1427.481	298.77
1430.728	298.96
1433.974	295.6
1437.22	293.56
1440.465	292.23
1443.711	290.21
1446.956	288.78
1450.201	285.31
1453.445	282.81
1456.689	282.21
1459.933	277.41
1463.177	275.29
1466.42	270.83
1469.663	268.07
1472.906	265.83
1476.148	259.95
1479.391	256.18
1482.633	253.49
1485.874	249.91
1489.115	248.34
1492.356	245.3
1495.597	244.63
1498.838	241.21
1502.078	239.78
1505.318	238.89
1508.557	238.79
1511.797	238.68
1515.036	238.02
1518.274	236.87
1521.513	234.91
1524.751	234.46
1527.989	233.98
1531.227	233.01
1534.464	233.81
1537.701	231.98
1540.938	231.41
1544.174	228.7
1547.41	228.2
1550.646	227.12
1553.882	227.6
1557.117	224.37
1560.352	222.97
1563.587	222.41
1566.821	220.88
1570.055	218.53
1573.289	216.65
1576.523	216.84
1579.756	214.72
1582.989	213.41
1586.222	213.45
1589.454	211.33
1592.686	213.6
1595.918	212.46
1599.15	211.45
1602.381	211.97
1605.612	211.76
1608.843	212.91
1612.073	212.16
1615.303	213.82
1618.533	214.04
1621.762	213.41
1624.992	214.19
1628.221	213.56
1631.449	213.82
1634.678	212.93
1637.906	213.95
1641.134	214.05
1644.361	213.49
1647.588	214.2
1650.815	213.11
1654.042	212.27
1657.269	213.55
1660.495	213.59
1663.72	213.01
1666.946	213.66
1670.171	214.65
1673.396	213.78
1676.621	214.14
1679.845	214.64
1683.069	214.22
1686.293	215.94
1689.517	217.03
1692.74	216.79
1695.963	217.54
1699.185	219.42
1702.408	219.41
1705.63	220.53
1708.852	221.15
1712.073	221.49
1715.294	221.86
1718.515	223.73
1721.736	223.01
1724.956	223.85
1728.176	223.53
1731.396	225.77
1734.616	224.54
1737.835	225.52
1741.054	224.21
1744.272	224.53
1747.491	226.77
1750.709	227.25
1753.927	226.72
1757.144	226.44
1760.361	227.1
1763.578	227.86
1766.795	226.68
1770.011	228.84
1773.227	228.7
1776.443	231.28
1779.658	232.7
1782.874	232.14
1786.089	232.99
1789.303	233.73
1792.518	236.55
1795.732	236.18
1798.945	238.47
1802.159	238.87
1805.372	239.12
1808.585	243.27
1811.797	243.72
1815.01	244.4
1818.222	246.07
1821.434	247.39
1824.645	248.8
1827.856	252.48
1831.067	255.18
1834.278	253.87
1837.488	256.21
1840.698	258.06
1843.908	255.69
1847.117	257.39
1850.326	258.67
1853.535	257.88
1856.744	262.16
1859.952	261.53
1863.16	259.89
1866.368	258.08
1869.575	262.15
1872.782	257.08
1875.989	256.3
1879.196	255.34
1882.402	253.46
1885.608	254.15
1888.814	254.55
1892.019	254.1
1895.224	253.19
1898.429	251.18
1901.634	252.6
1904.838	251.72
1908.042	255.15
1911.246	256
1914.449	257.59
1917.652	257.43
1920.855	257.86
1924.058	256.89
1927.26	255.14
1930.462	256.28
1933.664	260.14
1936.865	258.04
1940.066	257.79
1943.267	255.69
1946.467	255.33
1949.668	257.15
1952.868	260.24
1956.067	259.6
1959.267	260.75
1962.466	261.28
1965.665	260.01
1968.863	260.32
1972.061	263.82
1975.259	266.02
1978.457	269
1981.654	271.73
1984.852	271.88
1988.048	271.1
1991.245	273.18
1994.441	276.57
1997.637	278.53
2000.833	284.21
2004.028	287.74
2007.223	288.39
2010.418	291.82
2013.613	296.22
2016.807	298.55
2020.001	301.7
2023.194	306.17
2026.388	313.47
2029.581	319.79
2032.774	322.53
2035.966	328.66
2039.158	329.11
2042.35	335.8
2045.542	338.28
2048.733	342.92
2051.924	348.42
2055.115	353.67
2058.306	354.48
2061.496	358.19
2064.686	358.55
2067.875	364.57
2071.065	366.12
2074.254	364.63
2077.442	369.33
2080.631	369.99
2083.819	374.31
2087.007	374.87
2090.195	378.72
2093.382	382.23
2096.569	379.29
2099.756	384.96
2102.942	386.17
2106.128	390
2109.314	398.33
2112.5	396.8
2115.685	406.04
2118.87	406.97
2122.055	413.71
2125.239	417.35
2128.424	422.29
2131.608	426.07
2134.791	431.94
2137.974	434.04
2141.157	434.24
2144.34	435.53
2147.523	442.96
2150.705	439.36
2153.887	443.06
2157.068	444.18
2160.25	439.95
2163.431	442.5
2166.611	447.22
2169.792	455.68
2172.972	460.16
2176.152	464.71
2179.331	470.66
2182.511	477.81
2185.69	483.52
2188.868	493.7
2192.047	494.17
2195.225	508.91
2198.403	521.22
2201.58	530.85
2204.758	540.47
2207.935	552.39
2211.111	560.01
2214.288	566.81
2217.464	568.81
2220.64	576.7
2223.815	583.99
2226.991	608
2230.166	608.83
2233.34	618.69
2236.515	630.06
2239.689	630
2242.863	632.59
2246.036	652.31
2249.209	645.67
2252.382	656.44
2255.555	677.58
2258.727	679.55
2261.9	681.94
2265.071	689.54
2268.243	701.53
2271.414	707.57
2274.585	723.29
2277.756	731.78
2280.926	734.59
2284.096	753.95
2287.266	770.05
2290.436	773.58
2293.605	792.13
2296.774	817.72
2299.942	842.97
2303.111	846.14
2306.279	864.51
2309.447	877.53
2312.614	900.59
2315.781	927.31
2318.948	969
2322.115	954.9
2325.281	1005.03
2328.447	984.59
2331.613	1027.34
2334.779	1015.3
2337.944	1060.53
2341.109	1071.39
2344.274	1099.75
2347.438	1137.41
2350.602	1136.36
2353.766	1171.5
2356.929	1187.9
2360.092	1180.76
2363.255	1264.58
2366.418	1255.95
2369.58	1283.25
2372.742	1365.9
2375.904	1398.9
2379.066	1389.28
2382.227	1358.87
2385.388	1475.17
2388.548	1473.8
2391.709	1495.77
2394.869	1664.92
2398.029	1597.29
2401.188	1648.41
2404.347	1633.75
2407.506	1598.29
2410.665	1646.39
2413.823	1746.38
2416.981	1853.35
2420.139	1792.2
2423.296	1775.82
2426.453	1848.23
2429.61	1782.19
2432.767	1864.26
2435.923	1840.2
2439.079	2012.94
2442.235	2042.72
2445.391	2024.03
2448.546	2011.58
2451.701	1951.21
2454.855	1946.35
2458.009	2072.69
2461.163	2152.32
2464.317	2229.73
2467.471	2288.99
2470.624	2289.06
2473.777	2225.31
2476.929	2171.88
2480.082	2109.88
2483.234	2085.62
2486.385	2187
2489.537	2199.82
2492.688	2274.2
2495.839	2221.91
2498.989	2172.96
2502.14	2177.26
2505.29	2199.37
2508.439	2246.96
2511.589	2235.84
2514.738	2434.54
2517.887	2373.65
2521.035	2524.83
2524.183	2543.11
2527.331	2557.7
2530.479	2543.3
2533.627	2562.44
