Data from N_3_DEC_VA_2N_Splice17_14-19-20-249.txt Node
Date: Sat Mar 07 14:19:20 EST 2020
User: sa697716
Spectrometer: NQ5500242
Trigger mode: 0
Integration Time (sec): 1.450000E-1
Scans to average: 20
Nonlinearity correction enabled: false
Boxcar width: 5
Storing dark spectrum: false
XAxis mode: Wavelengths
Number of Pixels in Spectrum: 512
>>>>>Begin Spectral Data<<<<<
187.83	120.48
188.298	145.44
188.766	113.61
189.233	97.29
189.701	107.6
190.169	105.55
190.636	84.7
191.104	48.58
191.571	-34
192.039	260.74
192.506	542.99
192.974	97.5
193.441	300.52
193.908	168.81
194.375	89.83
194.842	49.75
195.31	56.81
195.777	-147.4
196.244	60.29
196.711	78.91
197.177	84.02
197.644	83.24
198.111	81.71
198.578	81.39
199.045	81.27
199.511	81.5
199.978	81.61
200.445	81.7
200.911	82.25
201.378	82.25
201.844	81.99
202.31	81.38
202.777	81.15
203.243	81.08
203.709	80.63
204.176	80.11
204.642	79.9
205.108	79.72
205.574	79.08
206.04	78.09
206.506	77.45
206.972	76.79
207.438	76
207.903	75.15
208.369	73.79
208.835	72.56
209.301	70.97
209.766	68.92
210.232	66.81
210.697	64.88
211.163	63.06
211.628	61.56
212.094	60.05
212.559	58.64
213.024	57.2
213.49	55.92
213.955	54.49
214.42	53.3
214.885	51.69
215.35	49.89
215.815	47.29
216.28	44.21
216.745	40.71
217.21	37.11
217.675	33.75
218.14	30.84
218.604	28.27
219.069	26.05
219.534	24.27
219.998	22.81
220.463	21.59
220.927	20.54
221.392	19.69
221.856	18.96
222.32	18.38
222.785	17.89
223.249	17.39
223.713	16.95
224.177	16.62
224.642	16.24
225.106	15.89
225.57	15.55
226.034	15.24
226.497	14.97
226.961	14.69
227.425	14.43
227.889	14.19
228.353	13.95
228.816	13.71
229.28	13.45
229.744	13.24
230.207	13.03
230.671	12.84
231.134	12.67
231.597	12.5
232.061	12.32
232.524	12.16
232.987	11.97
233.45	11.85
233.914	11.7
234.377	11.55
234.84	11.41
235.303	11.31
235.766	11.19
236.229	11.06
236.691	10.94
237.154	10.84
237.617	10.72
238.08	10.62
238.542	10.5
239.005	10.42
239.468	10.33
239.93	10.24
240.393	10.14
240.855	10.03
241.317	9.94
241.78	9.84
242.242	9.73
242.704	9.65
243.166	9.57
243.629	9.49
244.091	9.39
244.553	9.3
245.015	9.22
245.477	9.13
245.939	9.06
246.4	8.99
246.862	8.92
247.324	8.85
247.786	8.77
248.247	8.69
248.709	8.6
249.17	8.53
249.632	8.48
250.093	8.41
250.555	8.35
251.016	8.29
251.477	8.23
251.939	8.17
252.4	8.12
252.861	8.07
253.322	8.02
253.783	8
254.244	7.96
254.705	7.91
255.166	7.87
255.627	7.82
256.088	7.78
256.549	7.74
257.009	7.69
257.47	7.64
257.931	7.6
258.391	7.54
258.852	7.49
259.312	7.44
259.773	7.4
260.233	7.35
260.694	7.31
261.154	7.26
261.614	7.22
262.074	7.18
262.534	7.14
262.994	7.11
263.455	7.08
263.915	7.04
264.374	7.01
264.834	6.98
265.294	6.95
265.754	6.93
266.214	6.91
266.673	6.88
267.133	6.86
267.593	6.84
268.052	6.82
268.512	6.81
268.971	6.79
269.431	6.77
269.89	6.75
270.349	6.73
270.809	6.71
271.268	6.7
271.727	6.68
272.186	6.66
272.645	6.65
273.104	6.63
273.563	6.61
274.022	6.61
274.481	6.6
274.94	6.58
275.399	6.57
275.857	6.56
276.316	6.55
276.775	6.54
277.233	6.53
277.692	6.52
278.15	6.51
278.609	6.49
279.067	6.48
279.525	6.47
279.984	6.45
280.442	6.44
280.9	6.44
281.358	6.43
281.816	6.41
282.274	6.4
282.732	6.41
283.19	6.39
283.648	6.38
284.106	6.37
284.564	6.37
285.021	6.37
285.479	6.36
285.937	6.35
286.394	6.33
286.852	6.32
287.309	6.31
287.767	6.29
288.224	6.28
288.682	6.26
289.139	6.24
289.596	6.21
290.053	6.18
290.511	6.15
290.968	6.13
291.425	6.1
291.882	6.08
292.339	6.06
292.796	6.04
293.252	6.02
293.709	5.99
294.166	5.98
294.623	5.96
295.079	5.95
295.536	5.93
295.992	5.92
296.449	5.91
296.905	5.9
297.362	5.89
297.818	5.87
298.274	5.87
298.731	5.85
299.187	5.83
299.643	5.82
300.099	5.82
300.555	5.81
301.011	5.79
301.467	5.78
301.923	5.77
302.379	5.76
302.835	5.76
303.291	5.75
303.746	5.74
304.202	5.75
304.658	5.74
305.113	5.73
305.569	5.73
306.024	5.73
306.479	5.72
306.935	5.72
307.39	5.72
307.845	5.72
308.301	5.72
308.756	5.72
309.211	5.71
309.666	5.72
310.121	5.73
310.576	5.73
311.031	5.72
311.486	5.73
311.94	5.73
312.395	5.72
312.85	5.72
313.305	5.72
313.759	5.72
314.214	5.72
314.668	5.7
315.123	5.69
315.577	5.68
316.032	5.68
316.486	5.66
316.94	5.65
317.394	5.64
317.849	5.62
318.303	5.61
318.757	5.59
319.211	5.57
319.665	5.55
320.119	5.54
320.572	5.52
321.026	5.5
321.48	5.48
321.934	5.46
322.387	5.45
322.841	5.44
323.295	5.43
323.748	5.42
324.202	5.42
324.655	5.41
325.108	5.4
325.562	5.4
326.015	5.4
326.468	5.41
326.921	5.41
327.374	5.4
327.827	5.4
328.28	5.4
328.733	5.41
329.186	5.4
329.639	5.41
330.092	5.41
330.545	5.42
330.997	5.41
331.45	5.41
331.903	5.42
332.355	5.43
332.808	5.43
333.26	5.44
333.713	5.43
334.165	5.44
334.617	5.44
335.069	5.44
335.522	5.44
335.974	5.45
336.426	5.45
336.878	5.44
337.33	5.43
337.782	5.44
338.234	5.44
338.686	5.45
339.137	5.45
339.589	5.43
340.041	5.43
340.493	5.42
340.944	5.4
341.396	5.38
341.847	5.37
342.299	5.35
342.75	5.33
343.201	5.3
343.653	5.27
344.104	5.25
344.555	5.24
345.006	5.23
345.457	5.21
345.908	5.2
346.359	5.2
346.81	5.19
347.261	5.18
347.712	5.18
348.163	5.18
348.613	5.19
349.064	5.19
349.515	5.19
349.965	5.19
350.416	5.19
350.866	5.18
351.317	5.18
351.767	5.18
352.217	5.17
352.668	5.17
353.118	5.17
353.568	5.15
354.018	5.15
354.468	5.17
354.918	5.16
355.368	5.17
355.818	5.17
356.268	5.17
356.718	5.17
357.168	5.17
357.617	5.18
358.067	5.17
358.517	5.19
358.966	5.18
359.416	5.18
359.865	5.18
360.315	5.18
360.764	5.18
361.213	5.18
361.663	5.17
362.112	5.18
362.561	5.18
363.01	5.18
363.459	5.16
363.908	5.16
364.357	5.16
364.806	5.15
365.255	5.15
365.703	5.15
366.152	5.15
366.601	5.16
367.05	5.16
367.498	5.16
367.947	5.17
368.395	5.18
368.844	5.18
369.292	5.17
369.74	5.18
370.189	5.18
370.637	5.19
371.085	5.17
371.533	5.17
371.981	5.17
372.429	5.16
372.877	5.15
373.325	5.15
373.773	5.15
374.221	5.14
374.669	5.13
375.116	5.12
375.564	5.11
376.012	5.12
376.459	5.11
376.907	5.11
377.354	5.11
377.801	5.12
378.249	5.12
378.696	5.13
379.143	5.13
379.591	5.14
380.038	5.16
380.485	5.16
380.932	5.16
381.379	5.17
381.826	5.18
382.273	5.19
382.72	5.18
383.166	5.18
383.613	5.18
384.06	5.18
384.506	5.19
384.953	5.19
385.4	5.2
385.846	5.22
386.292	5.22
386.739	5.22
387.185	5.23
387.631	5.25
388.078	5.26
388.524	5.27
388.97	5.29
389.416	5.3
389.862	5.31
390.308	5.34
390.754	5.35
391.2	5.38
391.645	5.4
392.091	5.43
392.537	5.46
392.983	5.49
393.428	5.51
393.874	5.53
394.319	5.56
394.765	5.58
395.21	5.59
395.655	5.62
396.101	5.64
396.546	5.66
396.991	5.69
397.436	5.71
397.881	5.75
398.326	5.79
398.771	5.83
399.216	5.85
399.661	5.9
400.106	5.93
400.551	5.96
400.995	5.98
401.44	5.99
401.885	6
402.329	6.02
402.774	6.04
403.218	6.07
403.663	6.1
404.107	6.12
404.551	6.14
404.995	6.14
405.44	6.15
405.884	6.17
406.328	6.21
406.772	6.22
407.216	6.23
407.66	6.25
408.104	6.25
408.547	6.26
408.991	6.27
409.435	6.27
409.879	6.3
410.322	6.34
410.766	6.36
411.209	6.39
411.653	6.43
412.096	6.46
412.54	6.48
412.983	6.5
413.426	6.53
413.869	6.57
414.312	6.62
414.756	6.64
415.199	6.65
415.642	6.66
416.085	6.67
416.527	6.67
416.97	6.67
417.413	6.67
417.856	6.66
418.298	6.65
418.741	6.65
419.184	6.63
419.626	6.64
420.069	6.63
420.511	6.64
420.953	6.64
421.396	6.64
421.838	6.65
422.28	6.68
422.722	6.72
423.164	6.74
423.606	6.73
424.048	6.75
424.49	6.76
424.932	6.76
425.374	6.75
425.816	6.73
426.258	6.72
426.699	6.69
427.141	6.66
427.582	6.64
428.024	6.65
428.465	6.67
428.907	6.66
429.348	6.64
429.789	6.62
430.231	6.63
430.672	6.65
431.113	6.68
431.554	6.7
431.995	6.72
432.436	6.72
432.877	6.73
433.318	6.74
433.759	6.77
434.2	6.8
434.64	6.83
435.081	6.85
435.522	6.85
435.962	6.86
436.403	6.9
436.843	6.91
437.284	6.91
437.724	6.89
438.164	6.89
438.604	6.9
439.045	6.89
439.485	6.9
439.925	6.88
440.365	6.9
440.805	6.9
441.245	6.9
441.685	6.92
442.125	6.96
442.564	7
443.004	7
443.444	7.01
443.883	7.03
444.323	7.03
444.762	7.06
445.202	7.09
445.641	7.1
446.081	7.13
446.52	7.13
446.959	7.15
447.398	7.16
447.837	7.17
448.276	7.19
448.716	7.2
449.154	7.23
449.593	7.24
450.032	7.22
450.471	7.23
450.91	7.21
451.349	7.21
451.787	7.2
452.226	7.19
452.664	7.18
453.103	7.16
453.541	7.15
453.98	7.13
454.418	7.1
454.856	7.08
455.295	7.05
455.733	7.02
456.171	6.99
456.609	6.96
457.047	6.93
457.485	6.9
457.923	6.89
458.361	6.86
458.798	6.85
459.236	6.84
459.674	6.82
460.111	6.82
460.549	6.82
460.987	6.82
461.424	6.82
461.862	6.82
462.299	6.84
462.736	6.83
463.173	6.84
463.611	6.83
464.048	6.83
464.485	6.83
464.922	6.84
465.359	6.85
465.796	6.86
466.233	6.87
466.67	6.88
467.106	6.87
467.543	6.87
467.98	6.87
468.416	6.88
468.853	6.89
469.29	6.89
469.726	6.88
470.162	6.87
470.599	6.86
471.035	6.84
471.471	6.82
471.907	6.82
472.344	6.82
472.78	6.82
473.216	6.8
473.652	6.8
474.088	6.79
474.523	6.79
474.959	6.77
475.395	6.76
475.831	6.76
476.266	6.76
476.702	6.74
477.138	6.73
477.573	6.72
478.008	6.72
478.444	6.7
478.879	6.7
479.314	6.68
479.75	6.67
480.185	6.66
480.62	6.65
481.055	6.64
481.49	6.62
481.925	6.61
482.36	6.59
482.795	6.57
483.229	6.57
483.664	6.56
484.099	6.57
484.534	6.56
484.968	6.56
485.403	6.56
485.837	6.56
486.271	6.57
486.706	6.57
487.14	6.59
487.574	6.61
488.009	6.62
488.443	6.64
488.877	6.64
489.311	6.67
489.745	6.69
490.179	6.72
490.613	6.75
491.046	6.78
491.48	6.82
491.914	6.86
492.348	6.89
492.781	6.94
493.215	6.99
493.648	7.04
494.082	7.09
494.515	7.13
494.948	7.18
495.382	7.24
495.815	7.31
496.248	7.38
496.681	7.44
497.114	7.51
497.547	7.59
497.98	7.66
498.413	7.74
498.846	7.83
499.279	7.92
499.711	8.01
500.144	8.11
500.577	8.2
501.009	8.29
501.442	8.39
501.874	8.51
502.306	8.63
502.739	8.75
503.171	8.88
503.603	9.01
504.036	9.17
504.468	9.31
504.9	9.45
505.332	9.62
505.764	9.79
506.196	9.96
506.627	10.14
507.059	10.32
507.491	10.52
507.923	10.71
508.354	10.91
508.786	11.12
509.217	11.35
509.649	11.58
510.08	11.81
510.512	12.04
510.943	12.28
511.374	12.52
511.805	12.77
512.237	13.02
512.668	13.29
513.099	13.55
513.53	13.81
513.961	14.07
514.391	14.33
514.822	14.6
515.253	14.88
515.684	15.16
516.114	15.44
516.545	15.72
516.975	16.01
517.406	16.3
517.836	16.59
518.267	16.88
518.697	17.16
519.127	17.43
519.558	17.72
519.988	18.02
520.418	18.28
520.848	18.55
521.278	18.83
521.708	19.19
522.138	19.45
522.567	19.72
522.997	19.97
523.427	20.22
523.857	20.47
524.286	20.69
524.716	20.92
525.145	21.14
525.575	21.36
526.004	21.57
526.433	21.68
526.863	21.87
527.292	22.06
527.721	22.23
528.15	22.41
528.579	22.57
529.008	22.74
529.437	22.89
529.866	23.03
530.295	23.17
530.724	23.29
531.152	23.41
531.581	23.54
532.01	23.63
532.438	23.73
532.867	23.84
533.295	23.94
533.723	24.01
534.152	24.07
534.58	24.15
535.008	24.2
535.436	24.26
535.865	24.29
536.293	24.33
536.721	24.37
537.149	24.42
537.576	24.45
538.004	24.49
538.432	24.54
538.86	24.59
539.287	24.61
539.715	24.67
540.143	24.69
540.57	24.74
540.998	24.78
541.425	24.79
541.852	24.83
542.28	24.85
542.707	24.87
543.134	24.88
543.561	24.91
543.988	24.94
544.415	24.95
544.842	24.98
545.269	25
545.696	25.03
546.123	25.06
546.549	25.1
546.976	25.13
547.403	25.16
547.829	25.2
548.256	25.22
548.682	25.24
549.108	25.28
549.535	25.32
549.961	25.33
550.387	25.34
550.813	25.36
551.24	25.35
551.666	25.35
552.092	25.36
552.518	25.35
552.943	25.33
553.369	25.31
553.795	25.28
554.221	25.24
554.646	25.21
555.072	25.16
555.498	25.11
555.923	25.06
556.349	24.99
556.774	24.93
557.199	24.87
557.625	24.82
558.05	24.76
558.475	24.68
558.9	24.59
559.325	24.53
559.75	24.46
560.175	24.37
560.6	24.26
561.025	24.18
561.449	24.06
561.874	23.95
562.299	23.83
562.723	23.72
563.148	23.59
563.572	23.44
563.997	23.3
564.421	23.14
564.846	23
565.27	22.85
565.694	22.69
566.118	22.53
566.542	22.35
566.966	22.18
567.39	22.01
567.814	21.85
568.238	21.69
568.662	21.5
569.086	21.33
569.509	21.16
569.933	21
570.357	20.83
570.78	20.67
571.204	20.52
571.627	20.38
572.05	20.22
572.474	20.08
572.897	19.96
573.32	19.82
573.743	19.69
574.166	19.58
574.589	19.45
575.012	19.33
575.435	19.23
575.858	19.11
576.281	19
576.704	18.88
577.126	18.78
577.549	18.66
577.972	18.58
578.394	18.48
578.817	18.38
579.239	18.3
579.661	18.2
580.084	18.11
580.506	18.03
580.928	17.94
581.35	17.87
581.772	17.79
582.194	17.72
582.616	17.64
583.038	17.56
583.46	17.47
583.882	17.39
584.303	17.31
584.725	17.26
585.147	17.19
585.568	17.14
585.99	17.06
586.411	17
586.833	16.94
587.254	16.89
587.675	16.83
588.096	16.78
588.518	16.73
588.939	16.7
589.36	16.63
589.781	16.59
590.202	16.54
590.623	16.5
591.043	16.45
591.464	16.41
591.885	16.37
592.305	16.34
592.726	16.32
593.147	16.27
593.567	16.22
593.987	16.19
594.408	16.15
594.828	16.11
595.248	16.09
595.669	16.04
596.089	16
596.509	15.96
596.929	15.93
597.349	15.88
597.769	15.85
598.189	15.81
598.608	15.78
599.028	15.75
599.448	15.71
599.867	15.67
600.287	15.63
600.706	15.59
601.126	15.55
601.545	15.5
601.965	15.47
602.384	15.41
602.803	15.36
603.222	15.31
603.641	15.24
604.061	15.18
604.48	15.11
604.898	15.06
605.317	15
605.736	14.93
606.155	14.86
606.574	14.79
606.992	14.71
607.411	14.63
607.829	14.54
608.248	14.48
608.666	14.39
609.085	14.31
609.503	14.24
609.921	14.16
610.339	14.09
610.758	14.02
611.176	13.95
611.594	13.88
612.012	13.81
612.43	13.76
612.847	13.69
613.265	13.62
613.683	13.57
614.101	13.49
614.518	13.42
614.936	13.36
615.353	13.28
615.771	13.21
616.188	13.15
616.606	13.09
617.023	13.04
617.44	12.99
617.857	12.94
618.274	12.88
618.691	12.83
619.108	12.79
619.525	12.74
619.942	12.71
620.359	12.69
620.776	12.66
621.192	12.63
621.609	12.6
622.026	12.56
622.442	12.54
622.859	12.52
623.275	12.5
623.691	12.48
624.108	12.46
624.524	12.45
624.94	12.43
625.356	12.41
625.772	12.4
626.188	12.39
626.604	12.38
627.02	12.36
627.436	12.35
627.852	12.36
628.268	12.34
628.683	12.32
629.099	12.29
629.514	12.26
629.93	12.23
630.345	12.2
630.761	12.15
631.176	12.12
631.591	12.08
632.007	12.02
632.422	11.96
632.837	11.91
633.252	11.85
633.667	11.79
634.082	11.71
634.497	11.64
634.911	11.56
635.326	11.48
635.741	11.4
636.155	11.31
636.57	11.22
636.984	11.12
637.399	11
637.813	10.9
638.228	10.79
638.642	10.68
639.056	10.56
639.47	10.45
639.884	10.34
640.298	10.23
640.712	10.12
641.126	10.01
641.54	9.9
641.954	9.81
642.368	9.7
642.781	9.6
643.195	9.51
643.609	9.42
644.022	9.32
644.436	9.23
644.849	9.13
645.262	9.04
645.676	8.95
646.089	8.88
646.502	8.8
646.915	8.74
647.328	8.69
647.741	8.63
648.154	8.59
648.567	8.54
648.98	8.5
649.393	8.48
649.805	8.44
650.218	8.42
650.631	8.38
651.043	8.36
651.456	8.33
651.868	8.28
652.28	8.25
652.693	8.21
653.105	8.18
653.517	8.14
653.929	8.1
654.341	8.05
654.753	8.01
655.165	7.97
655.577	7.92
655.989	7.87
656.401	7.81
656.813	7.77
657.224	7.71
657.636	7.65
658.047	7.6
658.459	7.53
658.87	7.46
659.282	7.38
659.693	7.31
660.104	7.23
660.515	7.17
660.926	7.1
661.338	7.04
661.749	6.99
662.159	6.93
662.57	6.87
662.981	6.82
663.392	6.78
663.803	6.74
664.213	6.7
664.624	6.67
665.035	6.63
665.445	6.61
665.855	6.58
666.266	6.55
666.676	6.53
667.086	6.5
667.497	6.49
667.907	6.48
668.317	6.48
668.727	6.46
669.137	6.46
669.547	6.46
669.956	6.45
670.366	6.45
670.776	6.46
671.186	6.46
671.595	6.47
672.005	6.47
672.414	6.48
672.824	6.48
673.233	6.51
673.642	6.53
674.052	6.55
674.461	6.57
674.87	6.59
675.279	6.61
675.688	6.64
676.097	6.68
676.506	6.72
676.915	6.76
677.323	6.81
677.732	6.84
678.141	6.89
678.549	6.95
678.958	7.01
679.366	7.08
679.775	7.14
680.183	7.2
680.592	7.28
681	7.36
681.408	7.46
681.816	7.55
682.224	7.66
682.632	7.78
683.04	7.9
683.448	8.04
683.856	8.17
684.264	8.34
684.671	8.52
685.079	8.72
685.487	8.94
685.894	9.17
686.302	9.43
686.709	9.71
687.116	10.01
687.524	10.34
687.931	10.69
688.338	11.08
688.745	11.5
689.152	11.91
689.559	12.37
689.966	12.83
690.373	13.32
690.78	13.82
691.187	14.35
691.593	14.89
692	15.43
692.407	15.99
692.813	16.56
693.22	17.13
693.626	17.74
694.032	18.32
694.439	18.92
694.845	19.53
695.251	20.14
695.657	20.73
696.063	21.34
696.469	21.97
696.875	22.59
697.281	23.17
697.687	23.77
698.093	24.35
698.498	24.94
698.904	25.52
699.31	26.07
699.715	26.63
700.12	27.2
700.526	27.73
700.931	28.26
701.337	28.77
701.742	29.28
702.147	29.79
702.552	30.28
702.957	30.76
703.362	31.26
703.767	31.74
704.172	32.21
704.577	32.67
704.981	33.14
705.386	33.58
705.791	34.01
706.195	34.45
706.6	34.89
707.004	35.31
707.408	35.73
707.813	36.15
708.217	36.55
708.621	36.96
709.025	37.33
709.43	37.69
709.834	38.08
710.237	38.45
710.641	38.83
711.045	39.17
711.449	39.52
711.853	39.86
712.256	40.17
712.66	40.49
713.064	40.8
713.467	41.12
713.87	41.46
714.274	41.75
714.677	42.07
715.08	42.36
715.484	42.69
715.887	43
716.29	43.32
716.693	43.63
717.096	43.92
717.499	44.24
717.901	44.52
718.304	44.77
718.707	45.05
719.109	45.32
719.512	45.59
719.915	45.83
720.317	46.04
720.719	46.24
721.122	46.47
721.524	46.71
721.926	46.91
722.328	47.12
722.731	47.35
723.133	47.57
723.535	47.78
723.937	47.98
724.338	48.16
724.74	48.36
725.142	48.57
725.544	48.72
725.945	48.87
726.347	49
726.748	49.14
727.15	49.26
727.551	49.38
727.952	49.51
728.354	49.63
728.755	49.76
729.156	49.88
729.557	49.97
729.958	50.09
730.359	50.21
730.76	50.35
731.161	50.46
731.562	50.6
731.962	50.68
732.363	50.76
732.763	50.83
733.164	50.93
733.564	51.01
733.965	51.1
734.365	51.18
734.766	51.24
735.166	51.31
735.566	51.38
735.966	51.45
736.366	51.5
736.766	51.55
737.166	51.64
737.566	51.67
737.966	51.72
738.365	51.76
738.765	51.83
739.165	51.86
739.564	51.91
739.964	51.95
740.363	51.96
740.763	52.01
741.162	52.05
741.561	52.07
741.96	52.1
742.36	52.14
742.759	52.17
743.158	52.18
743.557	52.18
743.955	52.2
744.354	52.24
744.753	52.31
745.152	52.36
745.55	52.43
745.949	52.47
746.348	52.54
746.746	52.54
747.144	52.59
747.543	52.63
747.941	52.68
748.339	52.69
748.737	52.72
749.136	52.73
749.534	52.73
749.932	52.71
750.33	52.71
750.727	52.72
751.125	52.76
751.523	52.73
751.921	52.74
752.318	52.74
752.716	52.76
753.113	52.76
753.511	52.75
753.908	52.76
754.305	52.78
754.703	52.76
755.1	52.74
755.497	52.71
755.894	52.72
756.291	52.71
756.688	52.69
757.085	52.66
757.482	52.64
757.878	52.61
758.275	52.57
758.672	52.55
759.068	52.56
759.465	52.56
759.861	52.57
760.258	52.55
760.654	52.56
761.05	52.56
761.447	52.6
761.843	52.59
762.239	52.6
762.635	52.6
763.031	52.6
763.427	52.58
763.822	52.58
764.218	52.6
764.614	52.6
765.01	52.6
765.405	52.61
765.801	52.56
766.196	52.58
766.592	52.57
766.987	52.58
767.382	52.56
767.778	52.56
768.173	52.56
768.568	52.54
768.963	52.53
769.358	52.55
769.753	52.51
770.148	52.53
770.542	52.52
770.937	52.54
771.332	52.54
771.726	52.54
772.121	52.57
772.515	52.58
772.91	52.58
773.304	52.61
773.699	52.62
774.093	52.65
774.487	52.67
774.881	52.67
775.275	52.67
775.669	52.65
776.063	52.67
776.457	52.67
776.851	52.66
777.245	52.63
777.638	52.6
778.032	52.58
778.425	52.62
778.819	52.6
779.212	52.63
779.606	52.61
779.999	52.62
780.392	52.64
780.786	52.62
781.179	52.62
781.572	52.67
781.965	52.7
782.358	52.7
782.751	52.68
783.143	52.68
783.536	52.66
783.929	52.68
784.322	52.71
784.714	52.73
785.107	52.73
785.499	52.76
785.891	52.75
786.284	52.76
786.676	52.78
787.068	52.79
787.46	52.79
787.852	52.82
788.245	52.83
788.636	52.82
789.028	52.81
789.42	52.84
789.812	52.86
790.204	52.9
790.595	52.89
790.987	52.9
791.378	52.94
791.77	52.98
792.161	52.98
792.553	53
792.944	53.01
793.335	53.01
793.726	53
794.117	52.98
794.508	52.93
794.899	52.95
795.29	52.97
795.681	52.91
796.072	52.91
796.463	52.93
796.853	52.92
797.244	52.93
797.634	52.94
798.025	52.95
798.415	52.95
798.806	52.98
799.196	52.99
799.586	53
799.976	53.03
800.366	53.04
800.756	53.05
801.146	53.08
801.536	53.12
801.926	53.15
802.316	53.16
802.706	53.19
803.095	53.22
803.485	53.21
803.874	53.24
804.264	53.25
804.653	53.24
805.043	53.27
805.432	53.26
805.821	53.27
806.21	53.28
806.599	53.28
806.988	53.29
807.377	53.28
807.766	53.29
808.155	53.24
808.544	53.25
808.933	53.28
809.321	53.26
809.71	53.26
810.098	53.27
810.487	53.27
810.875	53.29
811.264	53.28
811.652	53.28
812.04	53.32
812.428	53.39
812.816	53.4
813.204	53.36
813.592	53.35
813.98	53.39
814.368	53.41
814.756	53.42
815.144	53.41
815.531	53.43
815.919	53.45
816.306	53.46
816.694	53.44
817.081	53.46
817.469	53.49
817.856	53.51
818.243	53.49
818.63	53.49
819.017	53.47
819.404	53.47
819.791	53.47
820.178	53.48
820.565	53.45
820.952	53.43
821.339	53.42
821.725	53.45
822.112	53.47
822.498	53.48
822.885	53.51
823.271	53.51
823.657	53.49
824.044	53.49
824.43	53.5
824.816	53.51
825.202	53.49
825.588	53.48
825.974	53.43
826.36	53.41
826.746	53.36
827.132	53.32
827.517	53.3
827.903	53.31
828.289	53.31
828.674	53.27
829.06	53.25
829.445	53.25
829.83	53.23
830.216	53.22
830.601	53.2
830.986	53.19
831.371	53.15
831.756	53.18
832.141	53.16
832.526	53.15
832.911	53.13
833.295	53.12
833.68	53.1
834.065	53.09
834.449	53.08
834.834	53.05
835.218	53.03
835.603	53.03
835.987	52.98
836.371	52.93
836.755	52.9
837.139	52.9
837.524	52.87
837.908	52.91
838.291	52.91
838.675	52.9
839.059	52.92
839.443	52.9
839.827	52.85
840.21	52.84
840.594	52.88
840.977	52.87
841.361	52.84
841.744	52.83
842.127	52.81
842.511	52.78
842.894	52.76
843.277	52.73
843.66	52.73
844.043	52.77
844.426	52.76
844.809	52.72
845.191	52.74
845.574	52.74
845.957	52.75
846.339	52.72
846.722	52.73
847.104	52.76
847.487	52.78
847.869	52.79
848.252	52.79
848.634	52.82
849.016	52.84
849.398	52.83
849.78	52.83
850.162	52.83
850.544	52.83
850.926	52.82
851.307	52.81
851.689	52.81
852.071	52.82
852.452	52.81
852.834	52.79
853.215	52.78
853.597	52.77
853.978	52.78
854.359	52.79
854.741	52.8
855.122	52.82
855.503	52.79
855.884	52.78
856.265	52.77
856.646	52.77
857.026	52.79
857.407	52.81
857.788	52.8
858.169	52.82
858.549	52.82
858.93	52.82
859.31	52.82
859.69	52.86
860.071	52.89
860.451	52.9
860.831	52.9
861.211	52.86
861.591	52.84
861.971	52.87
862.351	52.89
862.731	52.87
863.111	52.85
863.491	52.84
863.87	52.81
864.25	52.77
864.629	52.78
865.009	52.77
865.388	52.8
865.768	52.79
866.147	52.77
866.526	52.74
866.905	52.76
867.284	52.77
867.663	52.78
868.042	52.8
868.421	52.82
868.8	52.8
869.179	52.81
869.558	52.81
869.936	52.81
870.315	52.81
870.693	52.83
871.072	52.84
871.45	52.85
871.828	52.84
872.207	52.83
872.585	52.81
872.963	52.81
873.341	52.81
873.719	52.81
874.097	52.81
874.475	52.81
874.853	52.8
875.23	52.8
875.608	52.8
875.986	52.83
876.363	52.85
876.741	52.88
877.118	52.9
877.495	52.91
877.873	52.93
878.25	52.97
878.627	52.99
879.004	53.01
879.381	53.02
879.758	53.02
880.135	53.03
880.512	53.01
880.889	53.01
881.265	52.98
881.642	52.96
882.019	52.96
882.395	52.94
882.772	52.92
883.148	52.86
883.524	52.84
883.901	52.81
884.277	52.75
884.653	52.72
885.029	52.7
885.405	52.68
885.781	52.67
886.157	52.64
886.532	52.61
886.908	52.57
887.284	52.56
887.659	52.51
888.035	52.48
888.411	52.49
888.786	52.49
889.161	52.49
889.537	52.48
889.912	52.47
890.287	52.45
890.662	52.42
891.037	52.43
891.412	52.42
891.787	52.41
892.162	52.41
892.536	52.38
892.911	52.37
893.286	52.34
893.66	52.34
894.035	52.31
894.409	52.3
894.784	52.29
895.158	52.26
895.532	52.26
895.906	52.26
896.281	52.25
896.655	52.25
897.029	52.25
897.402	52.23
897.776	52.23
898.15	52.23
898.524	52.27
898.898	52.28
899.271	52.29
899.645	52.33
900.018	52.34
900.392	52.38
900.765	52.4
901.138	52.41
901.511	52.43
901.884	52.44
902.258	52.49
902.631	52.48
903.003	52.49
903.376	52.49
903.749	52.49
904.122	52.52
904.495	52.53
904.867	52.53
905.24	52.58
905.612	52.65
905.985	52.63
906.357	52.58
906.729	52.6
907.102	52.61
907.474	52.63
907.846	52.64
908.218	52.62
908.59	52.63
908.962	52.66
909.334	52.63
909.705	52.59
910.077	52.61
910.449	52.64
910.82	52.61
911.192	52.62
911.563	52.61
911.935	52.6
912.306	52.61
912.677	52.62
913.048	52.65
913.419	52.63
913.79	52.64
914.161	52.65
914.532	52.66
914.903	52.71
915.274	52.7
915.645	52.73
916.015	52.75
916.386	52.75
916.756	52.75
917.127	52.76
917.497	52.8
917.868	52.8
918.238	52.8
918.608	52.83
918.978	52.85
919.348	52.87
919.718	52.87
920.088	52.9
920.458	52.89
920.828	52.88
921.198	52.82
921.567	52.81
921.937	52.84
922.306	52.84
922.676	52.8
923.045	52.77
923.415	52.75
923.784	52.75
924.153	52.74
924.522	52.75
924.891	52.76
925.26	52.78
925.629	52.8
925.998	52.78
926.367	52.81
926.736	52.81
927.104	52.81
927.473	52.81
927.842	52.77
928.21	52.78
928.578	52.76
928.947	52.78
929.315	52.77
929.683	52.75
930.051	52.74
930.42	52.7
930.788	52.65
931.156	52.61
931.523	52.56
931.891	52.59
932.259	52.52
932.627	52.45
932.994	52.34
933.362	52.3
933.729	52.26
934.097	52.24
934.464	52.2
934.831	52.24
935.199	52.25
935.566	52.27
935.933	52.27
936.3	52.28
936.667	52.32
937.034	52.4
937.401	52.47
937.767	52.5
938.134	52.53
938.501	52.54
938.867	52.6
939.234	52.68
939.6	52.74
939.967	52.77
940.333	52.87
940.699	52.97
941.065	53.03
941.431	53.06
941.798	53.12
942.163	53.17
942.529	53.25
942.895	53.31
943.261	53.3
943.627	53.31
943.992	53.32
944.358	53.35
944.723	53.33
945.089	53.24
945.454	53.3
945.82	53.31
946.185	53.29
946.55	53.24
946.915	53.19
947.28	53.18
947.645	53.18
948.01	53.16
948.375	53.11
948.74	53.09
949.104	53.19
949.469	53.12
949.834	53.03
950.198	52.98
950.562	52.93
950.927	52.87
951.291	52.82
951.655	52.78
952.02	52.78
952.384	52.71
952.748	52.64
953.112	52.55
953.476	52.51
953.839	52.53
954.203	52.5
954.567	52.45
954.931	52.45
955.294	52.39
955.658	52.41
956.021	52.38
956.385	52.36
956.748	52.31
957.111	52.28
957.474	52.26
957.837	52.23
958.2	52.2
958.563	52.21
958.926	52.22
959.289	52.26
959.652	52.2
960.015	52.18
960.377	52.17
960.74	52.25
961.102	52.25
961.465	52.27
961.827	52.29
962.189	52.34
962.552	52.33
962.914	52.28
963.276	52.28
963.638	52.26
964	52.18
964.362	52.19
964.724	52.17
965.085	52.11
965.447	52.06
965.809	52.03
966.17	52
966.532	52.03
966.893	52.07
967.255	52.08
967.616	52.11
967.977	52.16
968.338	52.14
968.699	52.11
969.061	52.15
969.421	52.21
969.782	52.19
970.143	52.18
970.504	52.13
970.865	52.14
971.225	52.12
971.586	52.13
971.946	52.11
972.307	52.1
972.667	52.12
973.027	52.11
973.388	52.08
973.748	52.11
974.108	52.2
974.468	52.22
974.828	52.21
975.188	52.21
975.548	52.17
975.907	52.18
976.267	52.21
976.627	52.23
976.986	52.21
977.346	52.15
977.705	52.11
978.064	52.01
978.424	52.02
978.783	51.97
979.142	51.97
979.501	52.02
979.86	52.06
980.219	52.01
980.578	52.04
980.937	52.04
981.296	52.12
981.654	52.14
982.013	52.22
982.371	52.23
982.73	52.33
983.088	52.39
983.447	52.4
983.805	52.38
984.163	52.42
984.521	52.47
984.879	52.54
985.237	52.54
985.595	52.58
985.953	52.49
986.311	52.46
986.669	52.47
987.026	52.47
987.384	52.46
987.741	52.49
988.099	52.58
988.456	52.49
988.814	52.48
989.171	52.46
989.528	52.48
989.885	52.6
990.242	52.65
990.599	52.68
990.956	52.67
991.313	52.64
991.67	52.66
992.027	52.68
992.383	52.79
992.74	52.92
993.096	53
993.453	52.99
993.809	53.02
994.165	53.15
994.522	53.16
994.878	53.23
995.234	53.39
995.59	53.41
995.946	53.5
996.302	53.5
996.658	53.44
997.013	53.42
997.369	53.47
997.725	53.52
998.08	53.47
998.436	53.49
998.791	53.56
999.147	53.51
999.502	53.55
999.857	53.57
1000.212	53.59
1000.567	53.57
1000.922	53.77
1001.277	53.89
1001.632	53.83
1001.987	53.89
1002.342	53.9
1002.696	53.81
1003.051	54.01
1003.406	54.2
1003.76	54.2
1004.114	54.16
1004.469	54.36
1004.823	54.52
1005.177	54.56
1005.531	54.7
1005.885	54.65
1006.239	54.76
1006.593	54.91
1006.947	54.86
1007.301	54.7
1007.655	54.63
1008.008	54.78
1008.362	54.77
1008.715	54.66
1009.069	54.75
1009.422	54.77
1009.776	54.97
1010.129	54.97
1010.482	55.02
1010.835	55.06
1011.188	55.26
1011.541	55.55
1011.894	55.59
1012.247	55.73
1012.6	55.78
1012.952	55.8
1013.305	55.99
1013.657	56.08
1014.01	56.18
1014.362	56.29
1014.715	56.45
1015.067	56.51
1015.419	56.52
1015.771	56.58
1016.123	56.53
1016.475	56.68
1016.827	56.85
1017.179	56.84
1017.531	56.9
1017.883	57.09
1018.234	57.2
1018.586	57.16
1018.938	57.34
1019.289	57.46
1019.64	57.58
1019.992	57.72
1020.343	57.6
1020.694	57.55
1021.045	57.56
1021.396	57.64
1021.747	57.63
1022.098	57.67
1022.449	57.68
1022.8	57.92
1023.151	57.79
1023.501	58.03
1023.852	58.21
1024.202	58.2
1024.553	58.25
1024.903	58.47
1025.253	58.82
1025.604	58.81
1025.954	58.79
1026.304	59.11
1026.654	59.05
1027.004	59.24
1027.354	59.06
1027.703	58.86
1028.053	59.32
1028.403	59.54
1028.753	59.48
1029.102	59.55
1029.452	59.96
1029.801	60.33
1030.15	60.31
1030.499	60.21
897.758	964.22
901.051	964.88
904.343	966.25
907.636	982.04
910.928	956.33
914.22	952.34
917.511	938.93
920.803	898.88
924.094	895.37
927.384	871.71
930.675	840.08
933.965	835.73
937.255	786.72
940.544	754.71
943.834	720.45
947.123	714.1
950.411	674.98
953.7	662.55
956.988	627.83
960.276	603.24
963.563	596.21
966.851	574.01
970.138	568.75
973.424	554.56
976.711	555.79
979.997	529.42
983.283	527.2
986.568	517.11
989.853	501.77
993.138	492.15
996.423	474.53
999.708	460.32
1002.992	454.94
1006.275	434.88
1009.559	432.36
1012.842	418
1016.125	406.82
1019.408	398.85
1022.69	395.82
1025.972	386.8
1029.254	377.93
1032.536	371.19
1035.817	366.74
1039.098	362.13
1042.379	356.31
1045.659	351.02
1048.939	343.1
1052.219	336.49
1055.498	332.71
1058.778	323.81
1062.057	317.48
1065.335	315.24
1068.614	312.64
1071.892	307.53
1075.17	299.05
1078.447	294.02
1081.724	292.29
1085.001	289.69
1088.278	284.71
1091.554	279.41
1094.83	280.39
1098.106	278.85
1101.382	276.12
1104.657	273.14
1107.932	269.76
1111.206	271.48
1114.481	264.91
1117.755	262.6
1121.029	261.06
1124.302	260.53
1127.575	256.09
1130.848	252.74
1134.121	250.1
1137.393	249.05
1140.665	245.14
1143.937	242.98
1147.208	240.97
1150.48	240.56
1153.75	236.69
1157.021	233.36
1160.291	234.13
1163.561	231.31
1166.831	230.69
1170.101	229.44
1173.37	228.85
1176.639	228.84
1179.907	227.49
1183.176	224.87
1186.444	224.59
1189.711	225.15
1192.979	224.84
1196.246	222.61
1199.513	224.18
1202.78	222.85
1206.046	223
1209.312	220.42
1212.578	220.86
1215.843	221.55
1219.108	221.81
1222.373	225.57
1225.638	226.72
1228.902	229.44
1232.166	229.05
1235.43	229.3
1238.693	232.47
1241.956	233.52
1245.219	237.59
1248.482	237.3
1251.744	237.75
1255.006	237.64
1258.268	232.71
1261.529	231.03
1264.79	229.91
1268.051	228.6
1271.312	226.89
1274.572	224.69
1277.832	222.35
1281.092	219
1284.351	217.9
1287.61	218.13
1290.869	214.78
1294.128	213.6
1297.386	212.87
1300.644	210.6
1303.902	212.43
1307.159	211.76
1310.416	211.58
1313.673	211.06
1316.93	213.2
1320.186	213.02
1323.442	213.03
1326.697	215.75
1329.953	217.12
1333.208	217.71
1336.463	221.19
1339.717	221.05
1342.972	222.72
1346.226	224.76
1349.479	225.83
1352.733	226.16
1355.986	227.32
1359.238	226.97
1362.491	228.42
1365.743	230.6
1368.995	230.5
1372.247	228.61
1375.498	228.88
1378.749	229.72
1382	227.13
1385.251	227.63
1388.501	225.74
1391.751	225.7
1395	224.82
1398.25	222.84
1401.499	220.09
1404.748	220.03
1407.996	217.44
1411.244	216.38
1414.492	215.45
1417.74	211.33
1420.987	208.48
1424.234	208.51
1427.481	206.39
1430.728	206.35
1433.974	203.78
1437.22	201.64
1440.465	201.15
1443.711	199.87
1446.956	198.48
1450.201	195.82
1453.445	195.81
1456.689	194.72
1459.933	191.55
1463.177	189.59
1466.42	187.1
1469.663	185.53
1472.906	184.78
1476.148	180.17
1479.391	178.26
1482.633	176.9
1485.874	175.07
1489.115	173.69
1492.356	172
1495.597	172.22
1498.838	170.33
1502.078	169.23
1505.318	169
1508.557	169.47
1511.797	169.48
1515.036	168.42
1518.274	167.37
1521.513	166.48
1524.751	166.49
1527.989	166.1
1531.227	165.2
1534.464	165.44
1537.701	165.11
1540.938	164.56
1544.174	162.31
1547.41	162.74
1550.646	162.48
1553.882	162.67
1557.117	161.05
1560.352	160.04
1563.587	160.14
1566.821	159.02
1570.055	158.51
1573.289	156.56
1576.523	156.92
1579.756	156.29
1582.989	155.22
1586.222	155.23
1589.454	155.17
1592.686	155.58
1595.918	155.21
1599.15	154.58
1602.381	154.98
1605.612	154.25
1608.843	155.16
1612.073	154.84
1615.303	155.2
1618.533	155.78
1621.762	155.6
1624.992	155.46
1628.221	155.74
1631.449	155.2
1634.678	155.27
1637.906	156.13
1641.134	155.8
1644.361	155.51
1647.588	155.96
1650.815	155.75
1654.042	154.87
1657.269	155.48
1660.495	155.29
1663.72	154.66
1666.946	155.57
1670.171	156.1
1673.396	155.33
1676.621	155.53
1679.845	156.22
1683.069	156.36
1686.293	156.95
1689.517	157.72
1692.74	157.5
1695.963	157.91
1699.185	159.56
1702.408	159.24
1705.63	159.31
1708.852	159.91
1712.073	160.5
1715.294	160.55
1718.515	161.01
1721.736	160.83
1724.956	161.54
1728.176	161.59
1731.396	162.55
1734.616	161.77
1737.835	162.85
1741.054	161.76
1744.272	162.32
1747.491	163.42
1750.709	163.82
1753.927	163.66
1757.144	163.52
1760.361	163.71
1763.578	164.03
1766.795	163.96
1770.011	165.41
1773.227	164.79
1776.443	166.83
1779.658	167.17
1782.874	166.65
1786.089	166.29
1789.303	166.79
1792.518	168.41
1795.732	168.22
1798.945	169.07
1802.159	169.35
1805.372	169.21
1808.585	172.04
1811.797	172.2
1815.01	172.94
1818.222	174.28
1821.434	176.76
1824.645	176.89
1827.856	179.57
1831.067	180.99
1834.278	180.93
1837.488	182.2
1840.698	183.53
1843.908	182.29
1847.117	182.76
1850.326	183.78
1853.535	182.1
1856.744	183.85
1859.952	183.71
1863.16	182.22
1866.368	181.07
1869.575	181.59
1872.782	178.39
1875.989	177.02
1879.196	176.02
1882.402	174.73
1885.608	173.77
1888.814	173.7
1892.019	172.39
1895.224	171.23
1898.429	169.75
1901.634	169.36
1904.838	169.18
1908.042	170.4
1911.246	170.83
1914.449	170.73
1917.652	170.42
1920.855	170.13
1924.058	170.65
1927.26	169.2
1930.462	169.85
1933.664	171.92
1936.865	170.55
1940.066	170.5
1943.267	169.09
1946.467	169.43
1949.668	169.75
1952.868	172.31
1956.067	173.08
1959.267	172.65
1962.466	173.45
1965.665	172.94
1968.863	173.91
1972.061	177.45
1975.259	179.26
1978.457	180.44
1981.654	181.69
1984.852	182.89
1988.048	182.21
1991.245	183.49
1994.441	186.22
1997.637	187.94
2000.833	191.29
2004.028	193.13
2007.223	193.66
2010.418	195.09
2013.613	199.31
2016.807	200.8
2020.001	202.97
2023.194	206.07
2026.388	212.38
2029.581	216.75
2032.774	217.79
2035.966	222.21
2039.158	222.81
2042.35	226.53
2045.542	228.44
2048.733	232.16
2051.924	234.9
2055.115	239.28
2058.306	240.08
2061.496	239.74
2064.686	241.48
2067.875	245.73
2071.065	247.1
2074.254	245.3
2077.442	249.91
2080.631	250.13
2083.819	252.32
2087.007	253.49
2090.195	256.21
2093.382	258.39
2096.569	257.92
2099.756	260.63
2102.942	261.63
2106.128	263.47
2109.314	270.51
2112.5	268.8
2115.685	274.92
2118.87	275.36
2122.055	280.79
2125.239	281.85
2128.424	284.61
2131.608	286.59
2134.791	291.67
2137.974	292.38
2141.157	293.27
2144.34	293.31
2147.523	298.03
2150.705	296.82
2153.887	299.55
2157.068	299.85
2160.25	297.61
2163.431	300.16
2166.611	303.05
2169.792	308.13
2172.972	312.12
2176.152	314.31
2179.331	318.6
2182.511	322.92
2185.69	326.19
2188.868	333.51
2192.047	333.8
2195.225	344.01
2198.403	351.44
2201.58	356.53
2204.758	362.98
2207.935	370.15
2211.111	377.4
2214.288	380.75
2217.464	381.7
2220.64	387.87
2223.815	391.74
2226.991	406.75
2230.166	406.64
2233.34	412.95
2236.515	422.29
2239.689	422.92
2242.863	425.58
2246.036	435.41
2249.209	432.64
2252.382	440.55
2255.555	451.24
2258.727	453.76
2261.9	457.63
2265.071	461.88
2268.243	468.85
2271.414	473.85
2274.585	481.48
2277.756	484.37
2280.926	489.86
2284.096	500.51
2287.266	510.91
2290.436	517.96
2293.605	526.56
2296.774	542.39
2299.942	556.79
2303.111	561.87
2306.279	572.64
2309.447	581.75
2312.614	598
2315.781	614.29
2318.948	641.67
2322.115	631.4
2325.281	665.1
2328.447	654.51
2331.613	676.39
2334.779	672.57
2337.944	696.88
2341.109	706.61
2344.274	725.36
2347.438	749.65
2350.602	751.2
2353.766	772.98
2356.929	786.44
2360.092	777.81
2363.255	832.7
2366.418	833.67
2369.58	849.79
2372.742	905.33
2375.904	926.07
2379.066	919.93
2382.227	906.03
2385.388	972.05
2388.548	977.86
2391.709	986.94
2394.869	1098
2398.029	1054.25
2401.188	1083.56
2404.347	1076.45
2407.506	1056.81
2410.665	1084.9
2413.823	1147.71
2416.981	1210.04
2420.139	1184.26
2423.296	1161.6
2426.453	1219.23
2429.61	1174.91
2432.767	1224.25
2435.923	1212.28
2439.079	1331.65
2442.235	1350.47
2445.391	1338.42
2448.546	1326.73
2451.701	1295.04
2454.855	1284.18
2458.009	1376.4
2461.163	1423.84
2464.317	1471.66
2467.471	1508.77
2470.624	1513.74
2473.777	1467.65
2476.929	1427.14
2480.082	1384.88
2483.234	1377.42
2486.385	1442.89
2489.537	1451.46
2492.688	1499.85
2495.839	1465.76
2498.989	1435.58
2502.14	1439.19
2505.29	1454.32
2508.439	1469.6
2511.589	1469.79
2514.738	1611.32
2517.887	1569.12
2521.035	1649.92
2524.183	1668.5
2527.331	1673.52
2530.479	1656.77
2533.627	1671.71
