Data from N_3_DIV_OH_2N_Splice17_13-46-26-204.txt Node
Date: Sat Mar 07 13:46:26 EST 2020
User: sa697716
Spectrometer: NQ5500242
Trigger mode: 0
Integration Time (sec): 1.450000E-1
Scans to average: 20
Nonlinearity correction enabled: false
Boxcar width: 5
Storing dark spectrum: false
XAxis mode: Wavelengths
Number of Pixels in Spectrum: 512
>>>>>Begin Spectral Data<<<<<
187.83	198.43
188.298	232.22
188.766	220.11
189.233	170.55
189.701	180.86
190.169	218.42
190.636	254.82
191.104	464.02
191.571	458.58
192.039	-81.35
192.506	-802.74
192.974	109.47
193.441	118.49
193.908	101.82
194.375	66.37
194.842	19.89
195.31	74.39
195.777	328.27
196.244	56.33
196.711	32.33
197.177	31.36
197.644	30.27
198.111	29.4
198.578	29.97
199.045	30.19
199.511	29.89
199.978	29.71
200.445	29.87
200.911	29.38
201.378	29.16
201.844	29.19
202.31	28.69
202.777	28.38
203.243	28.66
203.709	28.48
204.176	28.08
204.642	28.13
205.108	28.43
205.574	28.21
206.04	27.93
206.506	27.89
206.972	27.65
207.438	27.56
207.903	27.35
208.369	26.52
208.835	26.23
209.301	25.83
209.766	24.49
210.232	23.5
210.697	22.69
211.163	22.13
211.628	21.49
212.094	20.96
212.559	20.66
213.024	19.99
213.49	19.73
213.955	19.05
214.42	18.37
214.885	18.12
215.35	17.47
215.815	16.79
216.28	15.48
216.745	14.03
217.21	12.79
217.675	11.39
218.14	10.39
218.604	9.44
219.069	8.62
219.534	8.05
219.998	7.45
220.463	7.04
220.927	6.56
221.392	6.26
221.856	6.03
222.32	5.78
222.785	5.61
223.249	5.43
223.713	5.25
224.177	5.17
224.642	5.03
225.106	4.91
225.57	4.78
226.034	4.72
226.497	4.64
226.961	4.55
227.425	4.47
227.889	4.38
228.353	4.31
228.816	4.26
229.28	4.17
229.744	4.11
230.207	4.04
230.671	3.97
231.134	3.89
231.597	3.85
232.061	3.8
232.524	3.74
232.987	3.69
233.45	3.65
233.914	3.6
234.377	3.54
234.84	3.51
235.303	3.49
235.766	3.45
236.229	3.41
236.691	3.36
237.154	3.33
237.617	3.3
238.08	3.26
238.542	3.22
239.005	3.2
239.468	3.16
239.93	3.13
240.393	3.1
240.855	3.07
241.317	3.04
241.78	3.01
242.242	2.97
242.704	2.95
243.166	2.94
243.629	2.93
244.091	2.9
244.553	2.88
245.015	2.84
245.477	2.81
245.939	2.79
246.4	2.76
246.862	2.74
247.324	2.73
247.786	2.69
248.247	2.66
248.709	2.62
249.17	2.6
249.632	2.59
250.093	2.58
250.555	2.57
251.016	2.56
251.477	2.54
251.939	2.53
252.4	2.51
252.861	2.49
253.322	2.48
253.783	2.46
254.244	2.46
254.705	2.43
255.166	2.41
255.627	2.39
256.088	2.38
256.549	2.36
257.009	2.34
257.47	2.32
257.931	2.3
258.391	2.28
258.852	2.26
259.312	2.23
259.773	2.22
260.233	2.22
260.694	2.2
261.154	2.19
261.614	2.18
262.074	2.17
262.534	2.16
262.994	2.15
263.455	2.14
263.915	2.13
264.374	2.12
264.834	2.11
265.294	2.09
265.754	2.08
266.214	2.07
266.673	2.05
267.133	2.05
267.593	2.04
268.052	2.03
268.512	2.03
268.971	2.03
269.431	2.03
269.89	2.02
270.349	2.02
270.809	2.01
271.268	2.01
271.727	2
272.186	2
272.645	2
273.104	1.99
273.563	1.98
274.022	1.98
274.481	1.97
274.94	1.97
275.399	1.96
275.857	1.96
276.316	1.95
276.775	1.95
277.233	1.95
277.692	1.95
278.15	1.95
278.609	1.95
279.067	1.95
279.525	1.95
279.984	1.95
280.442	1.95
280.9	1.95
281.358	1.95
281.816	1.95
282.274	1.95
282.732	1.95
283.19	1.94
283.648	1.94
284.106	1.93
284.564	1.92
285.021	1.92
285.479	1.92
285.937	1.9
286.394	1.9
286.852	1.88
287.309	1.87
287.767	1.87
288.224	1.86
288.682	1.84
289.139	1.84
289.596	1.82
290.053	1.81
290.511	1.8
290.968	1.8
291.425	1.79
291.882	1.78
292.339	1.77
292.796	1.76
293.252	1.76
293.709	1.76
294.166	1.76
294.623	1.75
295.079	1.75
295.536	1.75
295.992	1.75
296.449	1.74
296.905	1.74
297.362	1.74
297.818	1.74
298.274	1.74
298.731	1.73
299.187	1.72
299.643	1.71
300.099	1.71
300.555	1.71
301.011	1.7
301.467	1.71
301.923	1.7
302.379	1.7
302.835	1.7
303.291	1.7
303.746	1.7
304.202	1.71
304.658	1.71
305.113	1.7
305.569	1.7
306.024	1.7
306.479	1.69
306.935	1.69
307.39	1.69
307.845	1.69
308.301	1.69
308.756	1.69
309.211	1.68
309.666	1.69
310.121	1.69
310.576	1.69
311.031	1.69
311.486	1.68
311.94	1.69
312.395	1.68
312.85	1.68
313.305	1.68
313.759	1.68
314.214	1.68
314.668	1.67
315.123	1.67
315.577	1.68
316.032	1.68
316.486	1.67
316.94	1.67
317.394	1.67
317.849	1.66
318.303	1.66
318.757	1.64
319.211	1.64
319.665	1.64
320.119	1.62
320.572	1.62
321.026	1.61
321.48	1.61
321.934	1.6
322.387	1.59
322.841	1.59
323.295	1.59
323.748	1.6
324.202	1.6
324.655	1.6
325.108	1.61
325.562	1.61
326.015	1.61
326.468	1.62
326.921	1.62
327.374	1.63
327.827	1.63
328.28	1.62
328.733	1.63
329.186	1.62
329.639	1.62
330.092	1.61
330.545	1.61
330.997	1.6
331.45	1.61
331.903	1.63
332.355	1.63
332.808	1.62
333.26	1.62
333.713	1.61
334.165	1.61
334.617	1.61
335.069	1.61
335.522	1.61
335.974	1.61
336.426	1.6
336.878	1.58
337.33	1.58
337.782	1.59
338.234	1.59
338.686	1.59
339.137	1.6
339.589	1.59
340.041	1.6
340.493	1.6
340.944	1.59
341.396	1.59
341.847	1.59
342.299	1.58
342.75	1.58
343.201	1.57
343.653	1.57
344.104	1.55
344.555	1.55
345.006	1.54
345.457	1.53
345.908	1.54
346.359	1.54
346.81	1.54
347.261	1.55
347.712	1.54
348.163	1.54
348.613	1.54
349.064	1.55
349.515	1.55
349.965	1.55
350.416	1.54
350.866	1.53
351.317	1.52
351.767	1.52
352.217	1.51
352.668	1.51
353.118	1.51
353.568	1.5
354.018	1.5
354.468	1.5
354.918	1.5
355.368	1.51
355.818	1.51
356.268	1.51
356.718	1.52
357.168	1.52
357.617	1.51
358.067	1.51
358.517	1.53
358.966	1.53
359.416	1.54
359.865	1.55
360.315	1.56
360.764	1.56
361.213	1.56
361.663	1.55
362.112	1.57
362.561	1.57
363.01	1.58
363.459	1.56
363.908	1.56
364.357	1.56
364.806	1.56
365.255	1.56
365.703	1.58
366.152	1.59
366.601	1.6
367.05	1.6
367.498	1.61
367.947	1.62
368.395	1.62
368.844	1.64
369.292	1.63
369.74	1.64
370.189	1.64
370.637	1.65
371.085	1.64
371.533	1.64
371.981	1.65
372.429	1.66
372.877	1.67
373.325	1.68
373.773	1.69
374.221	1.7
374.669	1.71
375.116	1.72
375.564	1.73
376.012	1.75
376.459	1.77
376.907	1.79
377.354	1.8
377.801	1.83
378.249	1.85
378.696	1.86
379.143	1.88
379.591	1.9
380.038	1.93
380.485	1.95
380.932	1.98
381.379	2.01
381.826	2.04
382.273	2.06
382.72	2.07
383.166	2.1
383.613	2.13
384.06	2.15
384.506	2.17
384.953	2.2
385.4	2.23
385.846	2.27
386.292	2.28
386.739	2.3
387.185	2.33
387.631	2.37
388.078	2.4
388.524	2.44
388.97	2.47
389.416	2.51
389.862	2.55
390.308	2.59
390.754	2.62
391.2	2.66
391.645	2.7
392.091	2.75
392.537	2.79
392.983	2.82
393.428	2.86
393.874	2.9
394.319	2.93
394.765	2.96
395.21	2.98
395.655	3.01
396.101	3.03
396.546	3.06
396.991	3.08
397.436	3.1
397.881	3.12
398.326	3.14
398.771	3.17
399.216	3.17
399.661	3.19
400.106	3.21
400.551	3.22
400.995	3.22
401.44	3.24
401.885	3.25
402.329	3.28
402.774	3.29
403.218	3.33
403.663	3.34
404.107	3.35
404.551	3.37
404.995	3.37
405.44	3.38
405.884	3.39
406.328	3.41
406.772	3.41
407.216	3.41
407.66	3.41
408.104	3.39
408.547	3.39
408.991	3.4
409.435	3.4
409.879	3.41
410.322	3.42
410.766	3.44
411.209	3.44
411.653	3.45
412.096	3.46
412.54	3.48
412.983	3.49
413.426	3.52
413.869	3.52
414.312	3.54
414.756	3.55
415.199	3.54
415.642	3.53
416.085	3.54
416.527	3.52
416.97	3.51
417.413	3.51
417.856	3.51
418.298	3.49
418.741	3.49
419.184	3.48
419.626	3.48
420.069	3.49
420.511	3.5
420.953	3.51
421.396	3.52
421.838	3.53
422.28	3.52
422.722	3.54
423.164	3.53
423.606	3.53
424.048	3.53
424.49	3.54
424.932	3.53
425.374	3.51
425.816	3.47
426.258	3.46
426.699	3.44
427.141	3.44
427.582	3.44
428.024	3.44
428.465	3.43
428.907	3.42
429.348	3.4
429.789	3.39
430.231	3.42
430.672	3.45
431.113	3.46
431.554	3.47
431.995	3.46
432.436	3.46
432.877	3.48
433.318	3.5
433.759	3.53
434.2	3.55
434.64	3.57
435.081	3.57
435.522	3.57
435.962	3.58
436.403	3.62
436.843	3.65
437.284	3.64
437.724	3.64
438.164	3.63
438.604	3.64
439.045	3.64
439.485	3.66
439.925	3.66
440.365	3.68
440.805	3.71
441.245	3.73
441.685	3.74
442.125	3.78
442.564	3.78
443.004	3.79
443.444	3.81
443.883	3.85
444.323	3.86
444.762	3.88
445.202	3.89
445.641	3.92
446.081	3.94
446.52	3.96
446.959	4
447.398	4.04
447.837	4.08
448.276	4.11
448.716	4.14
449.154	4.19
449.593	4.22
450.032	4.24
450.471	4.24
450.91	4.25
451.349	4.28
451.787	4.29
452.226	4.29
452.664	4.31
453.103	4.31
453.541	4.31
453.98	4.33
454.418	4.32
454.856	4.32
455.295	4.33
455.733	4.32
456.171	4.3
456.609	4.3
457.047	4.3
457.485	4.3
457.923	4.31
458.361	4.3
458.798	4.28
459.236	4.28
459.674	4.28
460.111	4.28
460.549	4.3
460.987	4.3
461.424	4.3
461.862	4.3
462.299	4.3
462.736	4.3
463.173	4.3
463.611	4.32
464.048	4.33
464.485	4.34
464.922	4.34
465.359	4.34
465.796	4.38
466.233	4.38
466.67	4.4
467.106	4.41
467.543	4.4
467.98	4.39
468.416	4.36
468.853	4.35
469.29	4.34
469.726	4.34
470.162	4.34
470.599	4.3
471.035	4.28
471.471	4.28
471.907	4.27
472.344	4.27
472.78	4.29
473.216	4.29
473.652	4.31
474.088	4.3
474.523	4.31
474.959	4.31
475.395	4.31
475.831	4.32
476.266	4.33
476.702	4.32
477.138	4.32
477.573	4.32
478.008	4.33
478.444	4.33
478.879	4.36
479.314	4.37
479.75	4.37
480.185	4.37
480.62	4.37
481.055	4.36
481.49	4.38
481.925	4.39
482.36	4.41
482.795	4.41
483.229	4.42
483.664	4.42
484.099	4.42
484.534	4.43
484.968	4.45
485.403	4.47
485.837	4.5
486.271	4.52
486.706	4.54
487.14	4.55
487.574	4.57
488.009	4.6
488.443	4.62
488.877	4.66
489.311	4.69
489.745	4.72
490.179	4.77
490.613	4.82
491.046	4.85
491.48	4.9
491.914	4.95
492.348	5
492.781	5.06
493.215	5.12
493.648	5.18
494.082	5.25
494.515	5.31
494.948	5.38
495.382	5.45
495.815	5.52
496.248	5.6
496.681	5.68
497.114	5.76
497.547	5.84
497.98	5.95
498.413	6.03
498.846	6.13
499.279	6.22
499.711	6.31
500.144	6.42
500.577	6.53
501.009	6.65
501.442	6.77
501.874	6.89
502.306	7.01
502.739	7.16
503.171	7.29
503.603	7.42
504.036	7.58
504.468	7.73
504.9	7.87
505.332	8.02
505.764	8.18
506.196	8.33
506.627	8.5
507.059	8.66
507.491	8.81
507.923	8.99
508.354	9.17
508.786	9.36
509.217	9.54
509.649	9.74
510.08	9.93
510.512	10.14
510.943	10.35
511.374	10.55
511.805	10.75
512.237	10.96
512.668	11.16
513.099	11.36
513.53	11.56
513.961	11.78
514.391	11.99
514.822	12.21
515.253	12.41
515.684	12.63
516.114	12.84
516.545	13.06
516.975	13.27
517.406	13.48
517.836	13.69
518.267	13.9
518.697	14.09
519.127	14.28
519.558	14.47
519.988	14.67
520.418	14.85
520.848	15.03
521.278	15.21
521.708	15.64
522.138	15.83
522.567	15.99
522.997	16.16
523.427	16.33
523.857	16.49
524.286	16.64
524.716	16.79
525.145	16.92
525.575	17.08
526.004	17.21
526.433	17.08
526.863	17.2
527.292	17.33
527.721	17.44
528.15	17.53
528.579	17.63
529.008	17.73
529.437	17.83
529.866	17.92
530.295	17.99
530.724	18.08
531.152	18.16
531.581	18.25
532.01	18.33
532.438	18.4
532.867	18.47
533.295	18.53
533.723	18.58
534.152	18.63
534.58	18.68
535.008	18.71
535.436	18.76
535.865	18.79
536.293	18.81
536.721	18.84
537.149	18.88
537.576	18.92
538.004	18.96
538.432	18.97
538.86	19
539.287	19.01
539.715	19.07
540.143	19.08
540.57	19.1
540.998	19.1
541.425	19.13
541.852	19.14
542.28	19.16
542.707	19.17
543.134	19.19
543.561	19.21
543.988	19.23
544.415	19.24
544.842	19.24
545.269	19.26
545.696	19.29
546.123	19.29
546.549	19.32
546.976	19.33
547.403	19.35
547.829	19.36
548.256	19.37
548.682	19.39
549.108	19.4
549.535	19.41
549.961	19.43
550.387	19.43
550.813	19.44
551.24	19.43
551.666	19.44
552.092	19.43
552.518	19.44
552.943	19.43
553.369	19.42
553.795	19.4
554.221	19.39
554.646	19.35
555.072	19.35
555.498	19.31
555.923	19.28
556.349	19.25
556.774	19.21
557.199	19.16
557.625	19.12
558.05	19.07
558.475	19.03
558.9	18.99
559.325	18.95
559.75	18.91
560.175	18.85
560.6	18.79
561.025	18.72
561.449	18.65
561.874	18.59
562.299	18.52
562.723	18.43
563.148	18.36
563.572	18.27
563.997	18.19
564.421	18.08
564.846	18
565.27	17.93
565.694	17.84
566.118	17.75
566.542	17.66
566.966	17.57
567.39	17.5
567.814	17.4
568.238	17.31
568.662	17.22
569.086	17.14
569.509	17.04
569.933	16.96
570.357	16.87
570.78	16.78
571.204	16.7
571.627	16.62
572.05	16.53
572.474	16.46
572.897	16.38
573.32	16.3
573.743	16.21
574.166	16.13
574.589	16.04
575.012	15.96
575.435	15.88
575.858	15.81
576.281	15.72
576.704	15.65
577.126	15.56
577.549	15.49
577.972	15.4
578.394	15.33
578.817	15.27
579.239	15.22
579.661	15.17
580.084	15.11
580.506	15.06
580.928	15.01
581.35	14.96
581.772	14.91
582.194	14.86
582.616	14.82
583.038	14.76
583.46	14.69
583.882	14.64
584.303	14.58
584.725	14.52
585.147	14.5
585.568	14.46
585.99	14.41
586.411	14.36
586.833	14.32
587.254	14.27
587.675	14.23
588.096	14.2
588.518	14.15
588.939	14.12
589.36	14.08
589.781	14.01
590.202	13.98
590.623	13.95
591.043	13.92
591.464	13.89
591.885	13.86
592.305	13.82
592.726	13.8
593.147	13.77
593.567	13.73
593.987	13.71
594.408	13.68
594.828	13.64
595.248	13.61
595.669	13.59
596.089	13.57
596.509	13.54
596.929	13.53
597.349	13.51
597.769	13.5
598.189	13.48
598.608	13.46
599.028	13.44
599.448	13.41
599.867	13.38
600.287	13.35
600.706	13.33
601.126	13.3
601.545	13.28
601.965	13.26
602.384	13.23
602.803	13.19
603.222	13.15
603.641	13.11
604.061	13.08
604.48	13.05
604.898	13.01
605.317	12.97
605.736	12.93
606.155	12.88
606.574	12.81
606.992	12.76
607.411	12.71
607.829	12.63
608.248	12.55
608.666	12.48
609.085	12.42
609.503	12.37
609.921	12.32
610.339	12.26
610.758	12.2
611.176	12.14
611.594	12.08
612.012	12.03
612.43	12
612.847	11.96
613.265	11.92
613.683	11.87
614.101	11.81
614.518	11.74
614.936	11.68
615.353	11.62
615.771	11.57
616.188	11.52
616.606	11.47
617.023	11.42
617.44	11.38
617.857	11.33
618.274	11.29
618.691	11.24
619.108	11.21
619.525	11.18
619.942	11.16
620.359	11.12
620.776	11.09
621.192	11.07
621.609	11.05
622.026	11.03
622.442	11.02
622.859	10.98
623.275	10.97
623.691	10.95
624.108	10.92
624.524	10.9
624.94	10.88
625.356	10.86
625.772	10.84
626.188	10.83
626.604	10.81
627.02	10.8
627.436	10.79
627.852	10.78
628.268	10.78
628.683	10.77
629.099	10.76
629.514	10.76
629.93	10.75
630.345	10.74
630.761	10.71
631.176	10.69
631.591	10.66
632.007	10.64
632.422	10.61
632.837	10.57
633.252	10.53
633.667	10.48
634.082	10.42
634.497	10.36
634.911	10.3
635.326	10.24
635.741	10.18
636.155	10.11
636.57	10.03
636.984	9.96
637.399	9.87
637.813	9.79
638.228	9.71
638.642	9.62
639.056	9.52
639.47	9.43
639.884	9.34
640.298	9.23
640.712	9.13
641.126	9.03
641.54	8.92
641.954	8.82
642.368	8.73
642.781	8.65
643.195	8.56
643.609	8.47
644.022	8.37
644.436	8.28
644.849	8.18
645.262	8.09
645.676	8
646.089	7.92
646.502	7.85
646.915	7.77
647.328	7.69
647.741	7.63
648.154	7.57
648.567	7.52
648.98	7.48
649.393	7.44
649.805	7.4
650.218	7.37
650.631	7.34
651.043	7.31
651.456	7.28
651.868	7.23
652.28	7.19
652.693	7.16
653.105	7.12
653.517	7.07
653.929	7.03
654.341	6.98
654.753	6.92
655.165	6.86
655.577	6.8
655.989	6.73
656.401	6.68
656.813	6.61
657.224	6.54
657.636	6.44
658.047	6.37
658.459	6.28
658.87	6.2
659.282	6.11
659.693	6.03
660.104	5.94
660.515	5.85
660.926	5.76
661.338	5.67
661.749	5.59
662.159	5.52
662.57	5.44
662.981	5.36
663.392	5.29
663.803	5.22
664.213	5.15
664.624	5.08
665.035	5.01
665.445	4.95
665.855	4.89
666.266	4.85
666.676	4.8
667.086	4.74
667.497	4.7
667.907	4.66
668.317	4.62
668.727	4.6
669.137	4.56
669.547	4.54
669.956	4.52
670.366	4.51
670.776	4.48
671.186	4.46
671.595	4.46
672.005	4.45
672.414	4.45
672.824	4.44
673.233	4.43
673.642	4.44
674.052	4.45
674.461	4.45
674.87	4.46
675.279	4.49
675.688	4.52
676.097	4.54
676.506	4.57
676.915	4.6
677.323	4.63
677.732	4.66
678.141	4.7
678.549	4.74
678.958	4.78
679.366	4.84
679.775	4.89
680.183	4.98
680.592	5.06
681	5.15
681.408	5.25
681.816	5.37
682.224	5.5
682.632	5.64
683.04	5.79
683.448	5.95
683.856	6.11
684.264	6.29
684.671	6.48
685.079	6.68
685.487	6.9
685.894	7.15
686.302	7.4
686.709	7.68
687.116	7.97
687.524	8.27
687.931	8.59
688.338	8.95
688.745	9.3
689.152	9.65
689.559	10.04
689.966	10.43
690.373	10.81
690.78	11.22
691.187	11.62
691.593	12.02
692	12.44
692.407	12.84
692.813	13.24
693.22	13.65
693.626	14.06
694.032	14.48
694.439	14.89
694.845	15.3
695.251	15.68
695.657	16.07
696.063	16.45
696.469	16.84
696.875	17.24
697.281	17.61
697.687	17.99
698.093	18.33
698.498	18.67
698.904	19.02
699.31	19.36
699.715	19.7
700.12	20.05
700.526	20.37
700.931	20.67
701.337	20.97
701.742	21.26
702.147	21.54
702.552	21.82
702.957	22.08
703.362	22.34
703.767	22.59
704.172	22.83
704.577	23.06
704.981	23.31
705.386	23.55
705.791	23.78
706.195	24.01
706.6	24.24
707.004	24.45
707.408	24.68
707.813	24.9
708.217	25.12
708.621	25.33
709.025	25.52
709.43	25.7
709.834	25.89
710.237	26.08
710.641	26.26
711.045	26.43
711.449	26.62
711.853	26.81
712.256	26.96
712.66	27.1
713.064	27.26
713.467	27.41
713.87	27.57
714.274	27.71
714.677	27.85
715.08	27.99
715.484	28.13
715.887	28.3
716.29	28.42
716.693	28.57
717.096	28.72
717.499	28.83
717.901	28.96
718.304	29.08
718.707	29.2
719.109	29.33
719.512	29.46
719.915	29.58
720.317	29.63
720.719	29.69
721.122	29.79
721.524	29.87
721.926	29.98
722.328	30.08
722.731	30.15
723.133	30.23
723.535	30.28
723.937	30.34
724.338	30.41
724.74	30.51
725.142	30.81
725.544	30.87
725.945	31.01
726.347	31.05
726.748	31.11
727.15	31.16
727.551	31.25
727.952	31.31
728.354	31.39
728.755	31.43
729.156	31.48
729.557	31.32
729.958	31.36
730.359	31.37
730.76	31.43
731.161	31.48
731.562	31.55
731.962	31.55
732.363	31.6
732.763	31.62
733.164	31.65
733.564	31.69
733.965	31.71
734.365	31.75
734.766	31.76
735.166	31.79
735.566	31.8
735.966	31.83
736.366	31.86
736.766	31.88
737.166	31.9
737.566	31.94
737.966	31.96
738.365	31.99
738.765	32.03
739.165	32.04
739.564	32.06
739.964	32.07
740.363	32.08
740.763	32.12
741.162	32.15
741.561	32.15
741.96	32.17
742.36	32.18
742.759	32.2
743.158	32.2
743.557	32.23
743.955	32.23
744.354	32.24
744.753	32.25
745.152	32.25
745.55	32.25
745.949	32.29
746.348	32.31
746.746	32.25
747.144	32.27
747.543	32.27
747.941	32.28
748.339	32.27
748.737	32.28
749.136	32.28
749.534	32.26
749.932	32.27
750.33	32.27
750.727	32.26
751.125	32.29
751.523	32.3
751.921	32.3
752.318	32.28
752.716	32.31
753.113	32.32
753.511	32.35
753.908	32.37
754.305	32.4
754.703	32.4
755.1	32.43
755.497	32.43
755.894	32.43
756.291	32.45
756.688	32.44
757.085	32.44
757.482	32.44
757.878	32.45
758.275	32.45
758.672	32.41
759.068	32.4
759.465	32.37
759.861	32.38
760.258	32.38
760.654	32.38
761.05	32.41
761.447	32.39
761.843	32.38
762.239	32.35
762.635	32.34
763.031	32.36
763.427	32.35
763.822	32.35
764.218	32.35
764.614	32.36
765.01	32.33
765.405	32.32
765.801	32.32
766.196	32.32
766.592	32.32
766.987	32.3
767.382	32.27
767.778	32.28
768.173	32.28
768.568	32.27
768.963	32.28
769.358	32.3
769.753	32.32
770.148	32.34
770.542	32.34
770.937	32.35
771.332	32.37
771.726	32.38
772.121	32.38
772.515	32.38
772.91	32.37
773.304	32.36
773.699	32.35
774.093	32.31
774.487	32.3
774.881	32.31
775.275	32.32
775.669	32.29
776.063	32.27
776.457	32.3
776.851	32.28
777.245	32.25
777.638	32.25
778.032	32.25
778.425	32.3
778.819	32.3
779.212	32.3
779.606	32.3
779.999	32.31
780.392	32.33
780.786	32.29
781.179	32.31
781.572	32.36
781.965	32.36
782.358	32.37
782.751	32.35
783.143	32.34
783.536	32.31
783.929	32.29
784.322	32.33
784.714	32.31
785.107	32.33
785.499	32.33
785.891	32.33
786.284	32.34
786.676	32.33
787.068	32.33
787.46	32.33
787.852	32.34
788.245	32.35
788.636	32.31
789.028	32.34
789.42	32.34
789.812	32.32
790.204	32.31
790.595	32.3
790.987	32.3
791.378	32.31
791.77	32.29
792.161	32.29
792.553	32.29
792.944	32.27
793.335	32.26
793.726	32.28
794.117	32.27
794.508	32.25
794.899	32.25
795.29	32.24
795.681	32.21
796.072	32.21
796.463	32.28
796.853	32.3
797.244	32.31
797.634	32.29
798.025	32.28
798.415	32.3
798.806	32.3
799.196	32.32
799.586	32.35
799.976	32.39
800.366	32.37
800.756	32.3
801.146	32.27
801.536	32.28
801.926	32.29
802.316	32.29
802.706	32.3
803.095	32.32
803.485	32.32
803.874	32.29
804.264	32.27
804.653	32.28
805.043	32.31
805.432	32.34
805.821	32.35
806.21	32.36
806.599	32.33
806.988	32.34
807.377	32.34
807.766	32.32
808.155	32.31
808.544	32.32
808.933	32.32
809.321	32.33
809.71	32.33
810.098	32.32
810.487	32.31
810.875	32.32
811.264	32.3
811.652	32.34
812.04	32.33
812.428	32.38
812.816	32.36
813.204	32.36
813.592	32.32
813.98	32.33
814.368	32.34
814.756	32.33
815.144	32.34
815.531	32.35
815.919	32.31
816.306	32.32
816.694	32.28
817.081	32.31
817.469	32.32
817.856	32.31
818.243	32.3
818.63	32.27
819.017	32.28
819.404	32.27
819.791	32.25
820.178	32.23
820.565	32.22
820.952	32.22
821.339	32.2
821.725	32.2
822.112	32.21
822.498	32.22
822.885	32.24
823.271	32.26
823.657	32.24
824.044	32.26
824.43	32.27
824.816	32.29
825.202	32.27
825.588	32.28
825.974	32.28
826.36	32.29
826.746	32.26
827.132	32.25
827.517	32.26
827.903	32.29
828.289	32.28
828.674	32.29
829.06	32.29
829.445	32.27
829.83	32.28
830.216	32.26
830.601	32.24
830.986	32.25
831.371	32.23
831.756	32.21
832.141	32.19
832.526	32.19
832.911	32.16
833.295	32.14
833.68	32.14
834.065	32.14
834.449	32.12
834.834	32.11
835.218	32.11
835.603	32.11
835.987	32.1
836.371	32.08
836.755	32.06
837.139	32.07
837.524	32.06
837.908	32.08
838.291	32.09
838.675	32.11
839.059	32.13
839.443	32.11
839.827	32.1
840.21	32.1
840.594	32.1
840.977	32.11
841.361	32.12
841.744	32.1
842.127	32.05
842.511	32.03
842.894	32.01
843.277	31.99
843.66	31.98
844.043	32
844.426	32.01
844.809	32.01
845.191	32.02
845.574	32.04
845.957	32.06
846.339	32.08
846.722	32.09
847.104	32.11
847.487	32.12
847.869	32.13
848.252	32.13
848.634	32.12
849.016	32.13
849.398	32.11
849.78	32.11
850.162	32.11
850.544	32.12
850.926	32.12
851.307	32.12
851.689	32.12
852.071	32.12
852.452	32.1
852.834	32.12
853.215	32.11
853.597	32.13
853.978	32.13
854.359	32.12
854.741	32.11
855.122	32.1
855.503	32.07
855.884	32.07
856.265	32.05
856.646	32.04
857.026	32.05
857.407	32.06
857.788	32.05
858.169	32.03
858.549	32.03
858.93	32.03
859.31	32.03
859.69	32.06
860.071	32.05
860.451	32.06
860.831	32.07
861.211	32.06
861.591	32.04
861.971	32.02
862.351	32.04
862.731	32.06
863.111	32.05
863.491	32.05
863.87	32.02
864.25	32.04
864.629	32.04
865.009	32.03
865.388	32.02
865.768	32.01
866.147	32.03
866.526	32.01
866.905	31.99
867.284	31.99
867.663	31.98
868.042	31.99
868.421	31.99
868.8	31.99
869.179	31.99
869.558	31.97
869.936	31.97
870.315	31.94
870.693	31.95
871.072	31.95
871.45	31.96
871.828	31.97
872.207	31.97
872.585	31.97
872.963	31.94
873.341	31.94
873.719	31.96
874.097	31.96
874.475	31.99
874.853	31.98
875.23	31.98
875.608	31.97
875.986	31.96
876.363	31.96
876.741	31.95
877.118	31.96
877.495	31.97
877.873	31.96
878.25	31.96
878.627	31.94
879.004	31.93
879.381	31.93
879.758	31.92
880.135	31.91
880.512	31.9
880.889	31.91
881.265	31.9
881.642	31.89
882.019	31.91
882.395	31.91
882.772	31.91
883.148	31.91
883.524	31.9
883.901	31.92
884.277	31.9
884.653	31.88
885.029	31.88
885.405	31.89
885.781	31.88
886.157	31.87
886.532	31.85
886.908	31.85
887.284	31.84
887.659	31.83
888.035	31.8
888.411	31.82
888.786	31.81
889.161	31.82
889.537	31.81
889.912	31.8
890.287	31.8
890.662	31.8
891.037	31.81
891.412	31.79
891.787	31.79
892.162	31.79
892.536	31.79
892.911	31.81
893.286	31.8
893.66	31.81
894.035	31.82
894.409	31.82
894.784	31.82
895.158	31.81
895.532	31.81
895.906	31.82
896.281	31.83
896.655	31.84
897.029	31.83
897.402	31.82
897.776	31.82
898.15	31.82
898.524	31.83
898.898	31.84
899.271	31.86
899.645	31.88
900.018	31.87
900.392	31.85
900.765	31.84
901.138	31.83
901.511	31.82
901.884	31.83
902.258	31.82
902.631	31.8
903.003	31.78
903.376	31.79
903.749	31.79
904.122	31.79
904.495	31.8
904.867	31.8
905.24	31.8
905.612	31.82
905.985	31.81
906.357	31.8
906.729	31.82
907.102	31.83
907.474	31.82
907.846	31.8
908.218	31.8
908.59	31.82
908.962	31.84
909.334	31.84
909.705	31.83
910.077	31.84
910.449	31.83
910.82	31.81
911.192	31.8
911.563	31.79
911.935	31.77
912.306	31.8
912.677	31.8
913.048	31.8
913.419	31.78
913.79	31.78
914.161	31.77
914.532	31.8
914.903	31.81
915.274	31.8
915.645	31.8
916.015	31.83
916.386	31.82
916.756	31.8
917.127	31.81
917.497	31.8
917.868	31.82
918.238	31.83
918.608	31.85
918.978	31.87
919.348	31.91
919.718	31.94
920.088	31.93
920.458	31.95
920.828	31.93
921.198	31.92
921.567	31.94
921.937	31.95
922.306	31.95
922.676	31.92
923.045	31.92
923.415	31.92
923.784	31.91
924.153	31.93
924.522	31.94
924.891	31.97
925.26	31.97
925.629	31.97
925.998	31.96
926.367	31.97
926.736	31.99
927.104	31.99
927.473	31.95
927.842	31.94
928.21	31.94
928.578	31.96
928.947	31.99
929.315	32.01
929.683	32
930.051	31.99
930.42	32
930.788	31.98
931.156	31.97
931.523	32
931.891	32.05
932.259	32.1
932.627	32.1
932.994	32.07
933.362	32.09
933.729	32.14
934.097	32.19
934.464	32.21
934.831	32.26
935.199	32.28
935.566	32.29
935.933	32.25
936.3	32.19
936.667	32.16
937.034	32.27
937.401	32.26
937.767	32.25
938.134	32.24
938.501	32.23
938.867	32.25
939.234	32.23
939.6	32.24
939.967	32.3
940.333	32.28
940.699	32.27
941.065	32.11
941.431	32.09
941.798	32.06
942.163	32.02
942.529	32.02
942.895	31.95
943.261	31.89
943.627	31.86
943.992	31.8
944.358	31.74
944.723	31.7
945.089	31.66
945.454	31.64
945.82	31.63
946.185	31.64
946.55	31.56
946.915	31.52
947.28	31.52
947.645	31.55
948.01	31.6
948.375	31.64
948.74	31.66
949.104	31.7
949.469	31.66
949.834	31.61
950.198	31.6
950.562	31.59
950.927	31.55
951.291	31.5
951.655	31.43
952.02	31.33
952.384	31.26
952.748	31.25
953.112	31.25
953.476	31.24
953.839	31.23
954.203	31.26
954.567	31.23
954.931	31.23
955.294	31.29
955.658	31.33
956.021	31.35
956.385	31.38
956.748	31.33
957.111	31.32
957.474	31.31
957.837	31.25
958.2	31.2
958.563	31.19
958.926	31.17
959.289	31.18
959.652	31.16
960.015	31.15
960.377	31.17
960.74	31.2
961.102	31.21
961.465	31.26
961.827	31.44
962.189	31.48
962.552	31.5
962.914	31.52
963.276	31.5
963.638	31.48
964	31.51
964.362	31.52
964.724	31.48
965.085	31.46
965.447	31.44
965.809	31.32
966.17	31.33
966.532	31.33
966.893	31.38
967.255	31.43
967.616	31.44
967.977	31.42
968.338	31.41
968.699	31.46
969.061	31.44
969.421	31.44
969.782	31.43
970.143	31.44
970.504	31.48
970.865	31.53
971.225	31.48
971.586	31.45
971.946	31.46
972.307	31.45
972.667	31.37
973.027	31.44
973.388	31.44
973.748	31.48
974.108	31.53
974.468	31.41
974.828	31.44
975.188	31.43
975.548	31.44
975.907	31.46
976.267	31.46
976.627	31.57
976.986	31.54
977.346	31.46
977.705	31.43
978.064	31.38
978.424	31.51
978.783	31.38
979.142	31.36
979.501	31.42
979.86	31.45
980.219	31.43
980.578	31.4
980.937	31.41
981.296	31.5
981.654	31.56
982.013	31.55
982.371	31.49
982.73	31.51
983.088	31.56
983.447	31.53
983.805	31.51
984.163	31.56
984.521	31.57
984.879	31.54
985.237	31.54
985.595	31.61
985.953	31.59
986.311	31.59
986.669	31.55
987.026	31.55
987.384	31.56
987.741	31.56
988.099	31.56
988.456	31.53
988.814	31.57
989.171	31.5
989.528	31.41
989.885	31.4
990.242	31.43
990.599	31.49
990.956	31.47
991.313	31.53
991.67	31.54
992.027	31.77
992.383	31.87
992.74	31.91
993.096	32.04
993.453	32.04
993.809	32.1
994.165	32.07
994.522	32.24
994.878	32.28
995.234	32.26
995.59	32.28
995.946	32.06
996.302	32.04
996.658	32.05
997.013	31.97
997.369	32.03
997.725	32.12
998.08	32.23
998.436	32.09
998.791	32.15
999.147	32.11
999.502	32.13
999.857	32.04
1000.212	31.99
1000.567	32.02
1000.922	32.05
1001.277	32.06
1001.632	31.93
1001.987	31.91
1002.342	31.87
1002.696	31.76
1003.051	31.93
1003.406	31.99
1003.76	32.22
1004.114	32.26
1004.469	32.26
1004.823	32.56
1005.177	32.43
1005.531	32.53
1005.885	32.54
1006.239	32.76
1006.593	32.98
1006.947	32.92
1007.301	32.83
1007.655	32.61
1008.008	32.58
1008.362	32.61
1008.715	32.36
1009.069	32.47
1009.422	32.57
1009.776	32.48
1010.129	32.38
1010.482	32.31
1010.835	32.3
1011.188	32.28
1011.541	32.41
1011.894	32.43
1012.247	32.39
1012.6	32.31
1012.952	32.38
1013.305	32.43
1013.657	32.69
1014.01	32.67
1014.362	32.57
1014.715	32.77
1015.067	32.89
1015.419	33
1015.771	32.95
1016.123	33.07
1016.475	33.05
1016.827	33.1
1017.179	33.03
1017.531	32.81
1017.883	32.69
1018.234	33.24
1018.586	33.14
1018.938	33.42
1019.289	33.4
1019.64	33.42
1019.992	33.25
1020.343	33.34
1020.694	33.29
1021.045	33.1
1021.396	33.19
1021.747	33.47
1022.098	32.9
1022.449	32.99
1022.8	32.9
1023.151	32.9
1023.501	33.14
1023.852	33.22
1024.202	33.23
1024.553	33.12
1024.903	33.49
1025.253	33.89
1025.604	33.88
1025.954	33.86
1026.304	33.62
1026.654	33.6
1027.004	33.69
1027.354	33.56
1027.703	33.4
1028.053	33.5
1028.403	33.65
1028.753	33.21
1029.102	32.94
1029.452	32.95
1029.801	33.25
1030.15	33.28
1030.499	33
897.758	2106.7
901.051	2100.48
904.343	2092.01
907.636	2137.65
910.928	2083.95
914.22	2073.11
917.511	2040.77
920.803	1953.18
924.094	1943.86
927.384	1899.15
930.675	1810.01
933.965	1795.16
937.255	1695.67
940.544	1626.91
943.834	1538.51
947.123	1521.55
950.411	1436.27
953.7	1404.42
956.988	1327.04
960.276	1268.32
963.563	1249.58
966.851	1206.16
970.138	1196.61
973.424	1156.85
976.711	1164.06
979.997	1105.63
983.283	1101.07
986.568	1076.69
989.853	1040.01
993.138	1022.94
996.423	984.1
999.708	955.53
1002.992	947.63
1006.275	898.24
1009.559	889.02
1012.842	855.73
1016.125	831.02
1019.408	815.25
1022.69	803.64
1025.972	791.11
1029.254	768.63
1032.536	755.81
1035.817	737.44
1039.098	726.41
1042.379	711.66
1045.659	703.67
1048.939	686.3
1052.219	674.04
1055.498	660.09
1058.778	646.42
1062.057	627.04
1065.335	620.39
1068.614	612.7
1071.892	607.19
1075.17	584.77
1078.447	574.47
1081.724	571.07
1085.001	565
1088.278	551.39
1091.554	541.63
1094.83	539.91
1098.106	537.88
1101.382	531.58
1104.657	528
1107.932	518.31
1111.206	523.15
1114.481	508.58
1117.755	502.11
1121.029	498.95
1124.302	500.79
1127.575	489.35
1130.848	482.68
1134.121	476.33
1137.393	475.16
1140.665	463.89
1143.937	462.08
1147.208	455.24
1150.48	456.48
1153.75	450.24
1157.021	441.59
1160.291	440.92
1163.561	436.54
1166.831	436.49
1170.101	434.47
1173.37	431.35
1176.639	432.32
1179.907	427.53
1183.176	424.58
1186.444	423.6
1189.711	423.03
1192.979	422.47
1196.246	418.11
1199.513	420.59
1202.78	418.07
1206.046	417.51
1209.312	413.92
1212.578	414.74
1215.843	418.39
1219.108	415
1222.373	423.82
1225.638	427.47
1228.902	435.5
1232.166	434.98
1235.43	438.63
1238.693	445.11
1241.956	446.03
1245.219	455.01
1248.482	453.87
1251.744	453.9
1255.006	455.92
1258.268	444.21
1261.529	439.48
1264.79	434.04
1268.051	432.8
1271.312	426.58
1274.572	420.59
1277.832	416.89
1281.092	408.69
1284.351	405.85
1287.61	405.17
1290.869	398.61
1294.128	395.52
1297.386	394.79
1300.644	391.22
1303.902	392.43
1307.159	389.98
1310.416	390.92
1313.673	391.33
1316.93	395.66
1320.186	396.18
1323.442	397.48
1326.697	406.44
1329.953	407.41
1333.208	410.26
1336.463	414.98
1339.717	416
1342.972	420.88
1346.226	424.07
1349.479	424.22
1352.733	427.87
1355.986	429.74
1359.238	429.99
1362.491	433.01
1365.743	437.33
1368.995	437.93
1372.247	436.08
1375.498	437.16
1378.749	444.55
1382	437.81
1385.251	441.37
1388.501	438.09
1391.751	442.32
1395	440.04
1398.25	436.69
1401.499	436.37
1404.748	436.38
1407.996	433.15
1411.244	430.8
1414.492	428.77
1417.74	427.4
1420.987	419.55
1424.234	421.82
1427.481	413.63
1430.728	415.13
1433.974	410.32
1437.22	406.93
1440.465	405.22
1443.711	404.23
1446.956	402.79
1450.201	395.05
1453.445	391.67
1456.689	391.61
1459.933	383.09
1463.177	381.46
1466.42	374.04
1469.663	369.22
1472.906	367.04
1476.148	357
1479.391	351.31
1482.633	346.24
1485.874	342.39
1489.115	339.98
1492.356	334.23
1495.597	333.41
1498.838	327.65
1502.078	325.4
1505.318	323.96
1508.557	323.28
1511.797	323.51
1515.036	321.89
1518.274	320.05
1521.513	315.29
1524.751	315.06
1527.989	314
1531.227	312.17
1534.464	313.62
1537.701	310.42
1540.938	309.2
1544.174	304.28
1547.41	302.99
1550.646	301.36
1553.882	302.07
1557.117	298.32
1560.352	295.31
1563.587	294.42
1566.821	292.19
1570.055	287.17
1573.289	285
1576.523	284.69
1579.756	282.86
1582.989	280.43
1586.222	280.08
1589.454	277.35
1592.686	279.11
1595.918	278.67
1599.15	277.33
1602.381	276.89
1605.612	277.39
1608.843	279.2
1612.073	278.16
1615.303	279.35
1618.533	280.51
1621.762	278.95
1624.992	279.48
1628.221	279.64
1631.449	278.5
1634.678	277.74
1637.906	279.51
1641.134	279.37
1644.361	278.64
1647.588	279.43
1650.815	277.96
1654.042	276.14
1657.269	278.3
1660.495	278.6
1663.72	275.61
1666.946	277.55
1670.171	278.33
1673.396	277.95
1676.621	277.97
1679.845	277.36
1683.069	277.59
1686.293	279.66
1689.517	281.31
1692.74	280.74
1695.963	282.28
1699.185	287.05
1702.408	286.54
1705.63	287.5
1708.852	288.51
1712.073	289.18
1715.294	290.42
1718.515	291.15
1721.736	291.15
1724.956	291.94
1728.176	291.92
1731.396	294.82
1734.616	293.86
1737.835	294.95
1741.054	292.92
1744.272	293.94
1747.491	297.54
1750.709	297.77
1753.927	298.7
1757.144	297.49
1760.361	300.26
1763.578	299.99
1766.795	299.21
1770.011	300.96
1773.227	301.24
1776.443	305.76
1779.658	307.92
1782.874	306.41
1786.089	308.47
1789.303	309.78
1792.518	313.8
1795.732	312.59
1798.945	317.89
1802.159	317.31
1805.372	319.34
1808.585	325.49
1811.797	327.27
1815.01	325.89
1818.222	329.08
1821.434	330.16
1824.645	332.32
1827.856	339.01
1831.067	342.41
1834.278	339.13
1837.488	342.35
1840.698	345.92
1843.908	342.05
1847.117	343.33
1850.326	347.04
1853.535	346.26
1856.744	354.39
1859.952	353.19
1863.16	351.72
1866.368	350.04
1869.575	357.38
1872.782	351.94
1875.989	350.18
1879.196	350.14
1882.402	350.17
1885.608	352.38
1888.814	355.37
1892.019	353.76
1895.224	354.16
1898.429	352.17
1901.634	356.17
1904.838	355.87
1908.042	362.2
1911.246	363.96
1914.449	366.87
1917.652	367.34
1920.855	366.67
1924.058	365.07
1927.26	364.23
1930.462	367.3
1933.664	372.02
1936.865	367.89
1940.066	369.01
1943.267	365.43
1946.467	365.1
1949.668	367.85
1952.868	371.86
1956.067	371.33
1959.267	372.21
1962.466	373.31
1965.665	370.39
1968.863	371.15
1972.061	375.49
1975.259	379.03
1978.457	382.28
1981.654	384.97
1984.852	386.04
1988.048	383.92
1991.245	387.79
1994.441	393
1997.637	395.15
2000.833	401.99
2004.028	407.19
2007.223	411.04
2010.418	415.51
2013.613	421.55
2016.807	426.86
2020.001	428.24
2023.194	434.99
2026.388	444.14
2029.581	453.09
2032.774	458.13
2035.966	467.62
2039.158	469.15
2042.35	477.44
2045.542	478.44
2048.733	486.47
2051.924	491.83
2055.115	501.92
2058.306	502.24
2061.496	509.79
2064.686	508.81
2067.875	516.89
2071.065	518.29
2074.254	515.32
2077.442	519.59
2080.631	522.71
2083.819	528.01
2087.007	527.92
2090.195	532.7
2093.382	538.38
2096.569	532.37
2099.756	542.27
2102.942	543.07
2106.128	549.65
2109.314	562.35
2112.5	561.02
2115.685	573.42
2118.87	573.95
2122.055	586.5
2125.239	592.43
2128.424	599.98
2131.608	604.45
2134.791	611.68
2137.974	615.24
2141.157	616.41
2144.34	616.6
2147.523	626.56
2150.705	621.19
2153.887	625.98
2157.068	627.67
2160.25	620.85
2163.431	622.65
2166.611	629.45
2169.792	642.1
2172.972	649.8
2176.152	651.82
2179.331	662.26
2182.511	674.55
2185.69	683.86
2188.868	698.79
2192.047	700.07
2195.225	720.22
2198.403	738.26
2201.58	751.49
2204.758	765.87
2207.935	782.31
2211.111	797.86
2214.288	807.53
2217.464	810.39
2220.64	818.4
2223.815	831.53
2226.991	864.91
2230.166	869.23
2233.34	886.67
2236.515	900.82
2239.689	901.7
2242.863	906.04
2246.036	936.22
2249.209	925.05
2252.382	939.33
2255.555	971.86
2258.727	972.78
2261.9	978.59
2265.071	987.49
2268.243	1001.25
2271.414	1014.02
2274.585	1040.13
2277.756	1049.27
2280.926	1052.34
2284.096	1076.46
2287.266	1103.5
2290.436	1110.71
2293.605	1139.01
2296.774	1179.3
2299.942	1215.48
2303.111	1224.26
2306.279	1255.38
2309.447	1269.56
2312.614	1301.8
2315.781	1342.13
2318.948	1407.22
2322.115	1382.31
2325.281	1457.11
2328.447	1425.51
2331.613	1482.61
2334.779	1464.65
2337.944	1527.64
2341.109	1544.41
2344.274	1584.07
2347.438	1648.56
2350.602	1645.75
2353.766	1694.05
2356.929	1719.74
2360.092	1704.75
2363.255	1836.54
2366.418	1824.93
2369.58	1865.67
2372.742	1975.24
2375.904	2022.79
2379.066	2010.2
2382.227	1965.51
2385.388	2134.76
2388.548	2141.09
2391.709	2171.91
2394.869	2429.06
2398.029	2307.06
2401.188	2379.3
2404.347	2361.73
2407.506	2333.16
2410.665	2402.7
2413.823	2547.6
2416.981	2696.55
2420.139	2603.37
2423.296	2572.33
2426.453	2685.35
2429.61	2576.08
2432.767	2711.28
2435.923	2687.87
2439.079	2922.63
2442.235	2960.25
2445.391	2926.75
2448.546	2912.71
2451.701	2834.52
2454.855	2837.7
2458.009	3003.85
2461.163	3121.4
2464.317	3240.22
2467.471	3322.82
2470.624	3320.82
2473.777	3243.71
2476.929	3167.4
2480.082	3084.41
2483.234	3040.89
2486.385	3182.76
2489.537	3194.86
2492.688	3332.02
2495.839	3222.31
2498.989	3166.52
2502.14	3184.65
2505.29	3223.78
2508.439	3277.62
2511.589	3262.64
2514.738	3549.59
2517.887	3480.34
2521.035	3685.17
2524.183	3706.25
2527.331	3737.41
2530.479	3747.03
2533.627	3761.24
