Data from N_3_HIR_IL_4N_Splice17_14-29-13-944.txt Node
Date: Sat Mar 07 14:29:13 EST 2020
User: sa697716
Spectrometer: NQ5500242
Trigger mode: 0
Integration Time (sec): 1.450000E-1
Scans to average: 20
Nonlinearity correction enabled: false
Boxcar width: 5
Storing dark spectrum: false
XAxis mode: Wavelengths
Number of Pixels in Spectrum: 512
>>>>>Begin Spectral Data<<<<<
187.83	161.78
188.298	203.43
188.766	181.12
189.233	145.62
189.701	149.63
190.169	159.31
190.636	193.42
191.104	267.21
191.571	389.41
192.039	217.28
192.506	275.46
192.974	-11.7
193.441	183.18
193.908	153.83
194.375	105.88
194.842	60.82
195.31	51.1
195.777	73.21
196.244	52.13
196.711	63.22
197.177	65.17
197.644	64.86
198.111	65.13
198.578	65.67
199.045	65.76
199.511	65.57
199.978	65.84
200.445	66.18
200.911	65.99
201.378	66.24
201.844	66.26
202.31	66.23
202.777	66.42
203.243	66.47
203.709	65.87
204.176	65.27
204.642	65.06
205.108	64.64
205.574	64.22
206.04	63.94
206.506	63.23
206.972	62.79
207.438	62.1
207.903	61.07
208.369	59.6
208.835	58.35
209.301	57.1
209.766	55.29
210.232	53.71
210.697	52.06
211.163	50.55
211.628	49.46
212.094	48.05
212.559	46.81
213.024	45.49
213.49	44.63
213.955	43.61
214.42	42.56
214.885	41.29
215.35	39.7
215.815	37.56
216.28	35.08
216.745	32.08
217.21	29.23
217.675	26.58
218.14	24.34
218.604	22.29
219.069	20.59
219.534	19.08
219.998	17.99
220.463	17.01
220.927	16.12
221.392	15.44
221.856	14.88
222.32	14.43
222.785	14.01
223.249	13.62
223.713	13.29
224.177	13
224.642	12.75
225.106	12.44
225.57	12.19
226.034	11.99
226.497	11.76
226.961	11.56
227.425	11.34
227.889	11.16
228.353	10.98
228.816	10.8
229.28	10.62
229.744	10.46
230.207	10.32
230.671	10.15
231.134	10.01
231.597	9.88
232.061	9.75
232.524	9.63
232.987	9.49
233.45	9.39
233.914	9.27
234.377	9.16
234.84	9.07
235.303	8.98
235.766	8.9
236.229	8.81
236.691	8.71
237.154	8.63
237.617	8.55
238.08	8.47
238.542	8.38
239.005	8.32
239.468	8.24
239.93	8.16
240.393	8.1
240.855	8.02
241.317	7.96
241.78	7.89
242.242	7.82
242.704	7.75
243.166	7.68
243.629	7.62
244.091	7.55
244.553	7.48
245.015	7.41
245.477	7.33
245.939	7.26
246.4	7.19
246.862	7.14
247.324	7.07
247.786	7.01
248.247	6.95
248.709	6.89
249.17	6.83
249.632	6.8
250.093	6.74
250.555	6.69
251.016	6.63
251.477	6.57
251.939	6.52
252.4	6.47
252.861	6.41
253.322	6.38
253.783	6.33
254.244	6.29
254.705	6.23
255.166	6.19
255.627	6.15
256.088	6.11
256.549	6.08
257.009	6.04
257.47	5.99
257.931	5.95
258.391	5.9
258.852	5.86
259.312	5.82
259.773	5.78
260.233	5.73
260.694	5.69
261.154	5.64
261.614	5.6
262.074	5.56
262.534	5.52
262.994	5.49
263.455	5.45
263.915	5.42
264.374	5.39
264.834	5.36
265.294	5.33
265.754	5.31
266.214	5.29
266.673	5.27
267.133	5.25
267.593	5.23
268.052	5.21
268.512	5.2
268.971	5.18
269.431	5.16
269.89	5.15
270.349	5.13
270.809	5.12
271.268	5.1
271.727	5.08
272.186	5.07
272.645	5.06
273.104	5.04
273.563	5.02
274.022	5.01
274.481	5
274.94	4.99
275.399	4.97
275.857	4.95
276.316	4.94
276.775	4.93
277.233	4.92
277.692	4.91
278.15	4.9
278.609	4.9
279.067	4.88
279.525	4.87
279.984	4.86
280.442	4.85
280.9	4.85
281.358	4.85
281.816	4.84
282.274	4.83
282.732	4.81
283.19	4.8
283.648	4.79
284.106	4.78
284.564	4.77
285.021	4.77
285.479	4.76
285.937	4.75
286.394	4.73
286.852	4.73
287.309	4.71
287.767	4.7
288.224	4.69
288.682	4.67
289.139	4.65
289.596	4.63
290.053	4.61
290.511	4.59
290.968	4.57
291.425	4.55
291.882	4.53
292.339	4.51
292.796	4.49
293.252	4.48
293.709	4.46
294.166	4.45
294.623	4.44
295.079	4.43
295.536	4.42
295.992	4.41
296.449	4.4
296.905	4.39
297.362	4.38
297.818	4.37
298.274	4.37
298.731	4.36
299.187	4.34
299.643	4.33
300.099	4.32
300.555	4.31
301.011	4.3
301.467	4.29
301.923	4.27
302.379	4.27
302.835	4.27
303.291	4.26
303.746	4.25
304.202	4.25
304.658	4.24
305.113	4.23
305.569	4.23
306.024	4.23
306.479	4.22
306.935	4.22
307.39	4.22
307.845	4.21
308.301	4.21
308.756	4.21
309.211	4.22
309.666	4.22
310.121	4.22
310.576	4.22
311.031	4.22
311.486	4.22
311.94	4.22
312.395	4.22
312.85	4.23
313.305	4.23
313.759	4.23
314.214	4.23
314.668	4.22
315.123	4.22
315.577	4.22
316.032	4.22
316.486	4.21
316.94	4.21
317.394	4.2
317.849	4.19
318.303	4.17
318.757	4.15
319.211	4.15
319.665	4.13
320.119	4.12
320.572	4.1
321.026	4.1
321.48	4.09
321.934	4.08
322.387	4.08
322.841	4.07
323.295	4.07
323.748	4.07
324.202	4.06
324.655	4.06
325.108	4.07
325.562	4.07
326.015	4.07
326.468	4.07
326.921	4.07
327.374	4.06
327.827	4.06
328.28	4.06
328.733	4.07
329.186	4.07
329.639	4.07
330.092	4.08
330.545	4.08
330.997	4.07
331.45	4.08
331.903	4.08
332.355	4.1
332.808	4.1
333.26	4.11
333.713	4.11
334.165	4.11
334.617	4.12
335.069	4.12
335.522	4.13
335.974	4.14
336.426	4.14
336.878	4.13
337.33	4.12
337.782	4.13
338.234	4.12
338.686	4.12
339.137	4.12
339.589	4.11
340.041	4.12
340.493	4.1
340.944	4.08
341.396	4.08
341.847	4.08
342.299	4.06
342.75	4.04
343.201	4.03
343.653	4.02
344.104	4
344.555	3.98
345.006	3.97
345.457	3.95
345.908	3.94
346.359	3.94
346.81	3.93
347.261	3.93
347.712	3.94
348.163	3.93
348.613	3.93
349.064	3.93
349.515	3.94
349.965	3.94
350.416	3.93
350.866	3.93
351.317	3.94
351.767	3.94
352.217	3.94
352.668	3.93
353.118	3.95
353.568	3.94
354.018	3.94
354.468	3.94
354.918	3.95
355.368	3.95
355.818	3.95
356.268	3.95
356.718	3.95
357.168	3.95
357.617	3.94
358.067	3.94
358.517	3.96
358.966	3.96
359.416	3.96
359.865	3.96
360.315	3.97
360.764	3.97
361.213	3.97
361.663	3.96
362.112	3.98
362.561	3.98
363.01	3.98
363.459	3.96
363.908	3.96
364.357	3.97
364.806	3.96
365.255	3.96
365.703	3.97
366.152	3.98
366.601	3.99
367.05	3.99
367.498	3.98
367.947	3.99
368.395	4
368.844	3.99
369.292	4
369.74	4
370.189	4.01
370.637	4
371.085	3.98
371.533	3.98
371.981	3.98
372.429	3.99
372.877	4
373.325	3.99
373.773	4
374.221	4
374.669	4
375.116	4
375.564	3.99
376.012	4.01
376.459	4.01
376.907	4.02
377.354	4.02
377.801	4.03
378.249	4.04
378.696	4.04
379.143	4.04
379.591	4.04
380.038	4.06
380.485	4.07
380.932	4.08
381.379	4.1
381.826	4.1
382.273	4.11
382.72	4.11
383.166	4.12
383.613	4.13
384.06	4.14
384.506	4.15
384.953	4.16
385.4	4.17
385.846	4.19
386.292	4.19
386.739	4.2
387.185	4.22
387.631	4.24
388.078	4.26
388.524	4.27
388.97	4.29
389.416	4.32
389.862	4.34
390.308	4.37
390.754	4.39
391.2	4.41
391.645	4.44
392.091	4.48
392.537	4.5
392.983	4.52
393.428	4.55
393.874	4.59
394.319	4.6
394.765	4.62
395.21	4.63
395.655	4.65
396.101	4.68
396.546	4.71
396.991	4.73
397.436	4.76
397.881	4.8
398.326	4.83
398.771	4.86
399.216	4.9
399.661	4.95
400.106	5
400.551	5.03
400.995	5.06
401.44	5.08
401.885	5.1
402.329	5.12
402.774	5.14
403.218	5.18
403.663	5.21
404.107	5.24
404.551	5.26
404.995	5.28
405.44	5.3
405.884	5.33
406.328	5.36
406.772	5.39
407.216	5.42
407.66	5.45
408.104	5.45
408.547	5.47
408.991	5.49
409.435	5.51
409.879	5.54
410.322	5.57
410.766	5.6
411.209	5.63
411.653	5.66
412.096	5.68
412.54	5.7
412.983	5.73
413.426	5.78
413.869	5.82
414.312	5.86
414.756	5.89
415.199	5.92
415.642	5.94
416.085	5.96
416.527	5.98
416.97	6
417.413	6.02
417.856	6.02
418.298	6
418.741	6.01
419.184	6.01
419.626	6.01
420.069	6.03
420.511	6.04
420.953	6.04
421.396	6.06
421.838	6.08
422.28	6.1
422.722	6.13
423.164	6.16
423.606	6.16
424.048	6.18
424.49	6.2
424.932	6.21
425.374	6.2
425.816	6.18
426.258	6.16
426.699	6.14
427.141	6.14
427.582	6.13
428.024	6.14
428.465	6.16
428.907	6.15
429.348	6.15
429.789	6.16
430.231	6.18
430.672	6.21
431.113	6.25
431.554	6.29
431.995	6.32
432.436	6.34
432.877	6.34
433.318	6.37
433.759	6.4
434.2	6.41
434.64	6.45
435.081	6.46
435.522	6.48
435.962	6.49
436.403	6.52
436.843	6.53
437.284	6.53
437.724	6.56
438.164	6.55
438.604	6.57
439.045	6.57
439.485	6.57
439.925	6.58
440.365	6.6
440.805	6.61
441.245	6.62
441.685	6.65
442.125	6.7
442.564	6.71
443.004	6.73
443.444	6.74
443.883	6.78
444.323	6.8
444.762	6.83
445.202	6.87
445.641	6.89
446.081	6.92
446.52	6.92
446.959	6.95
447.398	6.98
447.837	7.01
448.276	7.03
448.716	7.03
449.154	7.07
449.593	7.09
450.032	7.09
450.471	7.09
450.91	7.1
451.349	7.12
451.787	7.11
452.226	7.1
452.664	7.1
453.103	7.09
453.541	7.1
453.98	7.1
454.418	7.07
454.856	7.07
455.295	7.06
455.733	7.02
456.171	7.01
456.609	6.99
457.047	6.97
457.485	6.95
457.923	6.95
458.361	6.93
458.798	6.92
459.236	6.93
459.674	6.92
460.111	6.9
460.549	6.91
460.987	6.91
461.424	6.92
461.862	6.93
462.299	6.93
462.736	6.91
463.173	6.91
463.611	6.9
464.048	6.89
464.485	6.9
464.922	6.9
465.359	6.92
465.796	6.92
466.233	6.93
466.67	6.93
467.106	6.95
467.543	6.95
467.98	6.97
468.416	6.96
468.853	6.98
469.29	6.98
469.726	6.99
470.162	6.99
470.599	7
471.035	7
471.471	7
471.907	7
472.344	7.01
472.78	7.01
473.216	7.02
473.652	7.04
474.088	7.03
474.523	7.04
474.959	7.03
475.395	7.02
475.831	7.01
476.266	7.02
476.702	7.01
477.138	7
477.573	7.03
478.008	7.02
478.444	7.01
478.879	7.01
479.314	7.01
479.75	7.01
480.185	7
480.62	7
481.055	7
481.49	6.99
481.925	7
482.36	6.98
482.795	6.97
483.229	6.97
483.664	6.97
484.099	6.96
484.534	6.95
484.968	6.96
485.403	6.97
485.837	6.98
486.271	7
486.706	7
487.14	7.02
487.574	7.04
488.009	7.06
488.443	7.07
488.877	7.1
489.311	7.12
489.745	7.14
490.179	7.17
490.613	7.2
491.046	7.22
491.48	7.26
491.914	7.29
492.348	7.33
492.781	7.38
493.215	7.43
493.648	7.48
494.082	7.52
494.515	7.57
494.948	7.62
495.382	7.67
495.815	7.73
496.248	7.8
496.681	7.86
497.114	7.92
497.547	7.98
497.98	8.06
498.413	8.13
498.846	8.22
499.279	8.3
499.711	8.38
500.144	8.48
500.577	8.56
501.009	8.65
501.442	8.75
501.874	8.85
502.306	8.95
502.739	9.07
503.171	9.18
503.603	9.29
504.036	9.41
504.468	9.54
504.9	9.67
505.332	9.82
505.764	9.96
506.196	10.11
506.627	10.26
507.059	10.41
507.491	10.57
507.923	10.74
508.354	10.91
508.786	11.08
509.217	11.25
509.649	11.44
510.08	11.61
510.512	11.8
510.943	11.97
511.374	12.15
511.805	12.34
512.237	12.53
512.668	12.73
513.099	12.93
513.53	13.13
513.961	13.35
514.391	13.55
514.822	13.77
515.253	13.97
515.684	14.19
516.114	14.4
516.545	14.63
516.975	14.85
517.406	15.07
517.836	15.27
518.267	15.5
518.697	15.69
519.127	15.87
519.558	16.06
519.988	16.27
520.418	16.46
520.848	16.67
521.278	16.86
521.708	17.15
522.138	17.33
522.567	17.51
522.997	17.67
523.427	17.87
523.857	18.05
524.286	18.22
524.716	18.38
525.145	18.55
525.575	18.7
526.004	18.84
526.433	18.87
526.863	19.02
527.292	19.16
527.721	19.29
528.15	19.39
528.579	19.51
529.008	19.63
529.437	19.74
529.866	19.84
530.295	19.95
530.724	20.04
531.152	20.14
531.581	20.24
532.01	20.32
532.438	20.4
532.867	20.49
533.295	20.58
533.723	20.64
534.152	20.69
534.58	20.76
535.008	20.79
535.436	20.85
535.865	20.9
536.293	20.93
536.721	20.96
537.149	21
537.576	21.03
538.004	21.07
538.432	21.09
538.86	21.13
539.287	21.15
539.715	21.19
540.143	21.2
540.57	21.23
540.998	21.24
541.425	21.27
541.852	21.28
542.28	21.3
542.707	21.32
543.134	21.34
543.561	21.38
543.988	21.4
544.415	21.42
544.842	21.44
545.269	21.48
545.696	21.52
546.123	21.53
546.549	21.56
546.976	21.6
547.403	21.63
547.829	21.66
548.256	21.68
548.682	21.7
549.108	21.73
549.535	21.77
549.961	21.77
550.387	21.8
550.813	21.81
551.24	21.82
551.666	21.83
552.092	21.83
552.518	21.83
552.943	21.84
553.369	21.85
553.795	21.82
554.221	21.83
554.646	21.8
555.072	21.79
555.498	21.77
555.923	21.75
556.349	21.71
556.774	21.68
557.199	21.65
557.625	21.61
558.05	21.57
558.475	21.54
558.9	21.49
559.325	21.47
559.75	21.42
560.175	21.37
560.6	21.31
561.025	21.26
561.449	21.18
561.874	21.11
562.299	21.03
562.723	20.96
563.148	20.86
563.572	20.78
563.997	20.68
564.421	20.57
564.846	20.49
565.27	20.39
565.694	20.29
566.118	20.18
566.542	20.07
566.966	19.97
567.39	19.86
567.814	19.76
568.238	19.65
568.662	19.52
569.086	19.42
569.509	19.3
569.933	19.19
570.357	19.08
570.78	18.97
571.204	18.87
571.627	18.77
572.05	18.67
572.474	18.57
572.897	18.49
573.32	18.42
573.743	18.33
574.166	18.25
574.589	18.18
575.012	18.1
575.435	18.04
575.858	17.97
576.281	17.89
576.704	17.82
577.126	17.77
577.549	17.69
577.972	17.62
578.394	17.55
578.817	17.5
579.239	17.45
579.661	17.38
580.084	17.32
580.506	17.26
580.928	17.21
581.35	17.17
581.772	17.1
582.194	17.07
582.616	17.02
583.038	16.98
583.46	16.94
583.882	16.89
584.303	16.85
584.725	16.81
585.147	16.78
585.568	16.74
585.99	16.68
586.411	16.65
586.833	16.6
587.254	16.55
587.675	16.51
588.096	16.46
588.518	16.42
588.939	16.38
589.36	16.34
589.781	16.3
590.202	16.27
590.623	16.25
591.043	16.2
591.464	16.18
591.885	16.15
592.305	16.13
592.726	16.12
593.147	16.1
593.567	16.08
593.987	16.06
594.408	16.03
594.828	16
595.248	15.98
595.669	15.97
596.089	15.95
596.509	15.92
596.929	15.9
597.349	15.86
597.769	15.84
598.189	15.8
598.608	15.77
599.028	15.75
599.448	15.72
599.867	15.68
600.287	15.65
600.706	15.6
601.126	15.56
601.545	15.52
601.965	15.48
602.384	15.44
602.803	15.41
603.222	15.37
603.641	15.33
604.061	15.29
604.48	15.23
604.898	15.18
605.317	15.14
605.736	15.1
606.155	15.05
606.574	14.99
606.992	14.93
607.411	14.88
607.829	14.79
608.248	14.72
608.666	14.66
609.085	14.62
609.503	14.55
609.921	14.5
610.339	14.45
610.758	14.39
611.176	14.31
611.594	14.26
612.012	14.21
612.43	14.19
612.847	14.14
613.265	14.08
613.683	14.02
614.101	13.96
614.518	13.91
614.936	13.85
615.353	13.79
615.771	13.77
616.188	13.72
616.606	13.67
617.023	13.63
617.44	13.58
617.857	13.55
618.274	13.52
618.691	13.48
619.108	13.45
619.525	13.42
619.942	13.39
620.359	13.35
620.776	13.32
621.192	13.29
621.609	13.25
622.026	13.23
622.442	13.2
622.859	13.17
623.275	13.15
623.691	13.14
624.108	13.12
624.524	13.12
624.94	13.11
625.356	13.09
625.772	13.08
626.188	13.08
626.604	13.08
627.02	13.07
627.436	13.05
627.852	13.05
628.268	13.04
628.683	13.02
629.099	13
629.514	13
629.93	12.99
630.345	12.96
630.761	12.93
631.176	12.9
631.591	12.87
632.007	12.84
632.422	12.81
632.837	12.78
633.252	12.72
633.667	12.68
634.082	12.62
634.497	12.57
634.911	12.52
635.326	12.46
635.741	12.4
636.155	12.32
636.57	12.26
636.984	12.18
637.399	12.09
637.813	12.02
638.228	11.93
638.642	11.83
639.056	11.73
639.47	11.65
639.884	11.56
640.298	11.47
640.712	11.38
641.126	11.28
641.54	11.18
641.954	11.08
642.368	10.99
642.781	10.91
643.195	10.82
643.609	10.73
644.022	10.64
644.436	10.56
644.849	10.48
645.262	10.4
645.676	10.32
646.089	10.25
646.502	10.19
646.915	10.14
647.328	10.09
647.741	10.03
648.154	9.99
648.567	9.94
648.98	9.89
649.393	9.85
649.805	9.82
650.218	9.79
650.631	9.76
651.043	9.71
651.456	9.67
651.868	9.62
652.28	9.58
652.693	9.55
653.105	9.51
653.517	9.46
653.929	9.43
654.341	9.38
654.753	9.32
655.165	9.26
655.577	9.21
655.989	9.15
656.401	9.09
656.813	9.04
657.224	8.97
657.636	8.9
658.047	8.83
658.459	8.75
658.87	8.68
659.282	8.6
659.693	8.54
660.104	8.46
660.515	8.4
660.926	8.32
661.338	8.24
661.749	8.17
662.159	8.1
662.57	8.05
662.981	7.98
663.392	7.92
663.803	7.87
664.213	7.81
664.624	7.76
665.035	7.71
665.445	7.66
665.855	7.63
666.266	7.59
666.676	7.56
667.086	7.5
667.497	7.48
667.907	7.45
668.317	7.42
668.727	7.41
669.137	7.39
669.547	7.38
669.956	7.36
670.366	7.35
670.776	7.35
671.186	7.35
671.595	7.35
672.005	7.35
672.414	7.37
672.824	7.38
673.233	7.39
673.642	7.4
674.052	7.41
674.461	7.42
674.87	7.42
675.279	7.44
675.688	7.46
676.097	7.49
676.506	7.51
676.915	7.54
677.323	7.57
677.732	7.59
678.141	7.63
678.549	7.67
678.958	7.72
679.366	7.79
679.775	7.84
680.183	7.9
680.592	7.97
681	8.05
681.408	8.13
681.816	8.22
682.224	8.33
682.632	8.45
683.04	8.57
683.448	8.71
683.856	8.86
684.264	9.02
684.671	9.21
685.079	9.4
685.487	9.62
685.894	9.84
686.302	10.09
686.709	10.34
687.116	10.62
687.524	10.92
687.931	11.23
688.338	11.55
688.745	11.9
689.152	12.24
689.559	12.61
689.966	12.98
690.373	13.36
690.78	13.76
691.187	14.16
691.593	14.55
692	14.95
692.407	15.35
692.813	15.77
693.22	16.18
693.626	16.59
694.032	17.01
694.439	17.42
694.845	17.85
695.251	18.25
695.657	18.64
696.063	19.05
696.469	19.45
696.875	19.85
697.281	20.24
697.687	20.62
698.093	20.99
698.498	21.34
698.904	21.71
699.31	22.06
699.715	22.41
700.12	22.76
700.526	23.1
700.931	23.42
701.337	23.73
701.742	24.04
702.147	24.34
702.552	24.63
702.957	24.93
703.362	25.21
703.767	25.46
704.172	25.72
704.577	25.97
704.981	26.21
705.386	26.46
705.791	26.69
706.195	26.92
706.6	27.15
707.004	27.4
707.408	27.62
707.813	27.85
708.217	28.08
708.621	28.3
709.025	28.51
709.43	28.73
709.834	28.94
710.237	29.14
710.641	29.34
711.045	29.55
711.449	29.74
711.853	29.93
712.256	30.1
712.66	30.27
713.064	30.43
713.467	30.62
713.87	30.78
714.274	30.93
714.677	31.11
715.08	31.26
715.484	31.39
715.887	31.54
716.29	31.67
716.693	31.82
717.096	31.98
717.499	32.13
717.901	32.26
718.304	32.41
718.707	32.55
719.109	32.67
719.512	32.8
719.915	32.94
720.317	33.03
720.719	33.15
721.122	33.25
721.524	33.32
721.926	33.41
722.328	33.53
722.731	33.62
723.133	33.73
723.535	33.82
723.937	33.91
724.338	34
724.74	34.1
725.142	34.23
725.544	34.3
725.945	34.4
726.347	34.46
726.748	34.53
727.15	34.58
727.551	34.65
727.952	34.71
728.354	34.77
728.755	34.8
729.156	34.85
729.557	34.85
729.958	34.92
730.359	34.97
730.76	35.03
731.161	35.06
731.562	35.13
731.962	35.15
732.363	35.2
732.763	35.24
733.164	35.29
733.564	35.35
733.965	35.37
734.365	35.4
734.766	35.42
735.166	35.47
735.566	35.52
735.966	35.55
736.366	35.58
736.766	35.58
737.166	35.62
737.566	35.67
737.966	35.65
738.365	35.69
738.765	35.71
739.165	35.73
739.564	35.76
739.964	35.76
740.363	35.76
740.763	35.78
741.162	35.8
741.561	35.8
741.96	35.78
742.36	35.8
742.759	35.83
743.158	35.83
743.557	35.83
743.955	35.85
744.354	35.85
744.753	35.89
745.152	35.94
745.55	35.96
745.949	35.97
746.348	36.02
746.746	36.04
747.144	36.07
747.543	36.1
747.941	36.12
748.339	36.11
748.737	36.12
749.136	36.13
749.534	36.11
749.932	36.12
750.33	36.12
750.727	36.13
751.125	36.15
751.523	36.13
751.921	36.12
752.318	36.13
752.716	36.14
753.113	36.13
753.511	36.12
753.908	36.13
754.305	36.13
754.703	36.13
755.1	36.11
755.497	36.09
755.894	36.08
756.291	36.07
756.688	36.05
757.085	36.04
757.482	36.02
757.878	36.01
758.275	35.98
758.672	35.96
759.068	35.96
759.465	35.96
759.861	35.96
760.258	35.97
760.654	35.98
761.05	36.01
761.447	35.99
761.843	35.99
762.239	35.99
762.635	36
763.031	36.01
763.427	36
763.822	36.02
764.218	36.03
764.614	36.05
765.01	36.04
765.405	36.04
765.801	36.03
766.196	36.05
766.592	36.07
766.987	36.06
767.382	36.05
767.778	36.05
768.173	36.06
768.568	36.03
768.963	36.01
769.358	36.02
769.753	36.01
770.148	36.02
770.542	36.02
770.937	36.03
771.332	36.03
771.726	36.03
772.121	36.02
772.515	36.02
772.91	36.03
773.304	36.06
773.699	36.07
774.093	36.07
774.487	36.07
774.881	36.08
775.275	36.06
775.669	36.04
776.063	36.03
776.457	36.04
776.851	36.01
777.245	35.99
777.638	35.98
778.032	35.96
778.425	35.99
778.819	35.98
779.212	35.98
779.606	35.99
779.999	36
780.392	36.05
780.786	36.05
781.179	36.07
781.572	36.12
781.965	36.11
782.358	36.13
782.751	36.12
783.143	36.12
783.536	36.14
783.929	36.13
784.322	36.16
784.714	36.16
785.107	36.16
785.499	36.17
785.891	36.16
786.284	36.16
786.676	36.15
787.068	36.15
787.46	36.17
787.852	36.17
788.245	36.18
788.636	36.18
789.028	36.19
789.42	36.19
789.812	36.2
790.204	36.19
790.595	36.2
790.987	36.18
791.378	36.19
791.77	36.17
792.161	36.17
792.553	36.2
792.944	36.2
793.335	36.2
793.726	36.2
794.117	36.18
794.508	36.18
794.899	36.17
795.29	36.2
795.681	36.19
796.072	36.22
796.463	36.24
796.853	36.23
797.244	36.25
797.634	36.28
798.025	36.3
798.415	36.32
798.806	36.31
799.196	36.3
799.586	36.32
799.976	36.34
800.366	36.32
800.756	36.32
801.146	36.34
801.536	36.35
801.926	36.33
802.316	36.33
802.706	36.35
803.095	36.38
803.485	36.41
803.874	36.4
804.264	36.43
804.653	36.46
805.043	36.45
805.432	36.42
805.821	36.43
806.21	36.42
806.599	36.41
806.988	36.39
807.377	36.38
807.766	36.38
808.155	36.39
808.544	36.36
808.933	36.35
809.321	36.36
809.71	36.38
810.098	36.37
810.487	36.38
810.875	36.4
811.264	36.44
811.652	36.49
812.04	36.51
812.428	36.54
812.816	36.57
813.204	36.59
813.592	36.58
813.98	36.6
814.368	36.62
814.756	36.62
815.144	36.62
815.531	36.59
815.919	36.55
816.306	36.55
816.694	36.5
817.081	36.51
817.469	36.52
817.856	36.52
818.243	36.49
818.63	36.49
819.017	36.47
819.404	36.46
819.791	36.45
820.178	36.46
820.565	36.44
820.952	36.45
821.339	36.43
821.725	36.41
822.112	36.41
822.498	36.43
822.885	36.44
823.271	36.45
823.657	36.44
824.044	36.45
824.43	36.43
824.816	36.44
825.202	36.44
825.588	36.43
825.974	36.42
826.36	36.4
826.746	36.38
827.132	36.36
827.517	36.37
827.903	36.36
828.289	36.36
828.674	36.35
829.06	36.35
829.445	36.32
829.83	36.32
830.216	36.3
830.601	36.29
830.986	36.29
831.371	36.25
831.756	36.21
832.141	36.2
832.526	36.18
832.911	36.16
833.295	36.16
833.68	36.16
834.065	36.12
834.449	36.11
834.834	36.1
835.218	36.07
835.603	36.06
835.987	36.05
836.371	36.01
836.755	35.98
837.139	35.98
837.524	35.95
837.908	35.94
838.291	35.96
838.675	35.93
839.059	35.9
839.443	35.89
839.827	35.89
840.21	35.88
840.594	35.89
840.977	35.9
841.361	35.87
841.744	35.85
842.127	35.83
842.511	35.8
842.894	35.8
843.277	35.79
843.66	35.78
844.043	35.78
844.426	35.78
844.809	35.77
845.191	35.75
845.574	35.76
845.957	35.78
846.339	35.8
846.722	35.81
847.104	35.82
847.487	35.82
847.869	35.81
848.252	35.82
848.634	35.83
849.016	35.83
849.398	35.84
849.78	35.85
850.162	35.8
850.544	35.77
850.926	35.78
851.307	35.76
851.689	35.77
852.071	35.79
852.452	35.78
852.834	35.8
853.215	35.77
853.597	35.77
853.978	35.76
854.359	35.78
854.741	35.79
855.122	35.78
855.503	35.78
855.884	35.78
856.265	35.77
856.646	35.77
857.026	35.75
857.407	35.77
857.788	35.77
858.169	35.79
858.549	35.77
858.93	35.77
859.31	35.77
859.69	35.78
860.071	35.8
860.451	35.8
860.831	35.8
861.211	35.79
861.591	35.8
861.971	35.81
862.351	35.8
862.731	35.81
863.111	35.8
863.491	35.81
863.87	35.8
864.25	35.77
864.629	35.77
865.009	35.77
865.388	35.77
865.768	35.78
866.147	35.78
866.526	35.79
866.905	35.79
867.284	35.81
867.663	35.81
868.042	35.83
868.421	35.85
868.8	35.86
869.179	35.85
869.558	35.85
869.936	35.82
870.315	35.82
870.693	35.82
871.072	35.85
871.45	35.84
871.828	35.85
872.207	35.86
872.585	35.84
872.963	35.84
873.341	35.84
873.719	35.85
874.097	35.86
874.475	35.87
874.853	35.87
875.23	35.84
875.608	35.85
875.986	35.87
876.363	35.85
876.741	35.88
877.118	35.89
877.495	35.88
877.873	35.87
878.25	35.89
878.627	35.89
879.004	35.87
879.381	35.88
879.758	35.87
880.135	35.84
880.512	35.84
880.889	35.83
881.265	35.81
881.642	35.81
882.019	35.8
882.395	35.78
882.772	35.76
883.148	35.75
883.524	35.74
883.901	35.75
884.277	35.75
884.653	35.71
885.029	35.69
885.405	35.68
885.781	35.69
886.157	35.69
886.532	35.7
886.908	35.68
887.284	35.67
887.659	35.65
888.035	35.63
888.411	35.6
888.786	35.62
889.161	35.62
889.537	35.62
889.912	35.62
890.287	35.61
890.662	35.58
891.037	35.61
891.412	35.58
891.787	35.57
892.162	35.55
892.536	35.55
892.911	35.52
893.286	35.51
893.66	35.49
894.035	35.47
894.409	35.45
894.784	35.45
895.158	35.43
895.532	35.43
895.906	35.43
896.281	35.44
896.655	35.45
897.029	35.47
897.402	35.47
897.776	35.48
898.15	35.5
898.524	35.51
898.898	35.52
899.271	35.55
899.645	35.57
900.018	35.6
900.392	35.61
900.765	35.61
901.138	35.6
901.511	35.62
901.884	35.62
902.258	35.63
902.631	35.64
903.003	35.65
903.376	35.66
903.749	35.67
904.122	35.66
904.495	35.7
904.867	35.72
905.24	35.75
905.612	35.77
905.985	35.78
906.357	35.79
906.729	35.8
907.102	35.79
907.474	35.8
907.846	35.79
908.218	35.79
908.59	35.79
908.962	35.78
909.334	35.77
909.705	35.76
910.077	35.75
910.449	35.76
910.82	35.75
911.192	35.76
911.563	35.76
911.935	35.76
912.306	35.78
912.677	35.83
913.048	35.83
913.419	35.83
913.79	35.85
914.161	35.87
914.532	35.87
914.903	35.88
915.274	35.91
915.645	35.91
916.015	35.94
916.386	35.93
916.756	35.9
917.127	35.92
917.497	35.92
917.868	35.93
918.238	35.95
918.608	35.99
918.978	36
919.348	35.98
919.718	35.97
920.088	35.97
920.458	35.99
920.828	35.99
921.198	35.97
921.567	35.97
921.937	35.99
922.306	35.97
922.676	35.94
923.045	35.94
923.415	35.95
923.784	35.96
924.153	35.99
924.522	36.01
924.891	36.02
925.26	36.04
925.629	36.07
925.998	36.07
926.367	36.1
926.736	36.09
927.104	36.11
927.473	36.09
927.842	36.09
928.21	36.08
928.578	36.05
928.947	36.07
929.315	36.09
929.683	36.06
930.051	36.05
930.42	36.05
930.788	36.04
931.156	36.02
931.523	36.02
931.891	36.04
932.259	36.04
932.627	36.06
932.994	36.03
933.362	36
933.729	36.04
934.097	36.06
934.464	36.06
934.831	36.09
935.199	36.11
935.566	36.14
935.933	36.18
936.3	36.17
936.667	36.18
937.034	36.23
937.401	36.29
937.767	36.27
938.134	36.25
938.501	36.28
938.867	36.32
939.234	36.33
939.6	36.38
939.967	36.39
940.333	36.42
940.699	36.48
941.065	36.46
941.431	36.49
941.798	36.51
942.163	36.56
942.529	36.58
942.895	36.57
943.261	36.61
943.627	36.61
943.992	36.55
944.358	36.55
944.723	36.53
945.089	36.51
945.454	36.5
945.82	36.5
946.185	36.49
946.55	36.46
946.915	36.5
947.28	36.49
947.645	36.49
948.01	36.54
948.375	36.56
948.74	36.51
949.104	36.5
949.469	36.47
949.834	36.46
950.198	36.45
950.562	36.41
950.927	36.34
951.291	36.28
951.655	36.2
952.02	36.12
952.384	36.05
952.748	36.03
953.112	36
953.476	35.92
953.839	35.85
954.203	35.84
954.567	35.82
954.931	35.77
955.294	35.77
955.658	35.84
956.021	35.8
956.385	35.79
956.748	35.77
957.111	35.76
957.474	35.81
957.837	35.81
958.2	35.8
958.563	35.75
958.926	35.77
959.289	35.76
959.652	35.69
960.015	35.74
960.377	35.74
960.74	35.79
961.102	35.79
961.465	35.82
961.827	35.84
962.189	35.85
962.552	35.89
962.914	35.88
963.276	35.91
963.638	35.92
964	35.86
964.362	35.81
964.724	35.76
965.085	35.74
965.447	35.72
965.809	35.69
966.17	35.65
966.532	35.64
966.893	35.66
967.255	35.61
967.616	35.65
967.977	35.69
968.338	35.73
968.699	35.71
969.061	35.74
969.421	35.73
969.782	35.77
970.143	35.8
970.504	35.82
970.865	35.82
971.225	35.82
971.586	35.81
971.946	35.84
972.307	35.85
972.667	35.84
973.027	35.87
973.388	35.9
973.748	35.91
974.108	35.96
974.468	35.93
974.828	35.99
975.188	36.01
975.548	36.03
975.907	36.06
976.267	36.09
976.627	36.15
976.986	36.15
977.346	36.09
977.705	36.09
978.064	36.08
978.424	36.15
978.783	36.12
979.142	36.14
979.501	36.13
979.86	36.18
980.219	36.19
980.578	36.24
980.937	36.22
981.296	36.27
981.654	36.29
982.013	36.33
982.371	36.33
982.73	36.32
983.088	36.32
983.447	36.29
983.805	36.24
984.163	36.27
984.521	36.24
984.879	36.24
985.237	36.3
985.595	36.34
985.953	36.28
986.311	36.32
986.669	36.39
987.026	36.43
987.384	36.56
987.741	36.55
988.099	36.51
988.456	36.56
988.814	36.65
989.171	36.59
989.528	36.6
989.885	36.64
990.242	36.62
990.599	36.63
990.956	36.62
991.313	36.58
991.67	36.63
992.027	36.79
992.383	36.82
992.74	36.97
993.096	37.03
993.453	37.04
993.809	37.11
994.165	37.13
994.522	37.16
994.878	37.18
995.234	37.23
995.59	37.28
995.946	37.18
996.302	37.17
996.658	37.08
997.013	37.14
997.369	37.24
997.725	37.31
998.08	37.45
998.436	37.49
998.791	37.62
999.147	37.66
999.502	37.75
999.857	37.83
1000.212	37.85
1000.567	37.89
1000.922	37.96
1001.277	37.89
1001.632	37.78
1001.987	37.84
1002.342	37.88
1002.696	37.89
1003.051	38.05
1003.406	38.05
1003.76	38.07
1004.114	38.11
1004.469	38.21
1004.823	38.52
1005.177	38.59
1005.531	38.69
1005.885	38.65
1006.239	38.71
1006.593	38.82
1006.947	38.75
1007.301	38.7
1007.655	38.8
1008.008	38.93
1008.362	38.98
1008.715	38.75
1009.069	38.9
1009.422	39.06
1009.776	39.06
1010.129	39.16
1010.482	39.24
1010.835	39.31
1011.188	39.46
1011.541	39.49
1011.894	39.61
1012.247	39.68
1012.6	39.82
1012.952	39.76
1013.305	39.83
1013.657	40.01
1014.01	40.14
1014.362	40.08
1014.715	40.3
1015.067	40.43
1015.419	40.58
1015.771	40.6
1016.123	40.56
1016.475	40.66
1016.827	40.84
1017.179	41.04
1017.531	41.24
1017.883	41.1
1018.234	41.26
1018.586	41.31
1018.938	41.37
1019.289	41.38
1019.64	41.53
1019.992	41.65
1020.343	41.54
1020.694	41.62
1021.045	41.69
1021.396	41.55
1021.747	41.86
1022.098	41.81
1022.449	41.86
1022.8	42.14
1023.151	42.33
1023.501	42.6
1023.852	42.88
1024.202	42.93
1024.553	42.76
1024.903	42.8
1025.253	43.1
1025.604	43.2
1025.954	43.14
1026.304	43.24
1026.654	43.22
1027.004	43.34
1027.354	43.16
1027.703	43.22
1028.053	43.45
1028.403	44.09
1028.753	44.08
1029.102	44.28
1029.452	44.41
1029.801	44.94
1030.15	44.99
1030.499	44.99
897.758	1065.97
901.051	1070
904.343	1067.77
907.636	1085.71
910.928	1054.81
914.22	1052.54
917.511	1038.82
920.803	992.73
924.094	991.81
927.384	964.85
930.675	931.85
933.965	925.49
937.255	867.96
940.544	834.25
943.834	792.97
947.123	787.42
950.411	741.87
953.7	726.13
956.988	688.42
960.276	660.78
963.563	650.02
966.851	623.74
970.138	618.62
973.424	601.69
976.711	603.2
979.997	574.31
983.283	568.99
986.568	557.15
989.853	541.25
993.138	529.8
996.423	510.27
999.708	496.87
1002.992	489.46
1006.275	468.26
1009.559	464.19
1012.842	447.11
1016.125	435.05
1019.408	427.38
1022.69	423.92
1025.972	413.47
1029.254	403.54
1032.536	394.58
1035.817	388.42
1039.098	383.54
1042.379	375.94
1045.659	370.88
1048.939	362.75
1052.219	355.18
1055.498	349.86
1058.778	340.28
1062.057	333.87
1065.335	330.96
1068.614	326.59
1071.892	322.2
1075.17	312.67
1078.447	306.54
1081.724	304.06
1085.001	301.74
1088.278	296.18
1091.554	290.41
1094.83	290.6
1098.106	288.39
1101.382	285.37
1104.657	284.09
1107.932	278.83
1111.206	280.66
1114.481	273.41
1117.755	271.94
1121.029	268.92
1124.302	268.41
1127.575	265.18
1130.848	261.61
1134.121	258.4
1137.393	257.02
1140.665	252.64
1143.937	250.42
1147.208	248.33
1150.48	248.05
1153.75	243.71
1157.021	240.37
1160.291	240.55
1163.561	236.36
1166.831	236.44
1170.101	234.9
1173.37	234.76
1176.639	234.07
1179.907	232.21
1183.176	229.37
1186.444	229.05
1189.711	229.12
1192.979	228.71
1196.246	227.07
1199.513	227.61
1202.78	226.63
1206.046	226.11
1209.312	224.1
1212.578	224.74
1215.843	226.86
1219.108	225.69
1222.373	229.81
1225.638	231.06
1228.902	234.27
1232.166	234.32
1235.43	236.39
1238.693	239.69
1241.956	241.71
1245.219	245.21
1248.482	245.46
1251.744	245.64
1255.006	246.23
1258.268	241.45
1261.529	239.62
1264.79	237.86
1268.051	236.63
1271.312	233.7
1274.572	230.18
1277.832	228.26
1281.092	223.96
1284.351	221.85
1287.61	221.89
1290.869	218.15
1294.128	216.25
1297.386	216.02
1300.644	214.32
1303.902	214.63
1307.159	214.54
1310.416	214.29
1313.673	213.08
1316.93	215.82
1320.186	215.12
1323.442	215.38
1326.697	219.66
1329.953	220.27
1333.208	221.49
1336.463	223.73
1339.717	223.96
1342.972	226.54
1346.226	229.16
1349.479	229.85
1352.733	230.59
1355.986	232.89
1359.238	232.5
1362.491	232.78
1365.743	235.41
1368.995	235.52
1372.247	235.03
1375.498	235.11
1378.749	236.31
1382	233.55
1385.251	234.62
1388.501	233.22
1391.751	233.61
1395	232.85
1398.25	231.91
1401.499	230.16
1404.748	229.8
1407.996	227.85
1411.244	227.34
1414.492	225.62
1417.74	223.41
1420.987	220.4
1424.234	220.2
1427.481	217.31
1430.728	217.27
1433.974	214.74
1437.22	213.58
1440.465	212.7
1443.711	210.5
1446.956	208.67
1450.201	206.82
1453.445	204.93
1456.689	204.34
1459.933	200.7
1463.177	199.08
1466.42	196.39
1469.663	194.25
1472.906	192.34
1476.148	187.49
1479.391	185.71
1482.633	184.56
1485.874	181.5
1489.115	180.53
1492.356	177.59
1495.597	176.96
1498.838	174.59
1502.078	173.12
1505.318	172.56
1508.557	172.25
1511.797	172.24
1515.036	170.12
1518.274	169.43
1521.513	168.53
1524.751	168
1527.989	167.45
1531.227	167.04
1534.464	166.71
1537.701	166.34
1540.938	165.56
1544.174	163.27
1547.41	163.18
1550.646	162.78
1553.882	162.79
1557.117	160.14
1560.352	159.04
1563.587	159.28
1566.821	158.11
1570.055	156.96
1573.289	155.38
1576.523	155.54
1579.756	154.77
1582.989	153.69
1586.222	153.36
1589.454	152.72
1592.686	154.33
1595.918	153.71
1599.15	152.66
1602.381	153.14
1605.612	152.81
1608.843	152.5
1612.073	152.73
1615.303	153.09
1618.533	153.08
1621.762	152.45
1624.992	152.99
1628.221	152.1
1631.449	151.65
1634.678	152.09
1637.906	152.43
1641.134	152.15
1644.361	152.39
1647.588	152.43
1650.815	152.26
1654.042	152.14
1657.269	153.42
1660.495	152.83
1663.72	152.57
1666.946	153.77
1670.171	153.95
1673.396	153.74
1676.621	153.74
1679.845	154.49
1683.069	154.4
1686.293	155.5
1689.517	155.91
1692.74	155.88
1695.963	156.03
1699.185	157.57
1702.408	157.79
1705.63	158.1
1708.852	158.79
1712.073	159.67
1715.294	159.58
1718.515	160.98
1721.736	160.42
1724.956	160.96
1728.176	161.01
1731.396	162.43
1734.616	161.66
1737.835	162.28
1741.054	161.47
1744.272	161.43
1747.491	163.13
1750.709	163.43
1753.927	162.57
1757.144	162.4
1760.361	162.74
1763.578	163.3
1766.795	162.87
1770.011	164.73
1773.227	164.37
1776.443	166.2
1779.658	167.18
1782.874	166.27
1786.089	166.73
1789.303	167.6
1792.518	169.84
1795.732	169.61
1798.945	170.96
1802.159	170.81
1805.372	170.53
1808.585	173.14
1811.797	173.32
1815.01	173.66
1818.222	175.14
1821.434	177.62
1824.645	177.52
1827.856	180.03
1831.067	181.47
1834.278	181.71
1837.488	183.65
1840.698	184.8
1843.908	183.52
1847.117	184.79
1850.326	185.99
1853.535	184.93
1856.744	186.44
1859.952	186.9
1863.16	185.72
1866.368	184.99
1869.575	186.67
1872.782	183.68
1875.989	184.24
1879.196	184.12
1882.402	182.72
1885.608	183.27
1888.814	184.12
1892.019	183.85
1895.224	183.36
1898.429	182.69
1901.634	183.9
1904.838	184.09
1908.042	186.24
1911.246	185.86
1914.449	186.34
1917.652	187.51
1920.855	186.97
1924.058	187.36
1927.26	186.6
1930.462	187.51
1933.664	189.13
1936.865	187.32
1940.066	186.32
1943.267	185.61
1946.467	186.73
1949.668	187.12
1952.868	188.81
1956.067	189.29
1959.267	189.25
1962.466	189.67
1965.665	189.02
1968.863	189.27
1972.061	193.03
1975.259	195.43
1978.457	195.9
1981.654	196.91
1984.852	198.07
1988.048	197.22
1991.245	199.28
1994.441	200.79
1997.637	203.29
2000.833	206.37
2004.028	209.66
2007.223	210.05
2010.418	211
2013.613	216.16
2016.807	218.02
2020.001	219.94
2023.194	224.17
2026.388	228.74
2029.581	234.13
2032.774	234.69
2035.966	239.41
2039.158	239.89
2042.35	243.82
2045.542	246.22
2048.733	249.78
2051.924	252.63
2055.115	257.3
2058.306	257.51
2061.496	259.66
2064.686	259.62
2067.875	264.74
2071.065	266.01
2074.254	264.44
2077.442	269.15
2080.631	269.9
2083.819	272.1
2087.007	273.25
2090.195	276.18
2093.382	278.51
2096.569	277
2099.756	282.17
2102.942	282.74
2106.128	284.31
2109.314	291.2
2112.5	288.93
2115.685	296.19
2118.87	297.14
2122.055	302.16
2125.239	303.59
2128.424	306.58
2131.608	309.46
2134.791	313.78
2137.974	314.91
2141.157	317.1
2144.34	317.27
2147.523	323.37
2150.705	320.39
2153.887	324.06
2157.068	325.27
2160.25	321.82
2163.431	323.74
2166.611	327.54
2169.792	332.7
2172.972	335.64
2176.152	338.98
2179.331	343
2182.511	347.3
2185.69	351.32
2188.868	357.63
2192.047	357.77
2195.225	369.24
2198.403	378.15
2201.58	384.89
2204.758	393.89
2207.935	401.38
2211.111	409.12
2214.288	414.33
2217.464	415.43
2220.64	422.37
2223.815	425.63
2226.991	444.12
2230.166	444.55
2233.34	451.4
2236.515	459.05
2239.689	457.42
2242.863	461.91
2246.036	471.13
2249.209	467.88
2252.382	477.95
2255.555	489.49
2258.727	494.14
2261.9	497.3
2265.071	502.6
2268.243	512.54
2271.414	518.14
2274.585	528.68
2277.756	532.38
2280.926	538.1
2284.096	553.33
2287.266	562.67
2290.436	570.34
2293.605	580.47
2296.774	597.22
2299.942	616.96
2303.111	618.32
2306.279	630.11
2309.447	640.69
2312.614	660.5
2315.781	678.52
2318.948	706.16
2322.115	696.11
2325.281	734.8
2328.447	724.65
2331.613	752.23
2334.779	742.99
2337.944	777.41
2341.109	786.09
2344.274	806.33
2347.438	834.19
2350.602	833.91
2353.766	861.76
2356.929	875.07
2360.092	866.31
2363.255	926.17
2366.418	925.08
2369.58	941.92
2372.742	1002.78
2375.904	1028.73
2379.066	1022.36
2382.227	998.52
2385.388	1085.53
2388.548	1082.09
2391.709	1096.52
2394.869	1221.51
2398.029	1171.39
2401.188	1206.36
2404.347	1198.3
2407.506	1175.56
2410.665	1212.47
2413.823	1282.51
2416.981	1361.19
2420.139	1317.76
2423.296	1302.36
2426.453	1362.68
2429.61	1302.99
2432.767	1360.06
2435.923	1343.36
2439.079	1482.48
2442.235	1502.85
2445.391	1484.1
2448.546	1476.04
2451.701	1436.48
2454.855	1431.1
2458.009	1527.66
2461.163	1584.83
2464.317	1655.88
2467.471	1698.15
2470.624	1696.77
2473.777	1643.33
2476.929	1594.4
2480.082	1551.24
2483.234	1533.18
2486.385	1612.95
2489.537	1620.4
2492.688	1673.72
2495.839	1629.05
2498.989	1590.52
2502.14	1594.85
2505.29	1611.61
2508.439	1632.81
2511.589	1631.99
2514.738	1783.06
2517.887	1745.13
2521.035	1833.04
2524.183	1854.68
2527.331	1866.41
2530.479	1854.13
2533.627	1868.6
