Data from N_3_HIR_WI_4N_Splice17_14-07-57-557.txt Node
Date: Sat Mar 07 14:07:57 EST 2020
User: sa697716
Spectrometer: NQ5500242
Trigger mode: 0
Integration Time (sec): 1.450000E-1
Scans to average: 20
Nonlinearity correction enabled: false
Boxcar width: 5
Storing dark spectrum: false
XAxis mode: Wavelengths
Number of Pixels in Spectrum: 512
>>>>>Begin Spectral Data<<<<<
187.83	136.88
188.298	142.99
188.766	135.28
189.233	114.67
189.701	125.04
190.169	141.55
190.636	124.43
191.104	127.03
191.571	-225.68
192.039	-326.38
192.506	-885.7
192.974	237.07
193.441	322.06
193.908	138.8
194.375	102.1
194.842	41.62
195.31	104.51
195.777	203.38
196.244	72.55
196.711	66.48
197.177	67.59
197.644	65.64
198.111	65.83
198.578	66.25
199.045	66.94
199.511	66.9
199.978	67.21
200.445	66.95
200.911	66.88
201.378	66.63
201.844	66.16
202.31	65.64
202.777	65.75
203.243	65.44
203.709	64.64
204.176	64.11
204.642	63.58
205.108	63.2
205.574	62.81
206.04	62.25
206.506	62
206.972	61.65
207.438	61.01
207.903	60.14
208.369	59.05
208.835	57.94
209.301	56.36
209.766	54.77
210.232	53.15
210.697	51.47
211.163	49.73
211.628	48.28
212.094	46.95
212.559	45.59
213.024	44.3
213.49	43.21
213.955	42.13
214.42	41.12
214.885	39.68
215.35	38.04
215.815	35.78
216.28	33.13
216.745	30.05
217.21	27.02
217.675	24.25
218.14	21.82
218.604	19.57
219.069	17.7
219.534	16.19
219.998	14.96
220.463	13.93
220.927	13.04
221.392	12.34
221.856	11.78
222.32	11.3
222.785	10.87
223.249	10.47
223.713	10.14
224.177	9.85
224.642	9.56
225.106	9.28
225.57	9.03
226.034	8.81
226.497	8.59
226.961	8.38
227.425	8.17
227.889	7.98
228.353	7.8
228.816	7.63
229.28	7.45
229.744	7.31
230.207	7.17
230.671	7.03
231.134	6.89
231.597	6.78
232.061	6.66
232.524	6.54
232.987	6.42
233.45	6.34
233.914	6.24
234.377	6.16
234.84	6.06
235.303	6
235.766	5.93
236.229	5.86
236.691	5.78
237.154	5.71
237.617	5.66
238.08	5.61
238.542	5.54
239.005	5.5
239.468	5.45
239.93	5.4
240.393	5.35
240.855	5.28
241.317	5.22
241.78	5.16
242.242	5.1
242.704	5.05
243.166	4.99
243.629	4.95
244.091	4.88
244.553	4.82
245.015	4.76
245.477	4.7
245.939	4.65
246.4	4.6
246.862	4.56
247.324	4.51
247.786	4.46
248.247	4.41
248.709	4.36
249.17	4.32
249.632	4.28
250.093	4.25
250.555	4.21
251.016	4.18
251.477	4.14
251.939	4.11
252.4	4.09
252.861	4.06
253.322	4.03
253.783	4.01
254.244	3.99
254.705	3.96
255.166	3.93
255.627	3.91
256.088	3.89
256.549	3.88
257.009	3.84
257.47	3.81
257.931	3.78
258.391	3.74
258.852	3.71
259.312	3.67
259.773	3.64
260.233	3.61
260.694	3.58
261.154	3.54
261.614	3.5
262.074	3.46
262.534	3.43
262.994	3.4
263.455	3.37
263.915	3.35
264.374	3.32
264.834	3.3
265.294	3.27
265.754	3.24
266.214	3.22
266.673	3.2
267.133	3.19
267.593	3.17
268.052	3.15
268.512	3.14
268.971	3.12
269.431	3.1
269.89	3.09
270.349	3.08
270.809	3.06
271.268	3.05
271.727	3.04
272.186	3.03
272.645	3.03
273.104	3.01
273.563	3
274.022	3
274.481	3
274.94	3
275.399	2.99
275.857	2.98
276.316	2.97
276.775	2.96
277.233	2.96
277.692	2.95
278.15	2.95
278.609	2.95
279.067	2.95
279.525	2.94
279.984	2.94
280.442	2.94
280.9	2.94
281.358	2.94
281.816	2.94
282.274	2.94
282.732	2.94
283.19	2.94
283.648	2.93
284.106	2.93
284.564	2.93
285.021	2.93
285.479	2.93
285.937	2.93
286.394	2.93
286.852	2.92
287.309	2.93
287.767	2.92
288.224	2.91
288.682	2.89
289.139	2.88
289.596	2.87
290.053	2.85
290.511	2.83
290.968	2.82
291.425	2.8
291.882	2.78
292.339	2.76
292.796	2.75
293.252	2.73
293.709	2.73
294.166	2.72
294.623	2.71
295.079	2.7
295.536	2.7
295.992	2.69
296.449	2.69
296.905	2.68
297.362	2.68
297.818	2.66
298.274	2.67
298.731	2.65
299.187	2.64
299.643	2.63
300.099	2.63
300.555	2.62
301.011	2.62
301.467	2.62
301.923	2.61
302.379	2.61
302.835	2.61
303.291	2.6
303.746	2.61
304.202	2.62
304.658	2.62
305.113	2.62
305.569	2.61
306.024	2.62
306.479	2.61
306.935	2.61
307.39	2.62
307.845	2.62
308.301	2.63
308.756	2.64
309.211	2.64
309.666	2.65
310.121	2.65
310.576	2.66
311.031	2.66
311.486	2.68
311.94	2.69
312.395	2.69
312.85	2.7
313.305	2.7
313.759	2.7
314.214	2.71
314.668	2.7
315.123	2.7
315.577	2.7
316.032	2.69
316.486	2.69
316.94	2.69
317.394	2.68
317.849	2.67
318.303	2.66
318.757	2.64
319.211	2.63
319.665	2.63
320.119	2.61
320.572	2.6
321.026	2.59
321.48	2.58
321.934	2.57
322.387	2.57
322.841	2.56
323.295	2.57
323.748	2.57
324.202	2.57
324.655	2.56
325.108	2.57
325.562	2.57
326.015	2.58
326.468	2.59
326.921	2.59
327.374	2.59
327.827	2.59
328.28	2.58
328.733	2.58
329.186	2.58
329.639	2.58
330.092	2.59
330.545	2.59
330.997	2.6
331.45	2.6
331.903	2.61
332.355	2.62
332.808	2.63
333.26	2.64
333.713	2.64
334.165	2.65
334.617	2.65
335.069	2.66
335.522	2.67
335.974	2.68
336.426	2.68
336.878	2.68
337.33	2.68
337.782	2.69
338.234	2.7
338.686	2.7
339.137	2.71
339.589	2.7
340.041	2.7
340.493	2.69
340.944	2.67
341.396	2.67
341.847	2.65
342.299	2.64
342.75	2.63
343.201	2.61
343.653	2.6
344.104	2.58
344.555	2.57
345.006	2.56
345.457	2.56
345.908	2.55
346.359	2.55
346.81	2.55
347.261	2.55
347.712	2.55
348.163	2.55
348.613	2.55
349.064	2.56
349.515	2.56
349.965	2.57
350.416	2.57
350.866	2.57
351.317	2.57
351.767	2.57
352.217	2.58
352.668	2.59
353.118	2.6
353.568	2.61
354.018	2.63
354.468	2.65
354.918	2.67
355.368	2.69
355.818	2.71
356.268	2.73
356.718	2.76
357.168	2.76
357.617	2.78
358.067	2.79
358.517	2.82
358.966	2.85
359.416	2.87
359.865	2.9
360.315	2.93
360.764	2.97
361.213	3
361.663	3.04
362.112	3.09
362.561	3.14
363.01	3.19
363.459	3.23
363.908	3.27
364.357	3.33
364.806	3.39
365.255	3.46
365.703	3.55
366.152	3.62
366.601	3.71
367.05	3.79
367.498	3.88
367.947	3.98
368.395	4.1
368.844	4.21
369.292	4.32
369.74	4.44
370.189	4.55
370.637	4.66
371.085	4.77
371.533	4.9
371.981	5.04
372.429	5.17
372.877	5.31
373.325	5.44
373.773	5.59
374.221	5.72
374.669	5.87
375.116	6.01
375.564	6.16
376.012	6.31
376.459	6.46
376.907	6.6
377.354	6.74
377.801	6.89
378.249	7.04
378.696	7.18
379.143	7.33
379.591	7.47
380.038	7.62
380.485	7.76
380.932	7.9
381.379	8.05
381.826	8.19
382.273	8.32
382.72	8.45
383.166	8.58
383.613	8.71
384.06	8.83
384.506	8.96
384.953	9.08
385.4	9.2
385.846	9.31
386.292	9.41
386.739	9.52
387.185	9.62
387.631	9.72
388.078	9.81
388.524	9.9
388.97	9.99
389.416	10.06
389.862	10.14
390.308	10.21
390.754	10.28
391.2	10.35
391.645	10.41
392.091	10.49
392.537	10.55
392.983	10.6
393.428	10.66
393.874	10.71
394.319	10.74
394.765	10.76
395.21	10.77
395.655	10.78
396.101	10.81
396.546	10.8
396.991	10.8
397.436	10.8
397.881	10.8
398.326	10.8
398.771	10.81
399.216	10.81
399.661	10.82
400.106	10.82
400.551	10.79
400.995	10.75
401.44	10.72
401.885	10.68
402.329	10.65
402.774	10.62
403.218	10.6
403.663	10.57
404.107	10.53
404.551	10.49
404.995	10.45
405.44	10.41
405.884	10.38
406.328	10.35
406.772	10.32
407.216	10.29
407.66	10.25
408.104	10.19
408.547	10.13
408.991	10.09
409.435	10.04
409.879	10
410.322	9.97
410.766	9.94
411.209	9.93
411.653	9.91
412.096	9.89
412.54	9.87
412.983	9.85
413.426	9.86
413.869	9.85
414.312	9.85
414.756	9.86
415.199	9.85
415.642	9.84
416.085	9.83
416.527	9.79
416.97	9.76
417.413	9.73
417.856	9.7
418.298	9.66
418.741	9.62
419.184	9.59
419.626	9.56
420.069	9.55
420.511	9.51
420.953	9.48
421.396	9.48
421.838	9.46
422.28	9.46
422.722	9.47
423.164	9.47
423.606	9.45
424.048	9.44
424.49	9.42
424.932	9.39
425.374	9.36
425.816	9.31
426.258	9.27
426.699	9.23
427.141	9.19
427.582	9.16
428.024	9.15
428.465	9.15
428.907	9.13
429.348	9.12
429.789	9.1
430.231	9.11
430.672	9.13
431.113	9.16
431.554	9.19
431.995	9.22
432.436	9.23
432.877	9.24
433.318	9.27
433.759	9.31
434.2	9.36
434.64	9.41
435.081	9.45
435.522	9.49
435.962	9.53
436.403	9.58
436.843	9.63
437.284	9.67
437.724	9.71
438.164	9.73
438.604	9.77
439.045	9.82
439.485	9.86
439.925	9.9
440.365	9.95
440.805	10
441.245	10.06
441.685	10.14
442.125	10.23
442.564	10.31
443.004	10.4
443.444	10.48
443.883	10.58
444.323	10.67
444.762	10.8
445.202	10.91
445.641	11.03
446.081	11.13
446.52	11.21
446.959	11.32
447.398	11.42
447.837	11.54
448.276	11.64
448.716	11.73
449.154	11.84
449.593	11.93
450.032	12
450.471	12.07
450.91	12.15
451.349	12.22
451.787	12.3
452.226	12.35
452.664	12.41
453.103	12.47
453.541	12.52
453.98	12.56
454.418	12.6
454.856	12.64
455.295	12.69
455.733	12.7
456.171	12.73
456.609	12.75
457.047	12.78
457.485	12.8
457.923	12.82
458.361	12.83
458.798	12.85
459.236	12.86
459.674	12.88
460.111	12.9
460.549	12.94
460.987	12.97
461.424	13
461.862	13.02
462.299	13.05
462.736	13.07
463.173	13.1
463.611	13.11
464.048	13.14
464.485	13.16
464.922	13.18
465.359	13.19
465.796	13.21
466.233	13.21
466.67	13.22
467.106	13.24
467.543	13.24
467.98	13.24
468.416	13.25
468.853	13.25
469.29	13.26
469.726	13.28
470.162	13.29
470.599	13.29
471.035	13.29
471.471	13.29
471.907	13.28
472.344	13.31
472.78	13.34
473.216	13.36
473.652	13.38
474.088	13.37
474.523	13.39
474.959	13.39
475.395	13.39
475.831	13.41
476.266	13.43
476.702	13.44
477.138	13.46
477.573	13.47
478.008	13.48
478.444	13.49
478.879	13.52
479.314	13.53
479.75	13.55
480.185	13.58
480.62	13.59
481.055	13.63
481.49	13.64
481.925	13.66
482.36	13.68
482.795	13.72
483.229	13.77
483.664	13.81
484.099	13.86
484.534	13.92
484.968	13.99
485.403	14.06
485.837	14.13
486.271	14.23
486.706	14.31
487.14	14.42
487.574	14.52
488.009	14.62
488.443	14.73
488.877	14.85
489.311	14.98
489.745	15.12
490.179	15.28
490.613	15.44
491.046	15.6
491.48	15.77
491.914	15.94
492.348	16.13
492.781	16.32
493.215	16.52
493.648	16.74
494.082	16.94
494.515	17.14
494.948	17.36
495.382	17.59
495.815	17.82
496.248	18.09
496.681	18.35
497.114	18.6
497.547	18.86
497.98	19.11
498.413	19.38
498.846	19.67
499.279	19.95
499.711	20.24
500.144	20.54
500.577	20.82
501.009	21.1
501.442	21.39
501.874	21.71
502.306	22.03
502.739	22.37
503.171	22.68
503.603	23.01
504.036	23.35
504.468	23.69
504.9	24.02
505.332	24.37
505.764	24.72
506.196	25.08
506.627	25.43
507.059	25.79
507.491	26.15
507.923	26.53
508.354	26.9
508.786	27.26
509.217	27.65
509.649	28.02
510.08	28.39
510.512	28.76
510.943	29.12
511.374	29.5
511.805	29.87
512.237	30.21
512.668	30.57
513.099	30.93
513.53	31.29
513.961	31.64
514.391	31.98
514.822	32.35
515.253	32.68
515.684	33.02
516.114	33.35
516.545	33.68
516.975	34.04
517.406	34.37
517.836	34.67
518.267	34.98
518.697	35.27
519.127	35.57
519.558	35.85
519.988	36.13
520.418	36.4
520.848	36.65
521.278	36.9
521.708	37.24
522.138	37.48
522.567	37.72
522.997	37.92
523.427	38.17
523.857	38.37
524.286	38.57
524.716	38.76
525.145	38.96
525.575	39.15
526.004	39.34
526.433	39.41
526.863	39.55
527.292	39.71
527.721	39.88
528.15	40
528.579	40.16
529.008	40.31
529.437	40.45
529.866	40.56
530.295	40.68
530.724	40.79
531.152	40.9
531.581	41.03
532.01	41.14
532.438	41.23
532.867	41.33
533.295	41.38
533.723	41.46
534.152	41.53
534.58	41.61
535.008	41.65
535.436	41.72
535.865	41.77
536.293	41.81
536.721	41.85
537.149	41.91
537.576	41.96
538.004	42.01
538.432	42.03
538.86	42.05
539.287	42.08
539.715	42.14
540.143	42.15
540.57	42.19
540.998	42.21
541.425	42.24
541.852	42.26
542.28	42.29
542.707	42.33
543.134	42.37
543.561	42.43
543.988	42.46
544.415	42.48
544.842	42.52
545.269	42.55
545.696	42.58
546.123	42.61
546.549	42.65
546.976	42.69
547.403	42.72
547.829	42.74
548.256	42.77
548.682	42.8
549.108	42.85
549.535	42.89
549.961	42.91
550.387	42.95
550.813	42.98
551.24	43
551.666	43.01
552.092	43.02
552.518	43.02
552.943	43.03
553.369	43.03
553.795	43.01
554.221	43.02
554.646	43.02
555.072	43.01
555.498	43
555.923	43
556.349	42.96
556.774	42.95
557.199	42.93
557.625	42.9
558.05	42.88
558.475	42.87
558.9	42.83
559.325	42.82
559.75	42.76
560.175	42.71
560.6	42.62
561.025	42.57
561.449	42.5
561.874	42.45
562.299	42.38
562.723	42.32
563.148	42.23
563.572	42.12
563.997	42.01
564.421	41.92
564.846	41.84
565.27	41.76
565.694	41.67
566.118	41.57
566.542	41.46
566.966	41.31
567.39	41.19
567.814	41.06
568.238	40.95
568.662	40.83
569.086	40.71
569.509	40.57
569.933	40.44
570.357	40.3
570.78	40.17
571.204	40.05
571.627	39.95
572.05	39.83
572.474	39.71
572.897	39.61
573.32	39.49
573.743	39.41
574.166	39.31
574.589	39.23
575.012	39.16
575.435	39.08
575.858	38.99
576.281	38.92
576.704	38.84
577.126	38.76
577.549	38.68
577.972	38.6
578.394	38.51
578.817	38.44
579.239	38.35
579.661	38.28
580.084	38.2
580.506	38.15
580.928	38.08
581.35	38.02
581.772	37.96
582.194	37.9
582.616	37.86
583.038	37.81
583.46	37.76
583.882	37.71
584.303	37.66
584.725	37.61
585.147	37.55
585.568	37.51
585.99	37.46
586.411	37.41
586.833	37.36
587.254	37.31
587.675	37.27
588.096	37.19
588.518	37.13
588.939	37.08
589.36	37.03
589.781	37.01
590.202	36.96
590.623	36.92
591.043	36.87
591.464	36.85
591.885	36.8
592.305	36.77
592.726	36.76
593.147	36.74
593.567	36.71
593.987	36.69
594.408	36.65
594.828	36.61
595.248	36.58
595.669	36.56
596.089	36.52
596.509	36.47
596.929	36.42
597.349	36.4
597.769	36.35
598.189	36.3
598.608	36.24
599.028	36.21
599.448	36.17
599.867	36.11
600.287	36.06
600.706	36.01
601.126	35.97
601.545	35.93
601.965	35.86
602.384	35.81
602.803	35.76
603.222	35.69
603.641	35.61
604.061	35.55
604.48	35.48
604.898	35.42
605.317	35.36
605.736	35.3
606.155	35.19
606.574	35.12
606.992	35.03
607.411	34.94
607.829	34.84
608.248	34.76
608.666	34.67
609.085	34.58
609.503	34.5
609.921	34.41
610.339	34.3
610.758	34.23
611.176	34.13
611.594	34.05
612.012	33.96
612.43	33.89
612.847	33.81
613.265	33.7
613.683	33.62
614.101	33.53
614.518	33.41
614.936	33.33
615.353	33.23
615.771	33.16
616.188	33.08
616.606	32.99
617.023	32.92
617.44	32.86
617.857	32.81
618.274	32.74
618.691	32.67
619.108	32.62
619.525	32.56
619.942	32.52
620.359	32.48
620.776	32.43
621.192	32.38
621.609	32.33
622.026	32.29
622.442	32.24
622.859	32.21
623.275	32.18
623.691	32.16
624.108	32.14
624.524	32.12
624.94	32.09
625.356	32.09
625.772	32.06
626.188	32.05
626.604	32.03
627.02	32.02
627.436	32
627.852	31.99
628.268	31.97
628.683	31.96
629.099	31.94
629.514	31.92
629.93	31.91
630.345	31.9
630.761	31.85
631.176	31.81
631.591	31.77
632.007	31.72
632.422	31.67
632.837	31.62
633.252	31.54
633.667	31.46
634.082	31.37
634.497	31.28
634.911	31.17
635.326	31.06
635.741	30.95
636.155	30.82
636.57	30.69
636.984	30.55
637.399	30.38
637.813	30.23
638.228	30.07
638.642	29.88
639.056	29.69
639.47	29.51
639.884	29.3
640.298	29.11
640.712	28.9
641.126	28.7
641.54	28.48
641.954	28.28
642.368	28.07
642.781	27.86
643.195	27.66
643.609	27.45
644.022	27.24
644.436	27.06
644.849	26.85
645.262	26.65
645.676	26.46
646.089	26.3
646.502	26.13
646.915	25.98
647.328	25.84
647.741	25.7
648.154	25.57
648.567	25.45
648.98	25.32
649.393	25.22
649.805	25.12
650.218	25.02
650.631	24.92
651.043	24.8
651.456	24.69
651.868	24.57
652.28	24.46
652.693	24.35
653.105	24.23
653.517	24.13
653.929	23.99
654.341	23.85
654.753	23.69
655.165	23.52
655.577	23.35
655.989	23.16
656.401	22.97
656.813	22.76
657.224	22.52
657.636	22.28
658.047	22.04
658.459	21.79
658.87	21.56
659.282	21.3
659.693	21.06
660.104	20.8
660.515	20.54
660.926	20.28
661.338	20.02
661.749	19.77
662.159	19.51
662.57	19.27
662.981	19.03
663.392	18.78
663.803	18.54
664.213	18.29
664.624	18.07
665.035	17.86
665.445	17.65
665.855	17.45
666.266	17.26
666.676	17.09
667.086	16.9
667.497	16.73
667.907	16.59
668.317	16.45
668.727	16.32
669.137	16.2
669.547	16.07
669.956	15.96
670.366	15.86
670.776	15.76
671.186	15.68
671.595	15.6
672.005	15.52
672.414	15.46
672.824	15.4
673.233	15.35
673.642	15.32
674.052	15.28
674.461	15.28
674.87	15.27
675.279	15.27
675.688	15.28
676.097	15.34
676.506	15.38
676.915	15.44
677.323	15.52
677.732	15.62
678.141	15.73
678.549	15.88
678.958	16.05
679.366	16.25
679.775	16.47
680.183	16.72
680.592	17
681	17.34
681.408	17.7
681.816	18.1
682.224	18.54
682.632	19.01
683.04	19.51
683.448	20.06
683.856	20.63
684.264	21.26
684.671	21.91
685.079	22.58
685.487	23.27
685.894	23.99
686.302	24.71
686.709	25.46
687.116	26.22
687.524	26.99
687.931	27.76
688.338	28.55
688.745	29.32
689.152	30.08
689.559	30.86
689.966	31.62
690.373	32.36
690.78	33.1
691.187	33.8
691.593	34.51
692	35.2
692.407	35.82
692.813	36.48
693.22	37.09
693.626	37.71
694.032	38.32
694.439	38.9
694.845	39.48
695.251	40.03
695.657	40.54
696.063	41.08
696.469	41.58
696.875	42.08
697.281	42.54
697.687	43
698.093	43.41
698.498	43.8
698.904	44.18
699.31	44.54
699.715	44.9
700.12	45.25
700.526	45.56
700.931	45.88
701.337	46.18
701.742	46.44
702.147	46.7
702.552	46.99
702.957	47.23
703.362	47.47
703.767	47.67
704.172	47.88
704.577	48.1
704.981	48.31
705.386	48.52
705.791	48.71
706.195	48.92
706.6	49.14
707.004	49.3
707.408	49.51
707.813	49.7
708.217	49.9
708.621	50.09
709.025	50.25
709.43	50.38
709.834	50.53
710.237	50.67
710.641	50.81
711.045	50.95
711.449	51.1
711.853	51.22
712.256	51.33
712.66	51.44
713.064	51.54
713.467	51.65
713.87	51.78
714.274	51.88
714.677	52.01
715.08	52.1
715.484	52.21
715.887	52.3
716.29	52.38
716.693	52.49
717.096	52.59
717.499	52.68
717.901	52.77
718.304	52.86
718.707	52.95
719.109	53.04
719.512	53.11
719.915	53.17
720.317	53.24
720.719	53.31
721.122	53.37
721.524	53.41
721.926	53.49
722.328	53.57
722.731	53.63
723.133	53.71
723.535	53.76
723.937	53.85
724.338	53.89
724.74	53.95
725.142	54.09
725.544	54.12
725.945	54.22
726.347	54.25
726.748	54.29
727.15	54.31
727.551	54.34
727.952	54.36
728.354	54.38
728.755	54.42
729.156	54.43
729.557	54.38
729.958	54.41
730.359	54.43
730.76	54.48
731.161	54.49
731.562	54.55
731.962	54.55
732.363	54.56
732.763	54.6
733.164	54.63
733.564	54.66
733.965	54.69
734.365	54.72
734.766	54.72
735.166	54.73
735.566	54.75
735.966	54.78
736.366	54.79
736.766	54.82
737.166	54.82
737.566	54.82
737.966	54.81
738.365	54.83
738.765	54.85
739.165	54.88
739.564	54.89
739.964	54.88
740.363	54.86
740.763	54.89
741.162	54.89
741.561	54.88
741.96	54.88
742.36	54.94
742.759	54.92
743.158	54.92
743.557	54.9
743.955	54.94
744.354	54.95
744.753	55
745.152	55.02
745.55	55.06
745.949	55.11
746.348	55.14
746.746	55.13
747.144	55.18
747.543	55.16
747.941	55.19
748.339	55.17
748.737	55.18
749.136	55.17
749.534	55.13
749.932	55.12
750.33	55.11
750.727	55.12
751.125	55.13
751.523	55.11
751.921	55.11
752.318	55.13
752.716	55.11
753.113	55.1
753.511	55.11
753.908	55.14
754.305	55.13
754.703	55.11
755.1	55.08
755.497	55.07
755.894	55.06
756.291	55.08
756.688	55.04
757.085	55.05
757.482	55.03
757.878	55.02
758.275	54.99
758.672	54.98
759.068	55
759.465	55
759.861	54.99
760.258	55
760.654	54.98
761.05	54.98
761.447	54.97
761.843	54.96
762.239	54.95
762.635	54.96
763.031	54.94
763.427	54.92
763.822	54.91
764.218	54.9
764.614	54.89
765.01	54.87
765.405	54.87
765.801	54.84
766.196	54.86
766.592	54.85
766.987	54.83
767.382	54.82
767.778	54.82
768.173	54.83
768.568	54.82
768.963	54.81
769.358	54.84
769.753	54.84
770.148	54.88
770.542	54.86
770.937	54.88
771.332	54.89
771.726	54.91
772.121	54.9
772.515	54.9
772.91	54.89
773.304	54.89
773.699	54.89
774.093	54.87
774.487	54.85
774.881	54.88
775.275	54.84
775.669	54.83
776.063	54.81
776.457	54.84
776.851	54.83
777.245	54.82
777.638	54.81
778.032	54.82
778.425	54.87
778.819	54.85
779.212	54.87
779.606	54.89
779.999	54.9
780.392	54.92
780.786	54.91
781.179	54.95
781.572	55
781.965	55.02
782.358	55.04
782.751	55.01
783.143	55.05
783.536	55.03
783.929	55.04
784.322	55.07
784.714	55.09
785.107	55.13
785.499	55.11
785.891	55.1
786.284	55.12
786.676	55.12
787.068	55.15
787.46	55.15
787.852	55.16
788.245	55.16
788.636	55.13
789.028	55.14
789.42	55.12
789.812	55.14
790.204	55.17
790.595	55.16
790.987	55.16
791.378	55.17
791.77	55.18
792.161	55.18
792.553	55.19
792.944	55.2
793.335	55.22
793.726	55.24
794.117	55.22
794.508	55.2
794.899	55.19
795.29	55.2
795.681	55.18
796.072	55.17
796.463	55.19
796.853	55.19
797.244	55.19
797.634	55.18
798.025	55.19
798.415	55.23
798.806	55.23
799.196	55.25
799.586	55.27
799.976	55.29
800.366	55.33
800.756	55.34
801.146	55.37
801.536	55.42
801.926	55.43
802.316	55.41
802.706	55.43
803.095	55.44
803.485	55.46
803.874	55.44
804.264	55.44
804.653	55.44
805.043	55.46
805.432	55.44
805.821	55.44
806.21	55.45
806.599	55.47
806.988	55.46
807.377	55.49
807.766	55.5
808.155	55.5
808.544	55.52
808.933	55.53
809.321	55.53
809.71	55.56
810.098	55.55
810.487	55.53
810.875	55.54
811.264	55.53
811.652	55.52
812.04	55.52
812.428	55.55
812.816	55.55
813.204	55.55
813.592	55.52
813.98	55.5
814.368	55.54
814.756	55.56
815.144	55.53
815.531	55.53
815.919	55.55
816.306	55.57
816.694	55.57
817.081	55.59
817.469	55.59
817.856	55.63
818.243	55.64
818.63	55.64
819.017	55.66
819.404	55.68
819.791	55.68
820.178	55.72
820.565	55.68
820.952	55.69
821.339	55.67
821.725	55.67
822.112	55.69
822.498	55.69
822.885	55.7
823.271	55.68
823.657	55.65
824.044	55.64
824.43	55.62
824.816	55.64
825.202	55.62
825.588	55.62
825.974	55.59
826.36	55.55
826.746	55.54
827.132	55.52
827.517	55.54
827.903	55.56
828.289	55.57
828.674	55.55
829.06	55.5
829.445	55.49
829.83	55.48
830.216	55.46
830.601	55.44
830.986	55.44
831.371	55.38
831.756	55.37
832.141	55.34
832.526	55.32
832.911	55.3
833.295	55.32
833.68	55.32
834.065	55.27
834.449	55.27
834.834	55.27
835.218	55.26
835.603	55.27
835.987	55.23
836.371	55.2
836.755	55.17
837.139	55.16
837.524	55.16
837.908	55.15
838.291	55.19
838.675	55.15
839.059	55.13
839.443	55.1
839.827	55.08
840.21	55.07
840.594	55.08
840.977	55.05
841.361	55.04
841.744	54.96
842.127	54.93
842.511	54.88
842.894	54.85
843.277	54.83
843.66	54.8
844.043	54.8
844.426	54.78
844.809	54.79
845.191	54.8
845.574	54.78
845.957	54.8
846.339	54.83
846.722	54.84
847.104	54.88
847.487	54.88
847.869	54.9
848.252	54.92
848.634	54.93
849.016	54.9
849.398	54.92
849.78	54.94
850.162	54.96
850.544	54.95
850.926	54.94
851.307	54.94
851.689	54.95
852.071	54.95
852.452	54.93
852.834	54.95
853.215	54.96
853.597	54.94
853.978	54.94
854.359	54.94
854.741	54.95
855.122	54.94
855.503	54.91
855.884	54.88
856.265	54.87
856.646	54.87
857.026	54.88
857.407	54.9
857.788	54.9
858.169	54.9
858.549	54.91
858.93	54.86
859.31	54.87
859.69	54.9
860.071	54.92
860.451	54.94
860.831	54.95
861.211	54.9
861.591	54.87
861.971	54.85
862.351	54.86
862.731	54.87
863.111	54.88
863.491	54.89
863.87	54.88
864.25	54.87
864.629	54.86
865.009	54.85
865.388	54.88
865.768	54.9
866.147	54.89
866.526	54.87
866.905	54.86
867.284	54.9
867.663	54.9
868.042	54.9
868.421	54.91
868.8	54.92
869.179	54.91
869.558	54.91
869.936	54.86
870.315	54.86
870.693	54.88
871.072	54.87
871.45	54.86
871.828	54.85
872.207	54.86
872.585	54.84
872.963	54.84
873.341	54.82
873.719	54.83
874.097	54.86
874.475	54.89
874.853	54.88
875.23	54.9
875.608	54.9
875.986	54.92
876.363	54.92
876.741	54.94
877.118	54.96
877.495	55
877.873	54.98
878.25	55.01
878.627	55.02
879.004	55.02
879.381	55.03
879.758	55.01
880.135	55.01
880.512	54.99
880.889	55
881.265	54.98
881.642	54.95
882.019	54.95
882.395	54.9
882.772	54.87
883.148	54.84
883.524	54.83
883.901	54.81
884.277	54.79
884.653	54.78
885.029	54.73
885.405	54.72
885.781	54.7
886.157	54.69
886.532	54.71
886.908	54.72
887.284	54.71
887.659	54.67
888.035	54.66
888.411	54.64
888.786	54.64
889.161	54.64
889.537	54.64
889.912	54.63
890.287	54.6
890.662	54.57
891.037	54.56
891.412	54.54
891.787	54.51
892.162	54.51
892.536	54.49
892.911	54.47
893.286	54.44
893.66	54.41
894.035	54.41
894.409	54.4
894.784	54.39
895.158	54.36
895.532	54.36
895.906	54.38
896.281	54.35
896.655	54.34
897.029	54.34
897.402	54.32
897.776	54.33
898.15	54.33
898.524	54.35
898.898	54.36
899.271	54.37
899.645	54.38
900.018	54.4
900.392	54.43
900.765	54.46
901.138	54.46
901.511	54.5
901.884	54.5
902.258	54.51
902.631	54.51
903.003	54.52
903.376	54.55
903.749	54.54
904.122	54.54
904.495	54.55
904.867	54.57
905.24	54.61
905.612	54.64
905.985	54.62
906.357	54.62
906.729	54.63
907.102	54.66
907.474	54.67
907.846	54.68
908.218	54.68
908.59	54.68
908.962	54.67
909.334	54.68
909.705	54.67
910.077	54.72
910.449	54.73
910.82	54.72
911.192	54.7
911.563	54.65
911.935	54.66
912.306	54.67
912.677	54.7
913.048	54.71
913.419	54.68
913.79	54.65
914.161	54.63
914.532	54.64
914.903	54.65
915.274	54.69
915.645	54.74
916.015	54.76
916.386	54.78
916.756	54.76
917.127	54.77
917.497	54.79
917.868	54.8
918.238	54.82
918.608	54.83
918.978	54.84
919.348	54.85
919.718	54.85
920.088	54.86
920.458	54.86
920.828	54.86
921.198	54.83
921.567	54.85
921.937	54.9
922.306	54.89
922.676	54.89
923.045	54.87
923.415	54.82
923.784	54.81
924.153	54.8
924.522	54.84
924.891	54.85
925.26	54.89
925.629	54.89
925.998	54.85
926.367	54.88
926.736	54.88
927.104	54.9
927.473	54.88
927.842	54.81
928.21	54.82
928.578	54.76
928.947	54.77
929.315	54.72
929.683	54.69
930.051	54.66
930.42	54.6
930.788	54.53
931.156	54.49
931.523	54.47
931.891	54.53
932.259	54.5
932.627	54.47
932.994	54.43
933.362	54.41
933.729	54.41
934.097	54.4
934.464	54.39
934.831	54.4
935.199	54.41
935.566	54.43
935.933	54.36
936.3	54.34
936.667	54.33
937.034	54.31
937.401	54.33
937.767	54.29
938.134	54.34
938.501	54.38
938.867	54.43
939.234	54.48
939.6	54.49
939.967	54.6
940.333	54.64
940.699	54.69
941.065	54.7
941.431	54.75
941.798	54.81
942.163	54.81
942.529	54.8
942.895	54.78
943.261	54.78
943.627	54.8
943.992	54.78
944.358	54.82
944.723	54.86
945.089	54.86
945.454	54.88
945.82	54.88
946.185	54.9
946.55	54.87
946.915	54.9
947.28	54.85
947.645	54.85
948.01	54.8
948.375	54.72
948.74	54.61
949.104	54.62
949.469	54.56
949.834	54.54
950.198	54.49
950.562	54.49
950.927	54.44
951.291	54.38
951.655	54.27
952.02	54.25
952.384	54.23
952.748	54.18
953.112	54.13
953.476	54.09
953.839	54.03
954.203	54.01
954.567	53.94
954.931	53.9
955.294	53.87
955.658	53.99
956.021	53.96
956.385	53.92
956.748	53.93
957.111	53.88
957.474	53.88
957.837	53.86
958.2	53.8
958.563	53.81
958.926	53.82
959.289	53.86
959.652	53.76
960.015	53.77
960.377	53.78
960.74	53.84
961.102	53.88
961.465	53.9
961.827	53.91
962.189	53.93
962.552	53.95
962.914	53.94
963.276	53.94
963.638	53.95
964	53.96
964.362	54
964.724	53.98
965.085	53.95
965.447	53.87
965.809	53.83
966.17	53.86
966.532	53.86
966.893	53.84
967.255	53.83
967.616	53.84
967.977	53.86
968.338	53.83
968.699	53.81
969.061	53.84
969.421	53.88
969.782	54
970.143	54
970.504	54.05
970.865	54.16
971.225	54.14
971.586	54.11
971.946	54.12
972.307	54.14
972.667	54.16
973.027	54.16
973.388	54.23
973.748	54.18
974.108	54.2
974.468	54.13
974.828	54.06
975.188	54.06
975.548	54.09
975.907	54.07
976.267	54.07
976.627	54.08
976.986	54.05
977.346	53.94
977.705	53.93
978.064	53.96
978.424	53.98
978.783	53.97
979.142	53.98
979.501	54
979.86	54.09
980.219	54.08
980.578	54.06
980.937	54.14
981.296	54.16
981.654	54.14
982.013	54.06
982.371	54.08
982.73	54.12
983.088	54.14
983.447	54.12
983.805	54.04
984.163	54.08
984.521	54.14
984.879	54.09
985.237	54.06
985.595	54.16
985.953	54.23
986.311	54.21
986.669	54.18
987.026	54.22
987.384	54.25
987.741	54.21
988.099	54.18
988.456	54.12
988.814	54.23
989.171	54.3
989.528	54.31
989.885	54.29
990.242	54.41
990.599	54.51
990.956	54.52
991.313	54.61
991.67	54.7
992.027	54.86
992.383	54.97
992.74	54.98
993.096	55.01
993.453	54.98
993.809	55.07
994.165	55.01
994.522	55.01
994.878	55.08
995.234	55.12
995.59	55.13
995.946	55.06
996.302	55.08
996.658	55.08
997.013	55.07
997.369	55.19
997.725	55.16
998.08	55.15
998.436	55.16
998.791	55.2
999.147	55.16
999.502	55.21
999.857	55.24
1000.212	55.21
1000.567	55.27
1000.922	55.44
1001.277	55.43
1001.632	55.46
1001.987	55.56
1002.342	55.62
1002.696	55.63
1003.051	55.79
1003.406	55.9
1003.76	56
1004.114	56.02
1004.469	56.06
1004.823	56.32
1005.177	56.32
1005.531	56.4
1005.885	56.49
1006.239	56.55
1006.593	56.61
1006.947	56.56
1007.301	56.43
1007.655	56.44
1008.008	56.55
1008.362	56.6
1008.715	56.45
1009.069	56.63
1009.422	56.66
1009.776	56.68
1010.129	56.73
1010.482	56.74
1010.835	56.76
1011.188	56.94
1011.541	57
1011.894	57.13
1012.247	57.11
1012.6	57.1
1012.952	56.99
1013.305	57.09
1013.657	57.15
1014.01	57.19
1014.362	57.26
1014.715	57.33
1015.067	57.39
1015.419	57.49
1015.771	57.3
1016.123	57.46
1016.475	57.48
1016.827	57.52
1017.179	57.58
1017.531	57.46
1017.883	57.53
1018.234	57.8
1018.586	57.7
1018.938	57.89
1019.289	57.77
1019.64	58
1019.992	57.92
1020.343	58.03
1020.694	58.15
1021.045	58.19
1021.396	58.38
1021.747	58.55
1022.098	58.52
1022.449	58.9
1022.8	58.77
1023.151	58.86
1023.501	59.01
1023.852	59.15
1024.202	58.97
1024.553	59.04
1024.903	58.95
1025.253	59.26
1025.604	59.13
1025.954	58.96
1026.304	58.82
1026.654	58.77
1027.004	58.67
1027.354	58.53
1027.703	58.43
1028.053	58.81
1028.403	58.72
1028.753	58.9
1029.102	58.8
1029.452	58.95
1029.801	59.18
1030.15	59.21
1030.499	59.32
897.758	1205.26
901.051	1209.97
904.343	1207.41
907.636	1226.33
910.928	1194.13
914.22	1190.3
917.511	1169.9
920.803	1125.95
924.094	1118.98
927.384	1091.28
930.675	1048.35
933.965	1042.19
937.255	977.28
940.544	937.3
943.834	895.94
947.123	887.62
950.411	837.5
953.7	820.26
956.988	776.69
960.276	744.97
963.563	732.66
966.851	704.92
970.138	700.21
973.424	681.94
976.711	685.72
979.997	651.5
983.283	648.28
986.568	634.7
989.853	616.58
993.138	605.76
996.423	584.28
999.708	568.29
1002.992	562.06
1006.275	537.03
1009.559	531.36
1012.842	512.55
1016.125	497.97
1019.408	488.58
1022.69	484.58
1025.972	475.26
1029.254	463.17
1032.536	454.82
1035.817	447.25
1039.098	442
1042.379	433.22
1045.659	428.01
1048.939	417.35
1052.219	411.24
1055.498	406.01
1058.778	395.04
1062.057	385.86
1065.335	382.09
1068.614	378.8
1071.892	374.34
1075.17	363.07
1078.447	356.29
1081.724	354.5
1085.001	351.99
1088.278	344.99
1091.554	337.51
1094.83	338.34
1098.106	336.27
1101.382	333.37
1104.657	329.45
1107.932	324.09
1111.206	325.86
1114.481	318.16
1117.755	314.79
1121.029	312.07
1124.302	310.3
1127.575	306.04
1130.848	302.08
1134.121	298.13
1137.393	296.74
1140.665	291.84
1143.937	290.18
1147.208	286.92
1150.48	286.38
1153.75	282.77
1157.021	279.03
1160.291	279.06
1163.561	275.2
1166.831	274.95
1170.101	274.03
1173.37	272.69
1176.639	272.91
1179.907	270.44
1183.176	267.82
1186.444	267.34
1189.711	266.99
1192.979	266.4
1196.246	265.41
1199.513	265.94
1202.78	265.4
1206.046	264.72
1209.312	262.32
1212.578	262.66
1215.843	264.36
1219.108	264.24
1222.373	269.09
1225.638	270.72
1228.902	274.68
1232.166	274.3
1235.43	276.58
1238.693	279.66
1241.956	280.94
1245.219	286.15
1248.482	285.64
1251.744	285.53
1255.006	286.37
1258.268	279.92
1261.529	277.68
1264.79	276.2
1268.051	274.82
1271.312	271.75
1274.572	267.65
1277.832	265.82
1281.092	260.79
1284.351	259.35
1287.61	259.97
1290.869	254.44
1294.128	253.1
1297.386	253.33
1300.644	249.55
1303.902	251.06
1307.159	250.05
1310.416	250.3
1313.673	249.52
1316.93	252.48
1320.186	252.1
1323.442	252.52
1326.697	257.53
1329.953	258.16
1333.208	259.01
1336.463	262.96
1339.717	262.45
1342.972	265.06
1346.226	267.16
1349.479	267.78
1352.733	268.7
1355.986	269.68
1359.238	269.18
1362.491	269.75
1365.743	272.56
1368.995	272.88
1372.247	270.23
1375.498	270.56
1378.749	272.4
1382	269.46
1385.251	270.64
1388.501	267.94
1391.751	269.05
1395	267.6
1398.25	265.79
1401.499	262.78
1404.748	261.48
1407.996	259.61
1411.244	257.87
1414.492	255.6
1417.74	252.4
1420.987	247.79
1424.234	248.09
1427.481	244.13
1430.728	244.18
1433.974	241.2
1437.22	239.4
1440.465	238.67
1443.711	236.64
1446.956	235.62
1450.201	232.2
1453.445	230.73
1456.689	229.97
1459.933	225.98
1463.177	224.12
1466.42	220.35
1469.663	218.18
1472.906	216.85
1476.148	211.28
1479.391	209.15
1482.633	207.08
1485.874	205.1
1489.115	203.43
1492.356	201.12
1495.597	200.71
1498.838	198.13
1502.078	196.89
1505.318	196.11
1508.557	196.02
1511.797	196.25
1515.036	194.77
1518.274	194.33
1521.513	192.29
1524.751	192.29
1527.989	192.02
1531.227	190.82
1534.464	191.53
1537.701	191.35
1540.938	190.84
1544.174	188.08
1547.41	188.13
1550.646	187.38
1553.882	187.25
1557.117	185.5
1560.352	184.31
1563.587	184.42
1566.821	183.6
1570.055	181.94
1573.289	180.14
1576.523	179.94
1579.756	179.26
1582.989	178.19
1586.222	178.08
1589.454	177.36
1592.686	178.08
1595.918	177.28
1599.15	176.09
1602.381	176.91
1605.612	176.78
1608.843	176.92
1612.073	176.85
1615.303	178.03
1618.533	178.01
1621.762	177.97
1624.992	177.7
1628.221	178.19
1631.449	177.97
1634.678	178.09
1637.906	178.62
1641.134	178.45
1644.361	178.46
1647.588	179.24
1650.815	178.35
1654.042	177.91
1657.269	179.02
1660.495	179.22
1663.72	178.73
1666.946	179.66
1670.171	180.12
1673.396	179.66
1676.621	180.06
1679.845	180.33
1683.069	180.78
1686.293	181.78
1689.517	182.79
1692.74	182.27
1695.963	182.97
1699.185	184.58
1702.408	184.6
1705.63	185.46
1708.852	185.64
1712.073	186.04
1715.294	186.52
1718.515	186.6
1721.736	186.28
1724.956	187.07
1728.176	187.28
1731.396	188.71
1734.616	187.52
1737.835	188.37
1741.054	186.57
1744.272	187.48
1747.491	188.88
1750.709	189.13
1753.927	189.17
1757.144	188.5
1760.361	188.47
1763.578	188.83
1766.795	188.34
1770.011	190.11
1773.227	189.62
1776.443	192.2
1779.658	192.27
1782.874	191.39
1786.089	192.05
1789.303	192.62
1792.518	195.61
1795.732	194.71
1798.945	196.67
1802.159	196.87
1805.372	196.89
1808.585	200.37
1811.797	200.44
1815.01	201.25
1818.222	203.24
1821.434	205.47
1824.645	205.81
1827.856	208.4
1831.067	211.22
1834.278	210.63
1837.488	211.56
1840.698	213.28
1843.908	211.52
1847.117	212.58
1850.326	214.21
1853.535	212.85
1856.744	215.13
1859.952	215.19
1863.16	213.2
1866.368	211.61
1869.575	212.75
1872.782	209.82
1875.989	208.88
1879.196	207.97
1882.402	206.65
1885.608	206.34
1888.814	206.77
1892.019	205.69
1895.224	204.62
1898.429	204.76
1901.634	205.08
1904.838	205.46
1908.042	207.62
1911.246	208.01
1914.449	208.93
1917.652	209.68
1920.855	209.36
1924.058	209.56
1927.26	208.08
1930.462	209.48
1933.664	210.29
1936.865	209.56
1940.066	209.34
1943.267	208.37
1946.467	208.7
1949.668	209.76
1952.868	211.45
1956.067	212.37
1959.267	211.78
1962.466	212.68
1965.665	211.5
1968.863	212.86
1972.061	215.64
1975.259	217.04
1978.457	218.49
1981.654	219.49
1984.852	219.95
1988.048	219.42
1991.245	221.23
1994.441	223.86
1997.637	225.67
2000.833	230.27
2004.028	232.93
2007.223	234.37
2010.418	237.53
2013.613	241.98
2016.807	245.31
2020.001	248.04
2023.194	251.48
2026.388	257.13
2029.581	262.65
2032.774	264.78
2035.966	269.05
2039.158	270.2
2042.35	274.65
2045.542	276.09
2048.733	280.37
2051.924	283.97
2055.115	288.36
2058.306	289.29
2061.496	290.82
2064.686	292.31
2067.875	297.69
2071.065	299.61
2074.254	297.28
2077.442	302.3
2080.631	303.09
2083.819	305.73
2087.007	306.4
2090.195	309.12
2093.382	312.09
2096.569	311.27
2099.756	315.02
2102.942	315.51
2106.128	317.19
2109.314	326.27
2112.5	323.95
2115.685	331.3
2118.87	331.65
2122.055	338.97
2125.239	341.57
2128.424	345.26
2131.608	347.82
2134.791	353.54
2137.974	356.12
2141.157	356.95
2144.34	356.41
2147.523	363.61
2150.705	361.57
2153.887	364.11
2157.068	363.86
2160.25	361.29
2163.431	362.88
2166.611	367.47
2169.792	373.08
2172.972	376.64
2176.152	380.63
2179.331	385.63
2182.511	390.24
2185.69	393.8
2188.868	402.86
2192.047	404.19
2195.225	415.56
2198.403	425.83
2201.58	433.81
2204.758	442.88
2207.935	450.9
2211.111	460.27
2214.288	464
2217.464	465.7
2220.64	474
2223.815	479.64
2226.991	499.38
2230.166	500.02
2233.34	508.5
2236.515	516.32
2239.689	515.84
2242.863	519.76
2246.036	532.44
2249.209	528.18
2252.382	537.83
2255.555	553.63
2258.727	556.49
2261.9	559.16
2265.071	565.45
2268.243	574.86
2271.414	582.02
2274.585	594.9
2277.756	600.3
2280.926	602.78
2284.096	620.8
2287.266	631.15
2290.436	636.03
2293.605	650.29
2296.774	670.18
2299.942	689.4
2303.111	694.35
2306.279	709.44
2309.447	718.73
2312.614	737.67
2315.781	761.31
2318.948	795.21
2322.115	784.3
2325.281	827.63
2328.447	810.64
2331.613	842.58
2334.779	834.38
2337.944	869.81
2341.109	877.17
2344.274	900.55
2347.438	933.78
2350.602	931.2
2353.766	961.1
2356.929	977.9
2360.092	970.7
2363.255	1040.5
2366.418	1037.67
2369.58	1060.7
2372.742	1125.56
2375.904	1155.64
2379.066	1150.81
2382.227	1123.88
2385.388	1220.6
2388.548	1216.68
2391.709	1230.66
2394.869	1370.7
2398.029	1313.61
2401.188	1351.8
2404.347	1342.19
2407.506	1316.47
2410.665	1354.01
2413.823	1436.37
2416.981	1522.35
2420.139	1479.63
2423.296	1459.84
2426.453	1531.13
2429.61	1468.57
2432.767	1532.42
2435.923	1517.53
2439.079	1660.99
2442.235	1686.38
2445.391	1668.28
2448.546	1653.96
2451.701	1613.98
2454.855	1605.42
2458.009	1715.34
2461.163	1772.86
2464.317	1849.05
2467.471	1896.87
2470.624	1895.03
2473.777	1846.85
2476.929	1791.96
2480.082	1742.75
2483.234	1725.9
2486.385	1810.3
2489.537	1816.29
2492.688	1876.05
2495.839	1829.92
2498.989	1785.24
2502.14	1791.32
2505.29	1811.97
2508.439	1834.11
2511.589	1840.78
2514.738	2004.91
2517.887	1960.43
2521.035	2075.74
2524.183	2085.71
2527.331	2100.72
2530.479	2088.19
2533.627	2101.49
