Data from N_3_DIV_PA_2N_Splice17_14-11-04-535.txt Node
Date: Sat Mar 07 14:11:04 EST 2020
User: sa697716
Spectrometer: NQ5500242
Trigger mode: 0
Integration Time (sec): 1.450000E-1
Scans to average: 20
Nonlinearity correction enabled: false
Boxcar width: 5
Storing dark spectrum: false
XAxis mode: Wavelengths
Number of Pixels in Spectrum: 512
>>>>>Begin Spectral Data<<<<<
187.83	114.03
188.298	136.27
188.766	126.42
189.233	102.93
189.701	114.9
190.169	134.07
190.636	174.12
191.104	291.88
191.571	489.01
192.039	531.82
192.506	603.15
192.974	41.52
193.441	138.1
193.908	141.12
194.375	72.56
194.842	71.98
195.31	71.47
195.777	-32.98
196.244	34.14
196.711	53.42
197.177	57.44
197.644	57.49
198.111	57.18
198.578	57.3
199.045	57.34
199.511	57.48
199.978	57.52
200.445	57.9
200.911	58.26
201.378	58.55
201.844	58.51
202.31	58.57
202.777	58.51
203.243	58.31
203.709	58.15
204.176	57.67
204.642	57.48
205.108	57.55
205.574	57.32
206.04	57.11
206.506	56.74
206.972	56.53
207.438	55.89
207.903	55.46
208.369	54.65
208.835	53.96
209.301	53.16
209.766	51.95
210.232	50.81
210.697	49.64
211.163	48.7
211.628	47.78
212.094	46.71
212.559	45.7
213.024	44.83
213.49	44.07
213.955	43.1
214.42	42.48
214.885	41.67
215.35	40.55
215.815	39.15
216.28	37.16
216.745	35.13
217.21	33.05
217.675	31.18
218.14	29.48
218.604	28.01
219.069	26.82
219.534	25.73
219.998	24.86
220.463	24.09
220.927	23.36
221.392	22.79
221.856	22.31
222.32	21.92
222.785	21.55
223.249	21.2
223.713	20.9
224.177	20.59
224.642	20.28
225.106	19.94
225.57	19.63
226.034	19.35
226.497	19.07
226.961	18.81
227.425	18.55
227.889	18.29
228.353	18.02
228.816	17.75
229.28	17.49
229.744	17.25
230.207	17.03
230.671	16.81
231.134	16.61
231.597	16.45
232.061	16.23
232.524	16.04
232.987	15.85
233.45	15.68
233.914	15.48
234.377	15.31
234.84	15.14
235.303	14.99
235.766	14.84
236.229	14.68
236.691	14.5
237.154	14.36
237.617	14.21
238.08	14.08
238.542	13.94
239.005	13.83
239.468	13.69
239.93	13.56
240.393	13.43
240.855	13.29
241.317	13.16
241.78	13.04
242.242	12.9
242.704	12.78
243.166	12.64
243.629	12.52
244.091	12.38
244.553	12.26
245.015	12.15
245.477	12.02
245.939	11.91
246.4	11.8
246.862	11.69
247.324	11.6
247.786	11.49
248.247	11.39
248.709	11.28
249.17	11.19
249.632	11.09
250.093	11
250.555	10.9
251.016	10.82
251.477	10.73
251.939	10.65
252.4	10.56
252.861	10.47
253.322	10.4
253.783	10.33
254.244	10.25
254.705	10.19
255.166	10.13
255.627	10.06
256.088	9.99
256.549	9.93
257.009	9.86
257.47	9.8
257.931	9.73
258.391	9.66
258.852	9.59
259.312	9.53
259.773	9.47
260.233	9.41
260.694	9.35
261.154	9.28
261.614	9.22
262.074	9.16
262.534	9.1
262.994	9.05
263.455	9.01
263.915	8.97
264.374	8.91
264.834	8.87
265.294	8.82
265.754	8.78
266.214	8.75
266.673	8.71
267.133	8.68
267.593	8.65
268.052	8.62
268.512	8.59
268.971	8.55
269.431	8.53
269.89	8.5
270.349	8.47
270.809	8.43
271.268	8.4
271.727	8.37
272.186	8.34
272.645	8.32
273.104	8.28
273.563	8.25
274.022	8.22
274.481	8.19
274.94	8.15
275.399	8.12
275.857	8.1
276.316	8.07
276.775	8.04
277.233	8.01
277.692	7.98
278.15	7.95
278.609	7.92
279.067	7.9
279.525	7.87
279.984	7.84
280.442	7.82
280.9	7.79
281.358	7.77
281.816	7.74
282.274	7.72
282.732	7.7
283.19	7.66
283.648	7.64
284.106	7.61
284.564	7.59
285.021	7.57
285.479	7.55
285.937	7.53
286.394	7.5
286.852	7.47
287.309	7.45
287.767	7.43
288.224	7.41
288.682	7.38
289.139	7.35
289.596	7.31
290.053	7.27
290.511	7.23
290.968	7.2
291.425	7.16
291.882	7.13
292.339	7.1
292.796	7.07
293.252	7.04
293.709	7.01
294.166	6.99
294.623	6.96
295.079	6.93
295.536	6.91
295.992	6.89
296.449	6.86
296.905	6.84
297.362	6.81
297.818	6.78
298.274	6.76
298.731	6.73
299.187	6.7
299.643	6.67
300.099	6.66
300.555	6.63
301.011	6.61
301.467	6.58
301.923	6.56
302.379	6.53
302.835	6.51
303.291	6.5
303.746	6.48
304.202	6.47
304.658	6.46
305.113	6.43
305.569	6.42
306.024	6.4
306.479	6.4
306.935	6.38
307.39	6.38
307.845	6.36
308.301	6.34
308.756	6.32
309.211	6.31
309.666	6.3
310.121	6.28
310.576	6.27
311.031	6.27
311.486	6.25
311.94	6.24
312.395	6.23
312.85	6.22
313.305	6.21
313.759	6.2
314.214	6.19
314.668	6.17
315.123	6.16
315.577	6.15
316.032	6.13
316.486	6.11
316.94	6.1
317.394	6.08
317.849	6.05
318.303	6.03
318.757	6.01
319.211	5.99
319.665	5.96
320.119	5.94
320.572	5.91
321.026	5.89
321.48	5.87
321.934	5.85
322.387	5.83
322.841	5.81
323.295	5.8
323.748	5.77
324.202	5.75
324.655	5.74
325.108	5.73
325.562	5.72
326.015	5.71
326.468	5.7
326.921	5.68
327.374	5.66
327.827	5.64
328.28	5.63
328.733	5.62
329.186	5.62
329.639	5.62
330.092	5.61
330.545	5.61
330.997	5.59
331.45	5.58
331.903	5.58
332.355	5.58
332.808	5.58
333.26	5.58
333.713	5.58
334.165	5.57
334.617	5.56
335.069	5.54
335.522	5.54
335.974	5.55
336.426	5.54
336.878	5.54
337.33	5.52
337.782	5.52
338.234	5.51
338.686	5.5
339.137	5.5
339.589	5.49
340.041	5.49
340.493	5.48
340.944	5.45
341.396	5.43
341.847	5.4
342.299	5.38
342.75	5.36
343.201	5.34
343.653	5.32
344.104	5.29
344.555	5.27
345.006	5.23
345.457	5.2
345.908	5.18
346.359	5.17
346.81	5.16
347.261	5.14
347.712	5.13
348.163	5.11
348.613	5.1
349.064	5.09
349.515	5.09
349.965	5.08
350.416	5.07
350.866	5.06
351.317	5.05
351.767	5.04
352.217	5.03
352.668	5.02
353.118	5.02
353.568	5.01
354.018	5
354.468	5
354.918	5
355.368	5.01
355.818	5
356.268	4.99
356.718	4.99
357.168	4.98
357.617	4.98
358.067	4.97
358.517	4.98
358.966	4.97
359.416	4.96
359.865	4.95
360.315	4.94
360.764	4.94
361.213	4.92
361.663	4.92
362.112	4.91
362.561	4.91
363.01	4.9
363.459	4.88
363.908	4.87
364.357	4.86
364.806	4.86
365.255	4.85
365.703	4.85
366.152	4.85
366.601	4.85
367.05	4.85
367.498	4.84
367.947	4.85
368.395	4.84
368.844	4.84
369.292	4.84
369.74	4.84
370.189	4.83
370.637	4.82
371.085	4.81
371.533	4.79
371.981	4.79
372.429	4.78
372.877	4.77
373.325	4.76
373.773	4.75
374.221	4.74
374.669	4.72
375.116	4.7
375.564	4.69
376.012	4.69
376.459	4.69
376.907	4.68
377.354	4.68
377.801	4.67
378.249	4.67
378.696	4.66
379.143	4.66
379.591	4.66
380.038	4.65
380.485	4.65
380.932	4.64
381.379	4.63
381.826	4.63
382.273	4.62
382.72	4.6
383.166	4.6
383.613	4.59
384.06	4.57
384.506	4.56
384.953	4.56
385.4	4.56
385.846	4.56
386.292	4.56
386.739	4.55
387.185	4.55
387.631	4.57
388.078	4.56
388.524	4.56
388.97	4.57
389.416	4.58
389.862	4.58
390.308	4.59
390.754	4.58
391.2	4.59
391.645	4.6
392.091	4.62
392.537	4.63
392.983	4.64
393.428	4.65
393.874	4.66
394.319	4.67
394.765	4.67
395.21	4.67
395.655	4.68
396.101	4.69
396.546	4.7
396.991	4.71
397.436	4.71
397.881	4.73
398.326	4.75
398.771	4.76
399.216	4.79
399.661	4.82
400.106	4.85
400.551	4.87
400.995	4.87
401.44	4.88
401.885	4.9
402.329	4.92
402.774	4.93
403.218	4.95
403.663	4.97
404.107	4.99
404.551	5
404.995	5.01
405.44	5.02
405.884	5.04
406.328	5.07
406.772	5.08
407.216	5.1
407.66	5.11
408.104	5.12
408.547	5.13
408.991	5.14
409.435	5.15
409.879	5.17
410.322	5.19
410.766	5.22
411.209	5.24
411.653	5.26
412.096	5.28
412.54	5.3
412.983	5.32
413.426	5.35
413.869	5.37
414.312	5.4
414.756	5.44
415.199	5.46
415.642	5.47
416.085	5.49
416.527	5.51
416.97	5.52
417.413	5.53
417.856	5.53
418.298	5.52
418.741	5.54
419.184	5.54
419.626	5.54
420.069	5.55
420.511	5.55
420.953	5.55
421.396	5.56
421.838	5.56
422.28	5.58
422.722	5.61
423.164	5.62
423.606	5.63
424.048	5.64
424.49	5.66
424.932	5.67
425.374	5.68
425.816	5.66
426.258	5.65
426.699	5.64
427.141	5.62
427.582	5.62
428.024	5.63
428.465	5.63
428.907	5.62
429.348	5.6
429.789	5.58
430.231	5.59
430.672	5.63
431.113	5.65
431.554	5.66
431.995	5.69
432.436	5.69
432.877	5.7
433.318	5.72
433.759	5.75
434.2	5.78
434.64	5.8
435.081	5.82
435.522	5.83
435.962	5.85
436.403	5.9
436.843	5.92
437.284	5.93
437.724	5.94
438.164	5.94
438.604	5.94
439.045	5.96
439.485	5.96
439.925	5.97
440.365	5.97
440.805	5.96
441.245	5.96
441.685	5.98
442.125	6
442.564	6.02
443.004	6.03
443.444	6.05
443.883	6.05
444.323	6.05
444.762	6.06
445.202	6.07
445.641	6.11
446.081	6.12
446.52	6.11
446.959	6.15
447.398	6.16
447.837	6.19
448.276	6.19
448.716	6.21
449.154	6.25
449.593	6.27
450.032	6.27
450.471	6.26
450.91	6.25
451.349	6.27
451.787	6.24
452.226	6.24
452.664	6.23
453.103	6.22
453.541	6.21
453.98	6.2
454.418	6.18
454.856	6.17
455.295	6.16
455.733	6.14
456.171	6.12
456.609	6.11
457.047	6.09
457.485	6.06
457.923	6.06
458.361	6.03
458.798	6.02
459.236	6.02
459.674	6.01
460.111	6
460.549	6
460.987	6
461.424	6
461.862	6
462.299	6.02
462.736	6
463.173	6.01
463.611	6.01
464.048	6.01
464.485	6.01
464.922	6.02
465.359	6.03
465.796	6.02
466.233	6.02
466.67	6.02
467.106	6.01
467.543	6.01
467.98	6
468.416	6.01
468.853	6
469.29	5.99
469.726	5.99
470.162	5.98
470.599	5.97
471.035	5.95
471.471	5.95
471.907	5.94
472.344	5.94
472.78	5.95
473.216	5.92
473.652	5.93
474.088	5.91
474.523	5.9
474.959	5.89
475.395	5.87
475.831	5.87
476.266	5.87
476.702	5.86
477.138	5.85
477.573	5.84
478.008	5.85
478.444	5.83
478.879	5.83
479.314	5.82
479.75	5.82
480.185	5.82
480.62	5.82
481.055	5.8
481.49	5.8
481.925	5.79
482.36	5.79
482.795	5.78
483.229	5.77
483.664	5.78
484.099	5.78
484.534	5.77
484.968	5.78
485.403	5.78
485.837	5.79
486.271	5.79
486.706	5.8
487.14	5.81
487.574	5.82
488.009	5.83
488.443	5.83
488.877	5.86
489.311	5.88
489.745	5.9
490.179	5.92
490.613	5.94
491.046	5.96
491.48	5.99
491.914	6.02
492.348	6.05
492.781	6.08
493.215	6.13
493.648	6.16
494.082	6.21
494.515	6.25
494.948	6.31
495.382	6.36
495.815	6.43
496.248	6.49
496.681	6.56
497.114	6.63
497.547	6.69
497.98	6.76
498.413	6.83
498.846	6.91
499.279	6.99
499.711	7.06
500.144	7.15
500.577	7.23
501.009	7.32
501.442	7.42
501.874	7.53
502.306	7.64
502.739	7.76
503.171	7.88
503.603	8
504.036	8.13
504.468	8.27
504.9	8.41
505.332	8.55
505.764	8.7
506.196	8.86
506.627	9.02
507.059	9.19
507.491	9.35
507.923	9.53
508.354	9.72
508.786	9.92
509.217	10.12
509.649	10.32
510.08	10.52
510.512	10.73
510.943	10.94
511.374	11.15
511.805	11.39
512.237	11.61
512.668	11.84
513.099	12.07
513.53	12.3
513.961	12.54
514.391	12.79
514.822	13.03
515.253	13.29
515.684	13.53
516.114	13.78
516.545	14.02
516.975	14.28
517.406	14.53
517.836	14.78
518.267	15.05
518.697	15.28
519.127	15.52
519.558	15.77
519.988	16.01
520.418	16.25
520.848	16.48
521.278	16.72
521.708	16.98
522.138	17.2
522.567	17.42
522.997	17.63
523.427	17.86
523.857	18.08
524.286	18.29
524.716	18.49
525.145	18.68
525.575	18.88
526.004	19.05
526.433	19.2
526.863	19.38
527.292	19.54
527.721	19.7
528.15	19.84
528.579	19.97
529.008	20.1
529.437	20.23
529.866	20.34
530.295	20.48
530.724	20.59
531.152	20.71
531.581	20.81
532.01	20.91
532.438	21
532.867	21.09
533.295	21.17
533.723	21.25
534.152	21.32
534.58	21.41
535.008	21.44
535.436	21.48
535.865	21.52
536.293	21.56
536.721	21.6
537.149	21.65
537.576	21.68
538.004	21.71
538.432	21.75
538.86	21.78
539.287	21.79
539.715	21.84
540.143	21.88
540.57	21.92
540.998	21.93
541.425	21.95
541.852	21.96
542.28	22
542.707	22.03
543.134	22.04
543.561	22.07
543.988	22.08
544.415	22.1
544.842	22.12
545.269	22.15
545.696	22.18
546.123	22.21
546.549	22.24
546.976	22.26
547.403	22.28
547.829	22.31
548.256	22.32
548.682	22.35
549.108	22.38
549.535	22.39
549.961	22.39
550.387	22.41
550.813	22.43
551.24	22.43
551.666	22.42
552.092	22.42
552.518	22.42
552.943	22.4
553.369	22.4
553.795	22.38
554.221	22.36
554.646	22.33
555.072	22.28
555.498	22.24
555.923	22.21
556.349	22.17
556.774	22.12
557.199	22.06
557.625	22.01
558.05	21.95
558.475	21.89
558.9	21.83
559.325	21.78
559.75	21.72
560.175	21.65
560.6	21.56
561.025	21.49
561.449	21.41
561.874	21.33
562.299	21.23
562.723	21.12
563.148	21.01
563.572	20.9
563.997	20.77
564.421	20.64
564.846	20.51
565.27	20.39
565.694	20.26
566.118	20.12
566.542	19.99
566.966	19.84
567.39	19.7
567.814	19.54
568.238	19.39
568.662	19.25
569.086	19.12
569.509	18.98
569.933	18.85
570.357	18.7
570.78	18.56
571.204	18.41
571.627	18.29
572.05	18.18
572.474	18.08
572.897	17.99
573.32	17.87
573.743	17.76
574.166	17.63
574.589	17.52
575.012	17.42
575.435	17.32
575.858	17.24
576.281	17.14
576.704	17.03
577.126	16.93
577.549	16.84
577.972	16.76
578.394	16.67
578.817	16.6
579.239	16.52
579.661	16.45
580.084	16.37
580.506	16.3
580.928	16.23
581.35	16.16
581.772	16.09
582.194	16.02
582.616	15.97
583.038	15.91
583.46	15.84
583.882	15.77
584.303	15.71
584.725	15.66
585.147	15.59
585.568	15.53
585.99	15.48
586.411	15.42
586.833	15.35
587.254	15.29
587.675	15.23
588.096	15.19
588.518	15.14
588.939	15.1
589.36	15.05
589.781	15.03
590.202	15
590.623	14.97
591.043	14.94
591.464	14.91
591.885	14.87
592.305	14.84
592.726	14.83
593.147	14.79
593.567	14.77
593.987	14.74
594.408	14.7
594.828	14.67
595.248	14.65
595.669	14.61
596.089	14.58
596.509	14.56
596.929	14.53
597.349	14.48
597.769	14.46
598.189	14.42
598.608	14.38
599.028	14.34
599.448	14.31
599.867	14.26
600.287	14.23
600.706	14.19
601.126	14.15
601.545	14.11
601.965	14.07
602.384	14.02
602.803	13.97
603.222	13.92
603.641	13.87
604.061	13.81
604.48	13.75
604.898	13.7
605.317	13.64
605.736	13.58
606.155	13.52
606.574	13.45
606.992	13.4
607.411	13.34
607.829	13.25
608.248	13.17
608.666	13.11
609.085	13.05
609.503	12.98
609.921	12.91
610.339	12.84
610.758	12.78
611.176	12.71
611.594	12.64
612.012	12.57
612.43	12.52
612.847	12.47
613.265	12.41
613.683	12.35
614.101	12.29
614.518	12.23
614.936	12.18
615.353	12.1
615.771	12.05
616.188	11.99
616.606	11.94
617.023	11.89
617.44	11.84
617.857	11.79
618.274	11.73
618.691	11.67
619.108	11.63
619.525	11.58
619.942	11.55
620.359	11.51
620.776	11.48
621.192	11.45
621.609	11.42
622.026	11.39
622.442	11.37
622.859	11.35
623.275	11.33
623.691	11.32
624.108	11.3
624.524	11.29
624.94	11.28
625.356	11.26
625.772	11.25
626.188	11.23
626.604	11.23
627.02	11.21
627.436	11.2
627.852	11.19
628.268	11.18
628.683	11.16
629.099	11.15
629.514	11.13
629.93	11.12
630.345	11.1
630.761	11.07
631.176	11.05
631.591	11.02
632.007	10.98
632.422	10.92
632.837	10.87
633.252	10.81
633.667	10.76
634.082	10.69
634.497	10.63
634.911	10.55
635.326	10.49
635.741	10.41
636.155	10.32
636.57	10.24
636.984	10.16
637.399	10.06
637.813	9.97
638.228	9.87
638.642	9.77
639.056	9.67
639.47	9.56
639.884	9.45
640.298	9.33
640.712	9.23
641.126	9.12
641.54	9.02
641.954	8.92
642.368	8.82
642.781	8.72
643.195	8.62
643.609	8.52
644.022	8.44
644.436	8.36
644.849	8.28
645.262	8.2
645.676	8.13
646.089	8.06
646.502	7.99
646.915	7.93
647.328	7.86
647.741	7.81
648.154	7.77
648.567	7.72
648.98	7.67
649.393	7.64
649.805	7.61
650.218	7.58
650.631	7.55
651.043	7.52
651.456	7.5
651.868	7.47
652.28	7.44
652.693	7.41
653.105	7.38
653.517	7.34
653.929	7.3
654.341	7.26
654.753	7.2
655.165	7.15
655.577	7.09
655.989	7.04
656.401	6.98
656.813	6.92
657.224	6.86
657.636	6.79
658.047	6.74
658.459	6.66
658.87	6.59
659.282	6.52
659.693	6.46
660.104	6.39
660.515	6.32
660.926	6.26
661.338	6.18
661.749	6.12
662.159	6.06
662.57	6.01
662.981	5.96
663.392	5.91
663.803	5.86
664.213	5.81
664.624	5.77
665.035	5.72
665.445	5.69
665.855	5.65
666.266	5.62
666.676	5.61
667.086	5.57
667.497	5.55
667.907	5.54
668.317	5.54
668.727	5.52
669.137	5.52
669.547	5.51
669.956	5.51
670.366	5.51
670.776	5.5
671.186	5.5
671.595	5.5
672.005	5.5
672.414	5.49
672.824	5.5
673.233	5.51
673.642	5.52
674.052	5.53
674.461	5.54
674.87	5.55
675.279	5.59
675.688	5.62
676.097	5.64
676.506	5.68
676.915	5.71
677.323	5.75
677.732	5.77
678.141	5.82
678.549	5.86
678.958	5.9
679.366	5.96
679.775	6.01
680.183	6.05
680.592	6.12
681	6.19
681.408	6.26
681.816	6.35
682.224	6.45
682.632	6.55
683.04	6.65
683.448	6.78
683.856	6.91
684.264	7.06
684.671	7.24
685.079	7.42
685.487	7.62
685.894	7.85
686.302	8.09
686.709	8.36
687.116	8.65
687.524	8.97
687.931	9.3
688.338	9.66
688.745	10.04
689.152	10.41
689.559	10.83
689.966	11.26
690.373	11.71
690.78	12.18
691.187	12.64
691.593	13.13
692	13.62
692.407	14.1
692.813	14.59
693.22	15.1
693.626	15.63
694.032	16.14
694.439	16.66
694.845	17.16
695.251	17.67
695.657	18.18
696.063	18.69
696.469	19.19
696.875	19.71
697.281	20.21
697.687	20.71
698.093	21.19
698.498	21.67
698.904	22.14
699.31	22.61
699.715	23.08
700.12	23.54
700.526	24
700.931	24.44
701.337	24.88
701.742	25.3
702.147	25.71
702.552	26.13
702.957	26.52
703.362	26.91
703.767	27.28
704.172	27.65
704.577	28
704.981	28.35
705.386	28.71
705.791	29.05
706.195	29.41
706.6	29.74
707.004	30.05
707.408	30.38
707.813	30.71
708.217	31.04
708.621	31.36
709.025	31.65
709.43	31.95
709.834	32.25
710.237	32.52
710.641	32.8
711.045	33.06
711.449	33.35
711.853	33.62
712.256	33.84
712.66	34.09
713.064	34.33
713.467	34.58
713.87	34.83
714.274	35.06
714.677	35.3
715.08	35.5
715.484	35.73
715.887	35.95
716.29	36.16
716.693	36.39
717.096	36.59
717.499	36.8
717.901	37.03
718.304	37.22
718.707	37.4
719.109	37.6
719.512	37.81
719.915	38.01
720.317	38.19
720.719	38.34
721.122	38.52
721.524	38.68
721.926	38.84
722.328	38.98
722.731	39.14
723.133	39.3
723.535	39.43
723.937	39.56
724.338	39.69
724.74	39.82
725.142	39.99
725.544	40.09
725.945	40.23
726.347	40.35
726.748	40.45
727.15	40.52
727.551	40.65
727.952	40.75
728.354	40.87
728.755	40.95
729.156	41.02
729.557	41.08
729.958	41.18
730.359	41.24
730.76	41.31
731.161	41.4
731.562	41.52
731.962	41.53
732.363	41.6
732.763	41.66
733.164	41.73
733.564	41.78
733.965	41.85
734.365	41.92
734.766	41.97
735.166	42.02
735.566	42.05
735.966	42.11
736.366	42.2
736.766	42.23
737.166	42.27
737.566	42.3
737.966	42.33
738.365	42.38
738.765	42.42
739.165	42.46
739.564	42.5
739.964	42.53
740.363	42.53
740.763	42.53
741.162	42.56
741.561	42.57
741.96	42.61
742.36	42.66
742.759	42.68
743.158	42.68
743.557	42.7
743.955	42.69
744.354	42.72
744.753	42.76
745.152	42.8
745.55	42.83
745.949	42.85
746.348	42.88
746.746	42.9
747.144	42.91
747.543	42.93
747.941	42.96
748.339	42.97
748.737	42.99
749.136	42.99
749.534	42.99
749.932	42.99
750.33	43
750.727	42.99
751.125	43
751.523	43.01
751.921	43.04
752.318	43.03
752.716	43.05
753.113	43.04
753.511	43.04
753.908	43.06
754.305	43.05
754.703	43.03
755.1	43.04
755.497	43.02
755.894	43
756.291	42.99
756.688	42.98
757.085	42.98
757.482	42.97
757.878	42.96
758.275	42.95
758.672	42.97
759.068	43
759.465	42.99
759.861	42.99
760.258	43
760.654	43
761.05	43.01
761.447	43.02
761.843	43.01
762.239	43.02
762.635	43
763.031	43
763.427	42.98
763.822	42.99
764.218	42.99
764.614	42.99
765.01	42.99
765.405	43
765.801	42.99
766.196	43
766.592	43
766.987	43.02
767.382	43.03
767.778	43.03
768.173	43.03
768.568	43.04
768.963	43.02
769.358	43.03
769.753	43
770.148	42.98
770.542	42.98
770.937	43
771.332	43
771.726	42.99
772.121	42.98
772.515	42.98
772.91	42.94
773.304	42.97
773.699	42.94
774.093	42.96
774.487	42.96
774.881	42.96
775.275	42.93
775.669	42.91
776.063	42.88
776.457	42.89
776.851	42.85
777.245	42.85
777.638	42.83
778.032	42.87
778.425	42.87
778.819	42.88
779.212	42.87
779.606	42.89
779.999	42.88
780.392	42.92
780.786	42.92
781.179	42.94
781.572	42.97
781.965	42.99
782.358	42.97
782.751	43
783.143	42.99
783.536	42.98
783.929	42.96
784.322	43
784.714	43.03
785.107	43.05
785.499	43.06
785.891	43.06
786.284	43.07
786.676	43.08
787.068	43.04
787.46	43.06
787.852	43.09
788.245	43.13
788.636	43.13
789.028	43.13
789.42	43.12
789.812	43.15
790.204	43.17
790.595	43.17
790.987	43.2
791.378	43.25
791.77	43.26
792.161	43.26
792.553	43.25
792.944	43.26
793.335	43.25
793.726	43.25
794.117	43.24
794.508	43.22
794.899	43.25
795.29	43.25
795.681	43.21
796.072	43.2
796.463	43.21
796.853	43.21
797.244	43.21
797.634	43.23
798.025	43.25
798.415	43.25
798.806	43.27
799.196	43.26
799.586	43.28
799.976	43.33
800.366	43.38
800.756	43.38
801.146	43.4
801.536	43.43
801.926	43.44
802.316	43.44
802.706	43.48
803.095	43.49
803.485	43.47
803.874	43.46
804.264	43.47
804.653	43.46
805.043	43.48
805.432	43.48
805.821	43.47
806.21	43.48
806.599	43.5
806.988	43.51
807.377	43.52
807.766	43.56
808.155	43.55
808.544	43.54
808.933	43.56
809.321	43.55
809.71	43.56
810.098	43.58
810.487	43.57
810.875	43.57
811.264	43.58
811.652	43.61
812.04	43.61
812.428	43.65
812.816	43.64
813.204	43.63
813.592	43.64
813.98	43.66
814.368	43.67
814.756	43.68
815.144	43.67
815.531	43.66
815.919	43.64
816.306	43.62
816.694	43.62
817.081	43.66
817.469	43.67
817.856	43.67
818.243	43.65
818.63	43.63
819.017	43.65
819.404	43.63
819.791	43.6
820.178	43.61
820.565	43.6
820.952	43.57
821.339	43.54
821.725	43.53
822.112	43.54
822.498	43.56
822.885	43.6
823.271	43.58
823.657	43.57
824.044	43.59
824.43	43.6
824.816	43.62
825.202	43.64
825.588	43.64
825.974	43.63
826.36	43.62
826.746	43.6
827.132	43.57
827.517	43.58
827.903	43.6
828.289	43.59
828.674	43.56
829.06	43.55
829.445	43.53
829.83	43.53
830.216	43.5
830.601	43.49
830.986	43.49
831.371	43.49
831.756	43.5
832.141	43.49
832.526	43.5
832.911	43.49
833.295	43.51
833.68	43.5
834.065	43.48
834.449	43.49
834.834	43.48
835.218	43.48
835.603	43.47
835.987	43.45
836.371	43.44
836.755	43.42
837.139	43.39
837.524	43.38
837.908	43.39
838.291	43.4
838.675	43.39
839.059	43.37
839.443	43.33
839.827	43.31
840.21	43.31
840.594	43.31
840.977	43.31
841.361	43.32
841.744	43.3
842.127	43.28
842.511	43.27
842.894	43.26
843.277	43.27
843.66	43.27
844.043	43.28
844.426	43.28
844.809	43.27
845.191	43.29
845.574	43.31
845.957	43.32
846.339	43.33
846.722	43.34
847.104	43.35
847.487	43.36
847.869	43.37
848.252	43.37
848.634	43.36
849.016	43.34
849.398	43.34
849.78	43.34
850.162	43.32
850.544	43.29
850.926	43.3
851.307	43.29
851.689	43.28
852.071	43.29
852.452	43.29
852.834	43.3
853.215	43.28
853.597	43.28
853.978	43.28
854.359	43.29
854.741	43.29
855.122	43.28
855.503	43.27
855.884	43.28
856.265	43.27
856.646	43.25
857.026	43.26
857.407	43.27
857.788	43.27
858.169	43.28
858.549	43.25
858.93	43.27
859.31	43.28
859.69	43.27
860.071	43.28
860.451	43.28
860.831	43.3
861.211	43.27
861.591	43.29
861.971	43.28
862.351	43.3
862.731	43.32
863.111	43.3
863.491	43.3
863.87	43.31
864.25	43.3
864.629	43.31
865.009	43.28
865.388	43.29
865.768	43.29
866.147	43.27
866.526	43.25
866.905	43.24
867.284	43.26
867.663	43.26
868.042	43.28
868.421	43.29
868.8	43.29
869.179	43.3
869.558	43.31
869.936	43.29
870.315	43.3
870.693	43.3
871.072	43.32
871.45	43.34
871.828	43.35
872.207	43.35
872.585	43.34
872.963	43.36
873.341	43.34
873.719	43.34
874.097	43.36
874.475	43.36
874.853	43.37
875.23	43.38
875.608	43.38
875.986	43.39
876.363	43.38
876.741	43.37
877.118	43.37
877.495	43.38
877.873	43.4
878.25	43.42
878.627	43.45
879.004	43.47
879.381	43.48
879.758	43.47
880.135	43.45
880.512	43.46
880.889	43.46
881.265	43.46
881.642	43.48
882.019	43.45
882.395	43.44
882.772	43.42
883.148	43.37
883.524	43.35
883.901	43.37
884.277	43.36
884.653	43.34
885.029	43.34
885.405	43.34
885.781	43.34
886.157	43.36
886.532	43.35
886.908	43.33
887.284	43.36
887.659	43.35
888.035	43.34
888.411	43.33
888.786	43.33
889.161	43.31
889.537	43.3
889.912	43.28
890.287	43.26
890.662	43.24
891.037	43.25
891.412	43.21
891.787	43.19
892.162	43.17
892.536	43.17
892.911	43.15
893.286	43.15
893.66	43.13
894.035	43.11
894.409	43.12
894.784	43.11
895.158	43.07
895.532	43.07
895.906	43.08
896.281	43.06
896.655	43.05
897.029	43.05
897.402	43.03
897.776	43.03
898.15	43.04
898.524	43.04
898.898	43.03
899.271	43.03
899.645	43.04
900.018	43.04
900.392	43.06
900.765	43.06
901.138	43.06
901.511	43.07
901.884	43.07
902.258	43.07
902.631	43.04
903.003	43.06
903.376	43.1
903.749	43.09
904.122	43.11
904.495	43.1
904.867	43.11
905.24	43.12
905.612	43.14
905.985	43.14
906.357	43.15
906.729	43.18
907.102	43.19
907.474	43.2
907.846	43.2
908.218	43.19
908.59	43.23
908.962	43.25
909.334	43.24
909.705	43.25
910.077	43.28
910.449	43.28
910.82	43.28
911.192	43.25
911.563	43.24
911.935	43.26
912.306	43.27
912.677	43.28
913.048	43.28
913.419	43.26
913.79	43.27
914.161	43.27
914.532	43.27
914.903	43.26
915.274	43.27
915.645	43.25
916.015	43.23
916.386	43.22
916.756	43.2
917.127	43.21
917.497	43.2
917.868	43.2
918.238	43.18
918.608	43.22
918.978	43.25
919.348	43.29
919.718	43.31
920.088	43.34
920.458	43.34
920.828	43.32
921.198	43.31
921.567	43.35
921.937	43.38
922.306	43.36
922.676	43.36
923.045	43.34
923.415	43.3
923.784	43.29
924.153	43.26
924.522	43.29
924.891	43.29
925.26	43.31
925.629	43.3
925.998	43.28
926.367	43.31
926.736	43.31
927.104	43.3
927.473	43.29
927.842	43.28
928.21	43.33
928.578	43.29
928.947	43.28
929.315	43.25
929.683	43.2
930.051	43.17
930.42	43.1
930.788	43.07
931.156	43.04
931.523	43.04
931.891	43.05
932.259	42.99
932.627	42.95
932.994	42.91
933.362	42.86
933.729	42.86
934.097	42.85
934.464	42.88
934.831	42.87
935.199	42.88
935.566	42.85
935.933	42.73
936.3	42.72
936.667	42.71
937.034	42.75
937.401	42.79
937.767	42.83
938.134	42.84
938.501	42.87
938.867	42.87
939.234	42.88
939.6	42.94
939.967	43.1
940.333	43.13
940.699	43.24
941.065	43.22
941.431	43.26
941.798	43.29
942.163	43.31
942.529	43.33
942.895	43.37
943.261	43.39
943.627	43.42
943.992	43.36
944.358	43.41
944.723	43.38
945.089	43.4
945.454	43.44
945.82	43.44
946.185	43.48
946.55	43.42
946.915	43.41
947.28	43.42
947.645	43.45
948.01	43.53
948.375	43.49
948.74	43.46
949.104	43.48
949.469	43.46
949.834	43.41
950.198	43.34
950.562	43.34
950.927	43.32
951.291	43.28
951.655	43.22
952.02	43.15
952.384	43.14
952.748	43.1
953.112	43.07
953.476	43.03
953.839	43
954.203	42.97
954.567	42.94
954.931	42.88
955.294	42.88
955.658	42.89
956.021	42.87
956.385	42.82
956.748	42.83
957.111	42.82
957.474	42.82
957.837	42.84
958.2	42.85
958.563	42.87
958.926	42.87
959.289	42.85
959.652	42.82
960.015	42.83
960.377	42.84
960.74	42.85
961.102	42.8
961.465	42.82
961.827	42.81
962.189	42.8
962.552	42.77
962.914	42.81
963.276	42.8
963.638	42.82
964	42.79
964.362	42.81
964.724	42.77
965.085	42.76
965.447	42.7
965.809	42.67
966.17	42.66
966.532	42.61
966.893	42.58
967.255	42.55
967.616	42.53
967.977	42.53
968.338	42.51
968.699	42.5
969.061	42.5
969.421	42.54
969.782	42.56
970.143	42.55
970.504	42.62
970.865	42.6
971.225	42.65
971.586	42.67
971.946	42.69
972.307	42.73
972.667	42.71
973.027	42.73
973.388	42.74
973.748	42.75
974.108	42.81
974.468	42.8
974.828	42.83
975.188	42.84
975.548	42.8
975.907	42.79
976.267	42.76
976.627	42.81
976.986	42.81
977.346	42.72
977.705	42.68
978.064	42.67
978.424	42.66
978.783	42.65
979.142	42.63
979.501	42.67
979.86	42.72
980.219	42.76
980.578	42.77
980.937	42.79
981.296	42.83
981.654	42.83
982.013	42.81
982.371	42.85
982.73	42.84
983.088	42.85
983.447	42.78
983.805	42.82
984.163	42.73
984.521	42.7
984.879	42.61
985.237	42.64
985.595	42.73
985.953	42.71
986.311	42.68
986.669	42.71
987.026	42.7
987.384	42.76
987.741	42.72
988.099	42.81
988.456	42.82
988.814	42.91
989.171	42.89
989.528	42.9
989.885	42.92
990.242	42.91
990.599	42.92
990.956	42.92
991.313	42.96
991.67	42.91
992.027	42.95
992.383	43.04
992.74	43.11
993.096	43.18
993.453	43.14
993.809	43.15
994.165	43.17
994.522	43.13
994.878	43.18
995.234	43.22
995.59	43.25
995.946	43.24
996.302	43.21
996.658	43.25
997.013	43.22
997.369	43.31
997.725	43.39
998.08	43.46
998.436	43.58
998.791	43.66
999.147	43.63
999.502	43.72
999.857	43.76
1000.212	43.77
1000.567	43.91
1000.922	43.86
1001.277	43.84
1001.632	43.83
1001.987	43.77
1002.342	43.72
1002.696	43.64
1003.051	43.69
1003.406	43.66
1003.76	43.61
1004.114	43.63
1004.469	43.52
1004.823	43.77
1005.177	43.76
1005.531	43.78
1005.885	43.85
1006.239	43.91
1006.593	44.07
1006.947	44.16
1007.301	44.12
1007.655	44.24
1008.008	44.3
1008.362	44.35
1008.715	44.26
1009.069	44.42
1009.422	44.44
1009.776	44.46
1010.129	44.5
1010.482	44.41
1010.835	44.35
1011.188	44.48
1011.541	44.53
1011.894	44.66
1012.247	44.63
1012.6	44.77
1012.952	44.75
1013.305	44.95
1013.657	45.08
1014.01	45.15
1014.362	45.24
1014.715	45.2
1015.067	45.24
1015.419	45.35
1015.771	45.05
1016.123	45.23
1016.475	45.22
1016.827	45.34
1017.179	45.22
1017.531	45.23
1017.883	45.41
1018.234	45.57
1018.586	45.77
1018.938	45.91
1019.289	45.82
1019.64	46.16
1019.992	46.12
1020.343	46.15
1020.694	46.04
1021.045	46.15
1021.396	46.3
1021.747	46.34
1022.098	46.61
1022.449	46.51
1022.8	46.49
1023.151	46.61
1023.501	46.75
1023.852	46.89
1024.202	46.94
1024.553	47.07
1024.903	47.16
1025.253	47.24
1025.604	47.24
1025.954	46.79
1026.304	47.13
1026.654	47.32
1027.004	47.26
1027.354	47.18
1027.703	46.82
1028.053	46.86
1028.403	47.09
1028.753	46.86
1029.102	47
1029.452	47.15
1029.801	47.57
1030.15	47.52
1030.499	47.29
897.758	1034.99
901.051	1044.58
904.343	1042.49
907.636	1058.36
910.928	1031.66
914.22	1028.43
917.511	1008.73
920.803	973.15
924.094	969.01
927.384	945.65
930.675	909.22
933.965	904.02
937.255	850.34
940.544	816.58
943.834	777.85
947.123	770.32
950.411	727.31
953.7	714.86
956.988	674.1
960.276	646.59
963.563	636.3
966.851	613.09
970.138	607.81
973.424	588.67
976.711	591.85
979.997	563.5
983.283	560.9
986.568	549.27
989.853	532.59
993.138	523.45
996.423	504.3
999.708	491.12
1002.992	485.46
1006.275	464.68
1009.559	461.05
1012.842	444.75
1016.125	433.61
1019.408	424.13
1022.69	420.25
1025.972	411.43
1029.254	401.91
1032.536	395.17
1035.817	387.33
1039.098	382.27
1042.379	373.86
1045.659	369.07
1048.939	359.76
1052.219	353.76
1055.498	349.47
1058.778	340.09
1062.057	333.42
1065.335	329.63
1068.614	326.22
1071.892	322.47
1075.17	313.78
1078.447	308.73
1081.724	305.68
1085.001	303.09
1088.278	297.39
1091.554	291.24
1094.83	292.03
1098.106	288.94
1101.382	286.33
1104.657	283.96
1107.932	278.96
1111.206	279.87
1114.481	273.16
1117.755	271.11
1121.029	269.35
1124.302	267.29
1127.575	263.52
1130.848	260.01
1134.121	257.83
1137.393	256.85
1140.665	251.75
1143.937	249.62
1147.208	248.32
1150.48	247.33
1153.75	243.48
1157.021	240.68
1160.291	241.32
1163.561	237.93
1166.831	237.6
1170.101	235.64
1173.37	235.74
1176.639	236.11
1179.907	234.48
1183.176	231.24
1186.444	231.06
1189.711	231.89
1192.979	230.43
1196.246	228.72
1199.513	229.68
1202.78	228.86
1206.046	228.73
1209.312	225.31
1212.578	225.66
1215.843	227.61
1219.108	226.35
1222.373	230.69
1225.638	231.68
1228.902	235.21
1232.166	235.45
1235.43	237.14
1238.693	240.35
1241.956	242.07
1245.219	246.2
1248.482	246.63
1251.744	246.24
1255.006	249
1258.268	242.55
1261.529	240.68
1264.79	239.31
1268.051	238.23
1271.312	235.58
1274.572	232.43
1277.832	230.42
1281.092	226.96
1284.351	225.13
1287.61	225.47
1290.869	220.32
1294.128	219.86
1297.386	219.96
1300.644	217.2
1303.902	217.94
1307.159	217.62
1310.416	217.27
1313.673	216.5
1316.93	218.52
1320.186	218.33
1323.442	218.02
1326.697	222.27
1329.953	223.05
1333.208	223.59
1336.463	226.85
1339.717	226.98
1342.972	229.57
1346.226	231.14
1349.479	231.98
1352.733	233.41
1355.986	234.82
1359.238	235.57
1362.491	235.88
1365.743	237.64
1368.995	238.03
1372.247	236.01
1375.498	236.17
1378.749	236.28
1382	234.53
1385.251	235.73
1388.501	233.15
1391.751	233.29
1395	232.47
1398.25	230.71
1401.499	229.17
1404.748	228.32
1407.996	227.73
1411.244	226.86
1414.492	225.75
1417.74	223.14
1420.987	219.3
1424.234	220.05
1427.481	216.92
1430.728	217.06
1433.974	214.96
1437.22	213.06
1440.465	212.86
1443.711	210.43
1446.956	209.63
1450.201	206.9
1453.445	205.4
1456.689	204.63
1459.933	200.82
1463.177	199.51
1466.42	196.09
1469.663	194.43
1472.906	193.35
1476.148	188.48
1479.391	186.2
1482.633	184.13
1485.874	181.82
1489.115	180.67
1492.356	178.58
1495.597	178.65
1498.838	175.68
1502.078	174.81
1505.318	174.28
1508.557	174.25
1511.797	173.72
1515.036	172.89
1518.274	171.93
1521.513	170.84
1524.751	170.25
1527.989	170.38
1531.227	169.04
1534.464	169.81
1537.701	169.01
1540.938	168.28
1544.174	165.82
1547.41	166.12
1550.646	165.26
1553.882	165.15
1557.117	163.56
1560.352	162.69
1563.587	162.1
1566.821	161.36
1570.055	160.5
1573.289	159.02
1576.523	158.86
1579.756	157.92
1582.989	156.7
1586.222	156.8
1589.454	156.72
1592.686	157.13
1595.918	156.67
1599.15	156.03
1602.381	156.17
1605.612	155.62
1608.843	155.77
1612.073	155.61
1615.303	156.53
1618.533	156.65
1621.762	156.7
1624.992	156.62
1628.221	156.49
1631.449	156.45
1634.678	156.33
1637.906	157.27
1641.134	157.03
1644.361	156.91
1647.588	157.37
1650.815	157.17
1654.042	156.18
1657.269	156.95
1660.495	156.57
1663.72	156.55
1666.946	157.1
1670.171	157.41
1673.396	156.83
1676.621	156.92
1679.845	157.54
1683.069	157.57
1686.293	158.23
1689.517	159.34
1692.74	158.95
1695.963	159.98
1699.185	161.09
1702.408	161.06
1705.63	161.7
1708.852	161.89
1712.073	162.61
1715.294	162.55
1718.515	163.82
1721.736	163.47
1724.956	164.14
1728.176	164.06
1731.396	164.67
1734.616	163.86
1737.835	164.72
1741.054	163.81
1744.272	164.62
1747.491	165.67
1750.709	166.22
1753.927	165.67
1757.144	165.31
1760.361	165.64
1763.578	166.44
1766.795	165.87
1770.011	168.25
1773.227	167.48
1776.443	169.32
1779.658	169.89
1782.874	169.4
1786.089	169.46
1789.303	170.01
1792.518	173.07
1795.732	172.72
1798.945	173.35
1802.159	173.8
1805.372	173.13
1808.585	176.46
1811.797	176.8
1815.01	176.92
1818.222	178.58
1821.434	181.17
1824.645	181.32
1827.856	183.12
1831.067	184.99
1834.278	185.16
1837.488	186.5
1840.698	187.89
1843.908	186.38
1847.117	187.39
1850.326	189.07
1853.535	188.08
1856.744	189.9
1859.952	189.75
1863.16	188.52
1866.368	186.84
1869.575	188.11
1872.782	185.29
1875.989	185.12
1879.196	184.11
1882.402	182.4
1885.608	182.21
1888.814	182.31
1892.019	181.1
1895.224	180.6
1898.429	180.13
1901.634	180.43
1904.838	180.85
1908.042	182.69
1911.246	182.38
1914.449	183.43
1917.652	183.05
1920.855	183.74
1924.058	183.05
1927.26	182.28
1930.462	182.73
1933.664	184.13
1936.865	183.51
1940.066	182.66
1943.267	181.5
1946.467	182.12
1949.668	182.55
1952.868	185.44
1956.067	184.93
1959.267	185.55
1962.466	186.06
1965.665	185.21
1968.863	186.36
1972.061	188.94
1975.259	191.35
1978.457	193.39
1981.654	194.21
1984.852	195.15
1988.048	194.64
1991.245	196.46
1994.441	198.96
1997.637	200.25
2000.833	205.55
2004.028	206.95
2007.223	207.72
2010.418	209.86
2013.613	213.6
2016.807	216.15
2020.001	218.63
2023.194	221.96
2026.388	227.14
2029.581	232.35
2032.774	234.78
2035.966	237.83
2039.158	239.28
2042.35	244.64
2045.542	244.94
2048.733	247.81
2051.924	251.87
2055.115	255.59
2058.306	256.45
2061.496	257.48
2064.686	257.97
2067.875	262.08
2071.065	264.33
2074.254	261.88
2077.442	265.67
2080.631	267.78
2083.819	270.46
2087.007	270.53
2090.195	272.7
2093.382	275.52
2096.569	275
2099.756	278.37
2102.942	279.49
2106.128	280.27
2109.314	288.91
2112.5	286.97
2115.685	292.52
2118.87	292.77
2122.055	298.15
2125.239	300.31
2128.424	303.35
2131.608	306.06
2134.791	310.3
2137.974	311.34
2141.157	311.97
2144.34	311.23
2147.523	317.11
2150.705	315.01
2153.887	319.48
2157.068	319.76
2160.25	317.69
2163.431	318.63
2166.611	321.82
2169.792	328.06
2172.972	332
2176.152	335.69
2179.331	339.36
2182.511	343.82
2185.69	347.82
2188.868	353.88
2192.047	354.59
2195.225	365.52
2198.403	376.28
2201.58	382.12
2204.758	387.99
2207.935	395.01
2211.111	403.97
2214.288	408.06
2217.464	408.96
2220.64	414.85
2223.815	419.21
2226.991	436.63
2230.166	436.63
2233.34	441.28
2236.515	450.19
2239.689	451.94
2242.863	455.09
2246.036	464.74
2249.209	459.96
2252.382	469.58
2255.555	482.17
2258.727	485
2261.9	488.29
2265.071	492.57
2268.243	502.06
2271.414	507.19
2274.585	517.16
2277.756	521.38
2280.926	523.76
2284.096	539.87
2287.266	550.52
2290.436	556.03
2293.605	566.93
2296.774	585.15
2299.942	603.08
2303.111	605.01
2306.279	616.38
2309.447	627.13
2312.614	643.64
2315.781	665.46
2318.948	693.82
2322.115	681.84
2325.281	721.53
2328.447	708.29
2331.613	730.97
2334.779	724.33
2337.944	754.37
2341.109	763.66
2344.274	782.43
2347.438	812.7
2350.602	807.89
2353.766	836.68
2356.929	851.25
2360.092	843.91
2363.255	906.65
2366.418	906.27
2369.58	922.62
2372.742	983.71
2375.904	1008.96
2379.066	1003.33
2382.227	981.04
2385.388	1066.83
2388.548	1064.29
2391.709	1077.83
2394.869	1199.26
2398.029	1145.7
2401.188	1180.8
2404.347	1173.77
2407.506	1152.33
2410.665	1187.15
2413.823	1255.1
2416.981	1329.85
2420.139	1290.33
2423.296	1275.59
2426.453	1340.44
2429.61	1285.95
2432.767	1343
2435.923	1326.04
2439.079	1457.86
2442.235	1480.58
2445.391	1465.06
2448.546	1457.73
2451.701	1418.87
2454.855	1416.1
2458.009	1501.58
2461.163	1553.33
2464.317	1610.98
2467.471	1652.37
2470.624	1654.81
2473.777	1607.04
2476.929	1559.49
2480.082	1513.39
2483.234	1498.52
2486.385	1568.56
2489.537	1576.78
2492.688	1632.58
2495.839	1582.42
2498.989	1550.63
2502.14	1559.29
2505.29	1573.8
2508.439	1592.4
2511.589	1591.01
2514.738	1734.3
2517.887	1696.94
2521.035	1792.52
2524.183	1800.33
2527.331	1815.19
2530.479	1805.87
2533.627	1817.42
