Data from N_3_DEC_CT_2N_Splice17_13-56-19-786.txt Node
Date: Sat Mar 07 13:56:19 EST 2020
User: sa697716
Spectrometer: NQ5500242
Trigger mode: 0
Integration Time (sec): 1.450000E-1
Scans to average: 20
Nonlinearity correction enabled: false
Boxcar width: 5
Storing dark spectrum: false
XAxis mode: Wavelengths
Number of Pixels in Spectrum: 512
>>>>>Begin Spectral Data<<<<<
187.83	151.36
188.298	154.07
188.766	130.27
189.233	115.39
189.701	116.98
190.169	138.86
190.636	122.15
191.104	111
191.571	-127.41
192.039	-102.39
192.506	-414.96
192.974	79.83
193.441	11.33
193.908	-73.11
194.375	-43.85
194.842	-42.55
195.31	-10.06
195.777	-152.44
196.244	50.7
196.711	54.48
197.177	57.91
197.644	57.6
198.111	57.43
198.578	57.82
199.045	58.62
199.511	58.78
199.978	58.2
200.445	58.65
200.911	58.92
201.378	59.01
201.844	59.16
202.31	59.04
202.777	59.2
203.243	59.26
203.709	58.88
204.176	58.25
204.642	58.1
205.108	58.3
205.574	57.83
206.04	57.38
206.506	56.73
206.972	56.51
207.438	55.83
207.903	55.25
208.369	54.04
208.835	53.43
209.301	52.55
209.766	51.16
210.232	49.83
210.697	48.5
211.163	47.31
211.628	46.49
212.094	45.38
212.559	44.66
213.024	43.74
213.49	43.12
213.955	42.15
214.42	41.63
214.885	40.88
215.35	39.75
215.815	38.19
216.28	36.17
216.745	33.86
217.21	31.72
217.675	29.55
218.14	27.76
218.604	26.12
219.069	24.76
219.534	23.56
219.998	22.6
220.463	21.79
220.927	21.04
221.392	20.49
221.856	20
222.32	19.56
222.785	19.18
223.249	18.81
223.713	18.49
224.177	18.23
224.642	17.95
225.106	17.64
225.57	17.37
226.034	17.14
226.497	16.89
226.961	16.65
227.425	16.41
227.889	16.18
228.353	15.94
228.816	15.73
229.28	15.5
229.744	15.29
230.207	15.09
230.671	14.87
231.134	14.67
231.597	14.49
232.061	14.3
232.524	14.11
232.987	13.94
233.45	13.79
233.914	13.62
234.377	13.46
234.84	13.29
235.303	13.15
235.766	13.02
236.229	12.87
236.691	12.71
237.154	12.58
237.617	12.45
238.08	12.32
238.542	12.17
239.005	12.06
239.468	11.93
239.93	11.83
240.393	11.71
240.855	11.58
241.317	11.47
241.78	11.36
242.242	11.26
242.704	11.16
243.166	11.06
243.629	10.97
244.091	10.85
244.553	10.75
245.015	10.65
245.477	10.53
245.939	10.44
246.4	10.34
246.862	10.25
247.324	10.15
247.786	10.05
248.247	9.96
248.709	9.85
249.17	9.74
249.632	9.67
250.093	9.58
250.555	9.5
251.016	9.42
251.477	9.33
251.939	9.26
252.4	9.19
252.861	9.12
253.322	9.05
253.783	8.99
254.244	8.93
254.705	8.86
255.166	8.8
255.627	8.74
256.088	8.7
256.549	8.65
257.009	8.58
257.47	8.52
257.931	8.45
258.391	8.37
258.852	8.31
259.312	8.26
259.773	8.2
260.233	8.14
260.694	8.08
261.154	8.02
261.614	7.96
262.074	7.9
262.534	7.84
262.994	7.8
263.455	7.76
263.915	7.72
264.374	7.67
264.834	7.64
265.294	7.59
265.754	7.56
266.214	7.53
266.673	7.51
267.133	7.48
267.593	7.45
268.052	7.43
268.512	7.4
268.971	7.38
269.431	7.36
269.89	7.33
270.349	7.31
270.809	7.29
271.268	7.27
271.727	7.25
272.186	7.23
272.645	7.21
273.104	7.19
273.563	7.17
274.022	7.14
274.481	7.13
274.94	7.1
275.399	7.08
275.857	7.05
276.316	7.03
276.775	7.01
277.233	6.99
277.692	6.96
278.15	6.94
278.609	6.93
279.067	6.91
279.525	6.9
279.984	6.88
280.442	6.87
280.9	6.86
281.358	6.84
281.816	6.83
282.274	6.81
282.732	6.8
283.19	6.78
283.648	6.76
284.106	6.74
284.564	6.72
285.021	6.7
285.479	6.69
285.937	6.67
286.394	6.66
286.852	6.63
287.309	6.61
287.767	6.59
288.224	6.57
288.682	6.55
289.139	6.52
289.596	6.49
290.053	6.45
290.511	6.41
290.968	6.39
291.425	6.35
291.882	6.33
292.339	6.3
292.796	6.27
293.252	6.24
293.709	6.21
294.166	6.19
294.623	6.17
295.079	6.15
295.536	6.14
295.992	6.12
296.449	6.11
296.905	6.1
297.362	6.08
297.818	6.07
298.274	6.06
298.731	6.04
299.187	6.03
299.643	6.01
300.099	6
300.555	5.97
301.011	5.96
301.467	5.95
301.923	5.92
302.379	5.91
302.835	5.9
303.291	5.89
303.746	5.87
304.202	5.86
304.658	5.85
305.113	5.85
305.569	5.85
306.024	5.83
306.479	5.82
306.935	5.81
307.39	5.81
307.845	5.8
308.301	5.8
308.756	5.8
309.211	5.79
309.666	5.79
310.121	5.78
310.576	5.78
311.031	5.78
311.486	5.77
311.94	5.77
312.395	5.76
312.85	5.76
313.305	5.75
313.759	5.75
314.214	5.74
314.668	5.73
315.123	5.72
315.577	5.71
316.032	5.7
316.486	5.68
316.94	5.68
317.394	5.66
317.849	5.63
318.303	5.61
318.757	5.59
319.211	5.57
319.665	5.55
320.119	5.53
320.572	5.51
321.026	5.49
321.48	5.48
321.934	5.45
322.387	5.43
322.841	5.42
323.295	5.41
323.748	5.4
324.202	5.39
324.655	5.38
325.108	5.37
325.562	5.36
326.015	5.36
326.468	5.35
326.921	5.35
327.374	5.34
327.827	5.34
328.28	5.33
328.733	5.33
329.186	5.32
329.639	5.32
330.092	5.31
330.545	5.31
330.997	5.3
331.45	5.3
331.903	5.31
332.355	5.31
332.808	5.3
333.26	5.29
333.713	5.28
334.165	5.28
334.617	5.28
335.069	5.28
335.522	5.28
335.974	5.29
336.426	5.28
336.878	5.27
337.33	5.27
337.782	5.27
338.234	5.27
338.686	5.26
339.137	5.27
339.589	5.25
340.041	5.25
340.493	5.23
340.944	5.21
341.396	5.19
341.847	5.17
342.299	5.16
342.75	5.14
343.201	5.12
343.653	5.1
344.104	5.07
344.555	5.04
345.006	5.02
345.457	5.01
345.908	4.99
346.359	4.99
346.81	4.99
347.261	4.98
347.712	4.96
348.163	4.95
348.613	4.95
349.064	4.95
349.515	4.95
349.965	4.95
350.416	4.94
350.866	4.94
351.317	4.92
351.767	4.92
352.217	4.92
352.668	4.92
353.118	4.91
353.568	4.9
354.018	4.9
354.468	4.91
354.918	4.92
355.368	4.92
355.818	4.92
356.268	4.92
356.718	4.93
357.168	4.92
357.617	4.92
358.067	4.92
358.517	4.93
358.966	4.93
359.416	4.93
359.865	4.91
360.315	4.92
360.764	4.92
361.213	4.9
361.663	4.89
362.112	4.89
362.561	4.89
363.01	4.88
363.459	4.86
363.908	4.85
364.357	4.85
364.806	4.84
365.255	4.83
365.703	4.83
366.152	4.84
366.601	4.84
367.05	4.84
367.498	4.84
367.947	4.86
368.395	4.85
368.844	4.85
369.292	4.84
369.74	4.84
370.189	4.82
370.637	4.82
371.085	4.82
371.533	4.82
371.981	4.82
372.429	4.81
372.877	4.8
373.325	4.8
373.773	4.8
374.221	4.8
374.669	4.8
375.116	4.8
375.564	4.79
376.012	4.79
376.459	4.8
376.907	4.8
377.354	4.8
377.801	4.8
378.249	4.81
378.696	4.81
379.143	4.82
379.591	4.82
380.038	4.82
380.485	4.82
380.932	4.82
381.379	4.83
381.826	4.82
382.273	4.82
382.72	4.81
383.166	4.81
383.613	4.8
384.06	4.79
384.506	4.8
384.953	4.8
385.4	4.81
385.846	4.82
386.292	4.82
386.739	4.83
387.185	4.84
387.631	4.86
388.078	4.87
388.524	4.88
388.97	4.89
389.416	4.9
389.862	4.92
390.308	4.94
390.754	4.95
391.2	4.96
391.645	4.98
392.091	5
392.537	5.01
392.983	5.02
393.428	5.03
393.874	5.04
394.319	5.06
394.765	5.06
395.21	5.07
395.655	5.08
396.101	5.1
396.546	5.11
396.991	5.13
397.436	5.14
397.881	5.17
398.326	5.2
398.771	5.22
399.216	5.23
399.661	5.25
400.106	5.27
400.551	5.28
400.995	5.28
401.44	5.3
401.885	5.3
402.329	5.31
402.774	5.32
403.218	5.33
403.663	5.34
404.107	5.35
404.551	5.36
404.995	5.37
405.44	5.38
405.884	5.39
406.328	5.4
406.772	5.4
407.216	5.4
407.66	5.4
408.104	5.39
408.547	5.39
408.991	5.41
409.435	5.4
409.879	5.41
410.322	5.42
410.766	5.44
411.209	5.46
411.653	5.49
412.096	5.51
412.54	5.53
412.983	5.55
413.426	5.59
413.869	5.61
414.312	5.64
414.756	5.67
415.199	5.67
415.642	5.68
416.085	5.69
416.527	5.68
416.97	5.67
417.413	5.66
417.856	5.65
418.298	5.63
418.741	5.6
419.184	5.58
419.626	5.58
420.069	5.59
420.511	5.58
420.953	5.57
421.396	5.6
421.838	5.61
422.28	5.62
422.722	5.65
423.164	5.66
423.606	5.68
424.048	5.71
424.49	5.72
424.932	5.71
425.374	5.7
425.816	5.69
426.258	5.66
426.699	5.66
427.141	5.66
427.582	5.66
428.024	5.68
428.465	5.69
428.907	5.68
429.348	5.67
429.789	5.68
430.231	5.71
430.672	5.73
431.113	5.77
431.554	5.79
431.995	5.81
432.436	5.82
432.877	5.82
433.318	5.84
433.759	5.87
434.2	5.91
434.64	5.94
435.081	5.95
435.522	5.97
435.962	5.98
436.403	6.01
436.843	6.02
437.284	6.02
437.724	6.02
438.164	6.01
438.604	6.02
439.045	6.02
439.485	6.04
439.925	6.04
440.365	6.04
440.805	6.04
441.245	6.05
441.685	6.08
442.125	6.11
442.564	6.12
443.004	6.13
443.444	6.15
443.883	6.16
444.323	6.14
444.762	6.17
445.202	6.18
445.641	6.22
446.081	6.23
446.52	6.22
446.959	6.23
447.398	6.25
447.837	6.28
448.276	6.3
448.716	6.31
449.154	6.33
449.593	6.35
450.032	6.36
450.471	6.34
450.91	6.33
451.349	6.35
451.787	6.33
452.226	6.32
452.664	6.3
453.103	6.28
453.541	6.28
453.98	6.27
454.418	6.25
454.856	6.22
455.295	6.2
455.733	6.18
456.171	6.17
456.609	6.17
457.047	6.15
457.485	6.14
457.923	6.13
458.361	6.11
458.798	6.11
459.236	6.1
459.674	6.11
460.111	6.11
460.549	6.11
460.987	6.12
461.424	6.11
461.862	6.12
462.299	6.13
462.736	6.14
463.173	6.16
463.611	6.16
464.048	6.16
464.485	6.17
464.922	6.18
465.359	6.19
465.796	6.2
466.233	6.21
466.67	6.22
467.106	6.22
467.543	6.21
467.98	6.19
468.416	6.19
468.853	6.19
469.29	6.18
469.726	6.19
470.162	6.17
470.599	6.17
471.035	6.15
471.471	6.14
471.907	6.13
472.344	6.14
472.78	6.14
473.216	6.14
473.652	6.14
474.088	6.11
474.523	6.11
474.959	6.11
475.395	6.08
475.831	6.08
476.266	6.07
476.702	6.06
477.138	6.05
477.573	6.05
478.008	6.04
478.444	6.02
478.879	6.03
479.314	6.01
479.75	6.01
480.185	6
480.62	5.97
481.055	5.95
481.49	5.94
481.925	5.93
482.36	5.92
482.795	5.91
483.229	5.91
483.664	5.91
484.099	5.9
484.534	5.89
484.968	5.89
485.403	5.9
485.837	5.92
486.271	5.93
486.706	5.93
487.14	5.93
487.574	5.94
488.009	5.95
488.443	5.95
488.877	5.97
489.311	5.99
489.745	6.01
490.179	6.04
490.613	6.06
491.046	6.08
491.48	6.11
491.914	6.14
492.348	6.17
492.781	6.21
493.215	6.25
493.648	6.29
494.082	6.32
494.515	6.35
494.948	6.4
495.382	6.44
495.815	6.5
496.248	6.56
496.681	6.62
497.114	6.68
497.547	6.74
497.98	6.81
498.413	6.89
498.846	6.97
499.279	7.05
499.711	7.15
500.144	7.25
500.577	7.35
501.009	7.45
501.442	7.56
501.874	7.69
502.306	7.81
502.739	7.94
503.171	8.08
503.603	8.22
504.036	8.38
504.468	8.53
504.9	8.68
505.332	8.84
505.764	9.02
506.196	9.2
506.627	9.39
507.059	9.59
507.491	9.79
507.923	10
508.354	10.24
508.786	10.48
509.217	10.73
509.649	10.99
510.08	11.25
510.512	11.53
510.943	11.82
511.374	12.11
511.805	12.41
512.237	12.71
512.668	13.04
513.099	13.34
513.53	13.67
513.961	14
514.391	14.33
514.822	14.68
515.253	15.03
515.684	15.39
516.114	15.75
516.545	16.11
516.975	16.5
517.406	16.86
517.836	17.24
518.267	17.63
518.697	18
519.127	18.37
519.558	18.75
519.988	19.12
520.418	19.49
520.848	19.86
521.278	20.23
521.708	20.77
522.138	21.14
522.567	21.49
522.997	21.83
523.427	22.18
523.857	22.52
524.286	22.84
524.716	23.16
525.145	23.48
525.575	23.78
526.004	24.08
526.433	24.19
526.863	24.46
527.292	24.74
527.721	24.99
528.15	25.22
528.579	25.45
529.008	25.68
529.437	25.89
529.866	26.1
530.295	26.31
530.724	26.49
531.152	26.66
531.581	26.84
532.01	27.01
532.438	27.17
532.867	27.31
533.295	27.43
533.723	27.57
534.152	27.69
534.58	27.82
535.008	27.89
535.436	28.01
535.865	28.1
536.293	28.18
536.721	28.27
537.149	28.34
537.576	28.43
538.004	28.51
538.432	28.57
538.86	28.62
539.287	28.65
539.715	28.73
540.143	28.76
540.57	28.79
540.998	28.83
541.425	28.86
541.852	28.9
542.28	28.93
542.707	28.97
543.134	29.01
543.561	29.04
543.988	29.1
544.415	29.13
544.842	29.16
545.269	29.21
545.696	29.26
546.123	29.3
546.549	29.33
546.976	29.37
547.403	29.42
547.829	29.44
548.256	29.49
548.682	29.51
549.108	29.54
549.535	29.58
549.961	29.6
550.387	29.62
550.813	29.64
551.24	29.65
551.666	29.65
552.092	29.64
552.518	29.64
552.943	29.62
553.369	29.6
553.795	29.56
554.221	29.54
554.646	29.48
555.072	29.43
555.498	29.36
555.923	29.29
556.349	29.19
556.774	29.1
557.199	29.01
557.625	28.91
558.05	28.81
558.475	28.71
558.9	28.59
559.325	28.49
559.75	28.36
560.175	28.23
560.6	28.1
561.025	27.99
561.449	27.85
561.874	27.69
562.299	27.52
562.723	27.34
563.148	27.15
563.572	26.94
563.997	26.73
564.421	26.52
564.846	26.33
565.27	26.11
565.694	25.87
566.118	25.65
566.542	25.42
566.966	25.19
567.39	24.97
567.814	24.75
568.238	24.54
568.662	24.32
569.086	24.11
569.509	23.87
569.933	23.66
570.357	23.44
570.78	23.23
571.204	23.04
571.627	22.86
572.05	22.66
572.474	22.48
572.897	22.3
573.32	22.12
573.743	21.94
574.166	21.78
574.589	21.6
575.012	21.45
575.435	21.29
575.858	21.12
576.281	20.97
576.704	20.83
577.126	20.67
577.549	20.52
577.972	20.37
578.394	20.24
578.817	20.11
579.239	19.99
579.661	19.87
580.084	19.75
580.506	19.64
580.928	19.52
581.35	19.42
581.772	19.3
582.194	19.19
582.616	19.1
583.038	18.99
583.46	18.88
583.882	18.78
584.303	18.68
584.725	18.58
585.147	18.5
585.568	18.42
585.99	18.33
586.411	18.25
586.833	18.18
587.254	18.1
587.675	18.03
588.096	17.96
588.518	17.9
588.939	17.85
589.36	17.79
589.781	17.71
590.202	17.65
590.623	17.59
591.043	17.53
591.464	17.46
591.885	17.41
592.305	17.35
592.726	17.31
593.147	17.25
593.567	17.2
593.987	17.14
594.408	17.08
594.828	17.03
595.248	16.99
595.669	16.95
596.089	16.91
596.509	16.86
596.929	16.81
597.349	16.77
597.769	16.72
598.189	16.66
598.608	16.62
599.028	16.59
599.448	16.54
599.867	16.48
600.287	16.43
600.706	16.38
601.126	16.32
601.545	16.27
601.965	16.23
602.384	16.16
602.803	16.1
603.222	16.04
603.641	15.95
604.061	15.88
604.48	15.8
604.898	15.72
605.317	15.64
605.736	15.57
606.155	15.49
606.574	15.38
606.992	15.28
607.411	15.19
607.829	15.07
608.248	14.99
608.666	14.9
609.085	14.81
609.503	14.72
609.921	14.63
610.339	14.53
610.758	14.42
611.176	14.32
611.594	14.24
612.012	14.14
612.43	14.07
612.847	13.97
613.265	13.88
613.683	13.79
614.101	13.69
614.518	13.59
614.936	13.5
615.353	13.4
615.771	13.34
616.188	13.26
616.606	13.19
617.023	13.12
617.44	13.07
617.857	12.99
618.274	12.92
618.691	12.87
619.108	12.8
619.525	12.75
619.942	12.71
620.359	12.65
620.776	12.61
621.192	12.56
621.609	12.53
622.026	12.47
622.442	12.44
622.859	12.42
623.275	12.38
623.691	12.37
624.108	12.35
624.524	12.32
624.94	12.31
625.356	12.28
625.772	12.27
626.188	12.26
626.604	12.25
627.02	12.24
627.436	12.23
627.852	12.22
628.268	12.2
628.683	12.19
629.099	12.18
629.514	12.16
629.93	12.15
630.345	12.12
630.761	12.08
631.176	12.04
631.591	11.99
632.007	11.95
632.422	11.89
632.837	11.83
633.252	11.76
633.667	11.68
634.082	11.59
634.497	11.51
634.911	11.42
635.326	11.33
635.741	11.23
636.155	11.14
636.57	11.03
636.984	10.92
637.399	10.8
637.813	10.68
638.228	10.56
638.642	10.44
639.056	10.31
639.47	10.19
639.884	10.08
640.298	9.94
640.712	9.81
641.126	9.68
641.54	9.55
641.954	9.44
642.368	9.32
642.781	9.21
643.195	9.1
643.609	8.99
644.022	8.88
644.436	8.78
644.849	8.68
645.262	8.58
645.676	8.5
646.089	8.42
646.502	8.34
646.915	8.27
647.328	8.19
647.741	8.12
648.154	8.07
648.567	8.02
648.98	7.95
649.393	7.92
649.805	7.89
650.218	7.85
650.631	7.82
651.043	7.78
651.456	7.75
651.868	7.7
652.28	7.67
652.693	7.64
653.105	7.59
653.517	7.56
653.929	7.52
654.341	7.47
654.753	7.42
655.165	7.37
655.577	7.32
655.989	7.26
656.401	7.21
656.813	7.16
657.224	7.08
657.636	7.01
658.047	6.95
658.459	6.87
658.87	6.8
659.282	6.73
659.693	6.66
660.104	6.59
660.515	6.53
660.926	6.48
661.338	6.41
661.749	6.36
662.159	6.3
662.57	6.26
662.981	6.21
663.392	6.17
663.803	6.13
664.213	6.09
664.624	6.06
665.035	6.03
665.445	6
665.855	5.99
666.266	5.97
666.676	5.97
667.086	5.94
667.497	5.93
667.907	5.93
668.317	5.93
668.727	5.94
669.137	5.94
669.547	5.93
669.956	5.93
670.366	5.93
670.776	5.94
671.186	5.94
671.595	5.96
672.005	5.96
672.414	5.98
672.824	5.98
673.233	6
673.642	6.02
674.052	6.04
674.461	6.07
674.87	6.09
675.279	6.12
675.688	6.15
676.097	6.18
676.506	6.24
676.915	6.26
677.323	6.3
677.732	6.33
678.141	6.37
678.549	6.41
678.958	6.45
679.366	6.5
679.775	6.55
680.183	6.6
680.592	6.66
681	6.72
681.408	6.8
681.816	6.88
682.224	6.97
682.632	7.07
683.04	7.18
683.448	7.32
683.856	7.44
684.264	7.59
684.671	7.76
685.079	7.93
685.487	8.13
685.894	8.36
686.302	8.61
686.709	8.89
687.116	9.21
687.524	9.56
687.931	9.94
688.338	10.35
688.745	10.79
689.152	11.27
689.559	11.8
689.966	12.34
690.373	12.91
690.78	13.51
691.187	14.14
691.593	14.79
692	15.46
692.407	16.15
692.813	16.88
693.22	17.62
693.626	18.36
694.032	19.13
694.439	19.91
694.845	20.72
695.251	21.5
695.657	22.3
696.063	23.13
696.469	23.95
696.875	24.77
697.281	25.59
697.687	26.43
698.093	27.25
698.498	28.05
698.904	28.87
699.31	29.67
699.715	30.49
700.12	31.28
700.526	32.05
700.931	32.82
701.337	33.59
701.742	34.3
702.147	35.03
702.552	35.74
702.957	36.44
703.362	37.12
703.767	37.79
704.172	38.45
704.577	39.12
704.981	39.79
705.386	40.43
705.791	41.06
706.195	41.72
706.6	42.38
707.004	42.98
707.408	43.61
707.813	44.21
708.217	44.8
708.621	45.4
709.025	45.98
709.43	46.53
709.834	47.09
710.237	47.64
710.641	48.17
711.045	48.67
711.449	49.22
711.853	49.74
712.256	50.24
712.66	50.76
713.064	51.23
713.467	51.7
713.87	52.18
714.274	52.63
714.677	53.09
715.08	53.51
715.484	53.97
715.887	54.43
716.29	54.84
716.693	55.27
717.096	55.7
717.499	56.13
717.901	56.53
718.304	56.94
718.707	57.32
719.109	57.7
719.512	58.12
719.915	58.48
720.317	58.8
720.719	59.13
721.122	59.47
721.524	59.78
721.926	60.09
722.328	60.43
722.731	60.72
723.133	61.03
723.535	61.32
723.937	61.6
724.338	61.86
724.74	62.13
725.142	62.53
725.544	62.77
725.945	63.04
726.347	63.25
726.748	63.46
727.15	63.63
727.551	63.84
727.952	64.02
728.354	64.21
728.755	64.4
729.156	64.58
729.557	64.63
729.958	64.8
730.359	64.95
730.76	65.14
731.161	65.29
731.562	65.49
731.962	65.61
732.363	65.77
732.763	65.93
733.164	66.06
733.564	66.23
733.965	66.32
734.365	66.42
734.766	66.52
735.166	66.61
735.566	66.73
735.966	66.82
736.366	66.92
736.766	66.99
737.166	67.08
737.566	67.17
737.966	67.23
738.365	67.33
738.765	67.46
739.165	67.54
739.564	67.63
739.964	67.69
740.363	67.72
740.763	67.8
741.162	67.88
741.561	67.87
741.96	67.91
742.36	67.92
742.759	67.99
743.158	68.01
743.557	68.04
743.955	68.07
744.354	68.12
744.753	68.21
745.152	68.28
745.55	68.33
745.949	68.4
746.348	68.49
746.746	68.54
747.144	68.59
747.543	68.62
747.941	68.64
748.339	68.66
748.737	68.66
749.136	68.67
749.534	68.66
749.932	68.66
750.33	68.66
750.727	68.64
751.125	68.69
751.523	68.69
751.921	68.71
752.318	68.74
752.716	68.77
753.113	68.77
753.511	68.76
753.908	68.79
754.305	68.83
754.703	68.83
755.1	68.85
755.497	68.84
755.894	68.85
756.291	68.84
756.688	68.82
757.085	68.83
757.482	68.86
757.878	68.9
758.275	68.89
758.672	68.89
759.068	68.93
759.465	68.93
759.861	68.92
760.258	68.91
760.654	68.94
761.05	68.99
761.447	68.99
761.843	68.98
762.239	68.96
762.635	68.95
763.031	68.93
763.427	68.87
763.822	68.88
764.218	68.91
764.614	68.92
765.01	68.89
765.405	68.86
765.801	68.82
766.196	68.84
766.592	68.79
766.987	68.82
767.382	68.81
767.778	68.83
768.173	68.82
768.568	68.78
768.963	68.74
769.358	68.77
769.753	68.77
770.148	68.79
770.542	68.79
770.937	68.82
771.332	68.79
771.726	68.8
772.121	68.79
772.515	68.81
772.91	68.84
773.304	68.88
773.699	68.86
774.093	68.86
774.487	68.83
774.881	68.81
775.275	68.8
775.669	68.8
776.063	68.79
776.457	68.83
776.851	68.82
777.245	68.77
777.638	68.73
778.032	68.74
778.425	68.77
778.819	68.79
779.212	68.83
779.606	68.88
779.999	68.87
780.392	68.91
780.786	68.9
781.179	68.89
781.572	68.92
781.965	68.96
782.358	68.95
782.751	68.95
783.143	68.97
783.536	68.95
783.929	68.95
784.322	68.97
784.714	68.97
785.107	68.99
785.499	69
785.891	69.03
786.284	69.03
786.676	69.04
787.068	69.02
787.46	69.06
787.852	69.08
788.245	69.06
788.636	69.05
789.028	69.07
789.42	69.06
789.812	69.06
790.204	69.06
790.595	69.05
790.987	69.06
791.378	69.11
791.77	69.07
792.161	69.06
792.553	69.07
792.944	69.05
793.335	69.03
793.726	69.02
794.117	69.01
794.508	69.02
794.899	69.01
795.29	69.01
795.681	68.97
796.072	68.98
796.463	69.01
796.853	69.02
797.244	69.03
797.634	69.04
798.025	69.08
798.415	69.12
798.806	69.12
799.196	69.14
799.586	69.16
799.976	69.19
800.366	69.21
800.756	69.2
801.146	69.23
801.536	69.25
801.926	69.25
802.316	69.25
802.706	69.23
803.095	69.25
803.485	69.27
803.874	69.26
804.264	69.23
804.653	69.23
805.043	69.25
805.432	69.23
805.821	69.27
806.21	69.28
806.599	69.33
806.988	69.34
807.377	69.32
807.766	69.35
808.155	69.35
808.544	69.39
808.933	69.39
809.321	69.38
809.71	69.38
810.098	69.34
810.487	69.34
810.875	69.34
811.264	69.34
811.652	69.4
812.04	69.38
812.428	69.42
812.816	69.44
813.204	69.45
813.592	69.43
813.98	69.45
814.368	69.47
814.756	69.48
815.144	69.43
815.531	69.42
815.919	69.4
816.306	69.37
816.694	69.38
817.081	69.36
817.469	69.37
817.856	69.39
818.243	69.39
818.63	69.39
819.017	69.36
819.404	69.38
819.791	69.39
820.178	69.39
820.565	69.41
820.952	69.39
821.339	69.38
821.725	69.37
822.112	69.36
822.498	69.37
822.885	69.37
823.271	69.37
823.657	69.32
824.044	69.3
824.43	69.31
824.816	69.29
825.202	69.26
825.588	69.28
825.974	69.27
826.36	69.31
826.746	69.28
827.132	69.28
827.517	69.29
827.903	69.35
828.289	69.37
828.674	69.36
829.06	69.37
829.445	69.38
829.83	69.39
830.216	69.37
830.601	69.35
830.986	69.35
831.371	69.31
831.756	69.29
832.141	69.26
832.526	69.25
832.911	69.24
833.295	69.23
833.68	69.25
834.065	69.21
834.449	69.2
834.834	69.16
835.218	69.15
835.603	69.12
835.987	69.1
836.371	69.08
836.755	69.04
837.139	68.99
837.524	68.98
837.908	68.96
838.291	68.97
838.675	69
839.059	69
839.443	68.98
839.827	68.97
840.21	68.96
840.594	68.97
840.977	68.98
841.361	68.99
841.744	68.96
842.127	68.93
842.511	68.89
842.894	68.84
843.277	68.81
843.66	68.79
844.043	68.81
844.426	68.79
844.809	68.77
845.191	68.78
845.574	68.77
845.957	68.8
846.339	68.8
846.722	68.84
847.104	68.86
847.487	68.87
847.869	68.88
848.252	68.88
848.634	68.9
849.016	68.93
849.398	68.93
849.78	68.92
850.162	68.92
850.544	68.88
850.926	68.87
851.307	68.86
851.689	68.89
852.071	68.89
852.452	68.88
852.834	68.87
853.215	68.84
853.597	68.83
853.978	68.82
854.359	68.83
854.741	68.86
855.122	68.84
855.503	68.84
855.884	68.8
856.265	68.78
856.646	68.79
857.026	68.84
857.407	68.86
857.788	68.86
858.169	68.88
858.549	68.86
858.93	68.88
859.31	68.9
859.69	68.92
860.071	68.96
860.451	68.97
860.831	68.96
861.211	68.92
861.591	68.9
861.971	68.9
862.351	68.91
862.731	68.93
863.111	68.88
863.491	68.86
863.87	68.85
864.25	68.83
864.629	68.82
865.009	68.82
865.388	68.82
865.768	68.83
866.147	68.83
866.526	68.82
866.905	68.81
867.284	68.8
867.663	68.81
868.042	68.79
868.421	68.8
868.8	68.81
869.179	68.82
869.558	68.82
869.936	68.79
870.315	68.77
870.693	68.75
871.072	68.77
871.45	68.77
871.828	68.79
872.207	68.81
872.585	68.8
872.963	68.77
873.341	68.76
873.719	68.75
874.097	68.74
874.475	68.77
874.853	68.75
875.23	68.76
875.608	68.75
875.986	68.74
876.363	68.72
876.741	68.7
877.118	68.74
877.495	68.77
877.873	68.79
878.25	68.82
878.627	68.81
879.004	68.83
879.381	68.82
879.758	68.81
880.135	68.82
880.512	68.82
880.889	68.83
881.265	68.81
881.642	68.78
882.019	68.79
882.395	68.78
882.772	68.77
883.148	68.74
883.524	68.71
883.901	68.72
884.277	68.68
884.653	68.67
885.029	68.65
885.405	68.67
885.781	68.63
886.157	68.62
886.532	68.62
886.908	68.59
887.284	68.62
887.659	68.58
888.035	68.56
888.411	68.55
888.786	68.56
889.161	68.56
889.537	68.53
889.912	68.55
890.287	68.55
890.662	68.51
891.037	68.54
891.412	68.5
891.787	68.5
892.162	68.48
892.536	68.49
892.911	68.5
893.286	68.48
893.66	68.47
894.035	68.46
894.409	68.4
894.784	68.4
895.158	68.37
895.532	68.39
895.906	68.39
896.281	68.4
896.655	68.4
897.029	68.37
897.402	68.36
897.776	68.36
898.15	68.36
898.524	68.38
898.898	68.37
899.271	68.35
899.645	68.36
900.018	68.39
900.392	68.38
900.765	68.38
901.138	68.37
901.511	68.4
901.884	68.42
902.258	68.43
902.631	68.44
903.003	68.48
903.376	68.52
903.749	68.52
904.122	68.53
904.495	68.55
904.867	68.55
905.24	68.57
905.612	68.6
905.985	68.57
906.357	68.55
906.729	68.56
907.102	68.57
907.474	68.56
907.846	68.56
908.218	68.53
908.59	68.54
908.962	68.57
909.334	68.58
909.705	68.58
910.077	68.62
910.449	68.67
910.82	68.67
911.192	68.64
911.563	68.65
911.935	68.64
912.306	68.66
912.677	68.68
913.048	68.7
913.419	68.7
913.79	68.68
914.161	68.68
914.532	68.65
914.903	68.64
915.274	68.64
915.645	68.67
916.015	68.7
916.386	68.68
916.756	68.69
917.127	68.68
917.497	68.67
917.868	68.69
918.238	68.68
918.608	68.71
918.978	68.71
919.348	68.76
919.718	68.75
920.088	68.77
920.458	68.8
920.828	68.77
921.198	68.72
921.567	68.76
921.937	68.72
922.306	68.71
922.676	68.74
923.045	68.74
923.415	68.7
923.784	68.69
924.153	68.69
924.522	68.71
924.891	68.7
925.26	68.71
925.629	68.7
925.998	68.72
926.367	68.74
926.736	68.69
927.104	68.71
927.473	68.7
927.842	68.67
928.21	68.67
928.578	68.62
928.947	68.64
929.315	68.64
929.683	68.64
930.051	68.63
930.42	68.61
930.788	68.59
931.156	68.54
931.523	68.54
931.891	68.58
932.259	68.55
932.627	68.52
932.994	68.5
933.362	68.48
933.729	68.47
934.097	68.44
934.464	68.42
934.831	68.4
935.199	68.39
935.566	68.35
935.933	68.28
936.3	68.27
936.667	68.22
937.034	68.24
937.401	68.22
937.767	68.17
938.134	68.19
938.501	68.15
938.867	68.17
939.234	68.17
939.6	68.14
939.967	68.19
940.333	68.15
940.699	68.23
941.065	68.15
941.431	68.19
941.798	68.15
942.163	68.1
942.529	68.07
942.895	68.04
943.261	68.09
943.627	68.07
943.992	68.06
944.358	68.07
944.723	68.05
945.089	68.03
945.454	68.02
945.82	68.05
946.185	68.01
946.55	67.98
946.915	67.99
947.28	67.93
947.645	67.96
948.01	67.94
948.375	67.88
948.74	67.85
949.104	67.86
949.469	67.78
949.834	67.77
950.198	67.73
950.562	67.72
950.927	67.68
951.291	67.6
951.655	67.56
952.02	67.5
952.384	67.48
952.748	67.44
953.112	67.45
953.476	67.44
953.839	67.38
954.203	67.38
954.567	67.39
954.931	67.35
955.294	67.35
955.658	67.42
956.021	67.45
956.385	67.42
956.748	67.42
957.111	67.4
957.474	67.39
957.837	67.36
958.2	67.34
958.563	67.34
958.926	67.44
959.289	67.47
959.652	67.41
960.015	67.41
960.377	67.43
960.74	67.47
961.102	67.43
961.465	67.51
961.827	67.55
962.189	67.64
962.552	67.61
962.914	67.52
963.276	67.5
963.638	67.52
964	67.49
964.362	67.49
964.724	67.43
965.085	67.44
965.447	67.32
965.809	67.33
966.17	67.26
966.532	67.24
966.893	67.29
967.255	67.34
967.616	67.28
967.977	67.32
968.338	67.34
968.699	67.41
969.061	67.4
969.421	67.48
969.782	67.51
970.143	67.5
970.504	67.51
970.865	67.55
971.225	67.56
971.586	67.61
971.946	67.61
972.307	67.59
972.667	67.54
973.027	67.56
973.388	67.62
973.748	67.61
974.108	67.68
974.468	67.67
974.828	67.64
975.188	67.6
975.548	67.65
975.907	67.64
976.267	67.67
976.627	67.7
976.986	67.62
977.346	67.51
977.705	67.55
978.064	67.54
978.424	67.6
978.783	67.51
979.142	67.49
979.501	67.43
979.86	67.51
980.219	67.48
980.578	67.53
980.937	67.61
981.296	67.62
981.654	67.52
982.013	67.53
982.371	67.53
982.73	67.61
983.088	67.62
983.447	67.54
983.805	67.52
984.163	67.48
984.521	67.4
984.879	67.31
985.237	67.32
985.595	67.39
985.953	67.44
986.311	67.37
986.669	67.37
987.026	67.34
987.384	67.39
987.741	67.26
988.099	67.36
988.456	67.45
988.814	67.54
989.171	67.54
989.528	67.53
989.885	67.4
990.242	67.41
990.599	67.38
990.956	67.44
991.313	67.54
991.67	67.56
992.027	67.59
992.383	67.56
992.74	67.67
993.096	67.74
993.453	67.7
993.809	67.76
994.165	67.79
994.522	67.89
994.878	67.94
995.234	67.86
995.59	67.91
995.946	67.85
996.302	67.83
996.658	67.76
997.013	67.77
997.369	67.88
997.725	67.87
998.08	67.96
998.436	67.92
998.791	67.93
999.147	67.89
999.502	67.91
999.857	67.94
1000.212	67.93
1000.567	67.94
1000.922	67.87
1001.277	67.9
1001.632	67.92
1001.987	67.87
1002.342	67.81
1002.696	67.71
1003.051	67.96
1003.406	68.2
1003.76	68.2
1004.114	67.99
1004.469	68.14
1004.823	68.48
1005.177	68.4
1005.531	68.54
1005.885	68.59
1006.239	68.64
1006.593	68.8
1006.947	68.82
1007.301	68.54
1007.655	68.47
1008.008	68.71
1008.362	68.67
1008.715	68.45
1009.069	68.49
1009.422	68.45
1009.776	68.55
1010.129	68.63
1010.482	68.67
1010.835	68.56
1011.188	68.6
1011.541	68.78
1011.894	68.92
1012.247	68.84
1012.6	68.78
1012.952	68.77
1013.305	68.89
1013.657	68.76
1014.01	68.78
1014.362	68.71
1014.715	68.86
1015.067	69.16
1015.419	69.19
1015.771	69
1016.123	69.07
1016.475	69.18
1016.827	69.15
1017.179	69
1017.531	69.08
1017.883	69.06
1018.234	69.27
1018.586	69.27
1018.938	69.35
1019.289	69.2
1019.64	69.24
1019.992	69.19
1020.343	69.31
1020.694	69.5
1021.045	69.39
1021.396	69.32
1021.747	69.23
1022.098	69.26
1022.449	69.02
1022.8	68.74
1023.151	68.78
1023.501	68.84
1023.852	68.88
1024.202	68.48
1024.553	68.37
1024.903	68.44
1025.253	68.7
1025.604	68.99
1025.954	68.41
1026.304	68.51
1026.654	68.44
1027.004	68.34
1027.354	68.24
1027.703	68.02
1028.053	68.25
1028.403	68.28
1028.753	67.96
1029.102	67.91
1029.452	67.85
1029.801	68.43
1030.15	68.47
1030.499	68.34
897.758	1635.47
901.051	1639.48
904.343	1639.65
907.636	1667.19
910.928	1622.89
914.22	1618.43
917.511	1596.53
920.803	1525.64
924.094	1520.39
927.384	1486.49
930.675	1423.35
933.965	1414.65
937.255	1334.46
940.544	1277.73
943.834	1217.58
947.123	1207.09
950.411	1138.99
953.7	1114.3
956.988	1056.76
960.276	1010.27
963.563	995.62
966.851	961.82
970.138	953.92
973.424	924.49
976.711	929.1
979.997	882.35
983.283	879.24
986.568	860.71
989.853	833.39
993.138	820.13
996.423	790.48
999.708	767.59
1002.992	760.86
1006.275	725.54
1009.559	718.34
1012.842	694.54
1016.125	677.12
1019.408	664.41
1022.69	655.58
1025.972	643.88
1029.254	627.9
1032.536	617.84
1035.817	605.02
1039.098	597.67
1042.379	585.19
1045.659	578.88
1048.939	565.29
1052.219	552.41
1055.498	544.73
1058.778	533.08
1062.057	520.33
1065.335	514.6
1068.614	507.92
1071.892	504.08
1075.17	486.65
1078.447	479.36
1081.724	476.14
1085.001	471.96
1088.278	463.93
1091.554	455.18
1094.83	454.7
1098.106	452.63
1101.382	447.77
1104.657	445.57
1107.932	438.08
1111.206	441.78
1114.481	430.4
1117.755	426.43
1121.029	423.13
1124.302	424.01
1127.575	414.65
1130.848	409.96
1134.121	405.97
1137.393	405.42
1140.665	396.89
1143.937	394.87
1147.208	390.44
1150.48	390.66
1153.75	385.5
1157.021	379.63
1160.291	379.27
1163.561	375.66
1166.831	375.61
1170.101	373.64
1173.37	371.04
1176.639	372.04
1179.907	367.9
1183.176	365.19
1186.444	364.87
1189.711	364.42
1192.979	363.72
1196.246	360.16
1199.513	362.54
1202.78	360.43
1206.046	359.45
1209.312	357.06
1212.578	357.8
1215.843	360.64
1219.108	358.12
1222.373	365
1225.638	368.16
1228.902	374.08
1232.166	373.63
1235.43	376.13
1238.693	381.08
1241.956	382.56
1245.219	389
1248.482	388.24
1251.744	388.6
1255.006	389.46
1258.268	380.17
1261.529	376.2
1264.79	372.56
1268.051	371.62
1271.312	367.63
1274.572	361.83
1277.832	359.67
1281.092	353.53
1284.351	351.22
1287.61	350.99
1290.869	346.11
1294.128	344
1297.386	343.64
1300.644	339.78
1303.902	341.46
1307.159	338.67
1310.416	340.47
1313.673	339.36
1316.93	342.65
1320.186	342.69
1323.442	343.83
1326.697	349.9
1329.953	350.44
1333.208	352.53
1336.463	356.82
1339.717	357.06
1342.972	362.26
1346.226	364.72
1349.479	365.25
1352.733	367.43
1355.986	368.28
1359.238	367.9
1362.491	370.8
1365.743	374.05
1368.995	373.56
1372.247	371.86
1375.498	372.12
1378.749	375.26
1382	369.7
1385.251	372
1388.501	369.63
1391.751	372.5
1395	369.88
1398.25	366.53
1401.499	365.32
1404.748	364.8
1407.996	362.06
1411.244	359.87
1414.492	358.05
1417.74	356.09
1420.987	349.73
1424.234	349.6
1427.481	343.37
1430.728	344.4
1433.974	339.94
1437.22	337.02
1440.465	335.9
1443.711	333.72
1446.956	332.36
1450.201	326.77
1453.445	324.25
1456.689	323.67
1459.933	317.57
1463.177	316.62
1466.42	310.92
1469.663	308.57
1472.906	307.05
1476.148	299.2
1479.391	295.59
1482.633	292.73
1485.874	289.46
1489.115	287.69
1492.356	283.68
1495.597	283.31
1498.838	278.95
1502.078	277.73
1505.318	276.14
1508.557	276.02
1511.797	276.69
1515.036	275.26
1518.274	274.02
1521.513	271.23
1524.751	271.1
1527.989	270.7
1531.227	269.81
1534.464	271.43
1537.701	269.08
1540.938	268.24
1544.174	264.37
1547.41	263.79
1550.646	262.38
1553.882	263
1557.117	260.43
1560.352	258.17
1563.587	257.74
1566.821	256.01
1570.055	252.5
1573.289	251.49
1576.523	251.13
1579.756	249.9
1582.989	248.59
1586.222	248.26
1589.454	246.69
1592.686	248.61
1595.918	248
1599.15	247.01
1602.381	247.11
1605.612	247.15
1608.843	248.22
1612.073	247.87
1615.303	249.38
1618.533	249.9
1621.762	248.6
1624.992	248.8
1628.221	248.25
1631.449	248.01
1634.678	247.85
1637.906	249.05
1641.134	248.97
1644.361	247.91
1647.588	249.36
1650.815	247.74
1654.042	245.93
1657.269	248.57
1660.495	248.55
1663.72	246.58
1666.946	247.55
1670.171	247.76
1673.396	247.23
1676.621	247.04
1679.845	247.9
1683.069	246.81
1686.293	248.85
1689.517	250.39
1692.74	249.87
1695.963	251.02
1699.185	254.81
1702.408	254.49
1705.63	255.46
1708.852	255.97
1712.073	257.22
1715.294	257.11
1718.515	258.83
1721.736	258.34
1724.956	258.91
1728.176	258.7
1731.396	260.96
1734.616	259.64
1737.835	261.05
1741.054	258.69
1744.272	259.81
1747.491	261.76
1750.709	262.81
1753.927	262.52
1757.144	261.46
1760.361	263.46
1763.578	263.34
1766.795	262.47
1770.011	263.64
1773.227	263.6
1776.443	267.5
1779.658	269.05
1782.874	267.48
1786.089	268.55
1789.303	269.42
1792.518	272.42
1795.732	271.58
1798.945	275.33
1802.159	274.64
1805.372	276.27
1808.585	281.04
1811.797	281.96
1815.01	281.38
1818.222	284.44
1821.434	285.67
1824.645	287.02
1827.856	291.58
1831.067	294.33
1834.278	291.63
1837.488	294.7
1840.698	296.67
1843.908	293.28
1847.117	295.53
1850.326	297.63
1853.535	295.81
1856.744	300.43
1859.952	299.5
1863.16	298.34
1866.368	295.59
1869.575	301.03
1872.782	295.16
1875.989	292.85
1879.196	291.87
1882.402	289.21
1885.608	289.65
1888.814	290.81
1892.019	288.39
1895.224	287.47
1898.429	284.96
1901.634	286.67
1904.838	284.53
1908.042	288.31
1911.246	289.93
1914.449	291.19
1917.652	289.75
1920.855	289.66
1924.058	289.31
1927.26	287.79
1930.462	289.72
1933.664	293.08
1936.865	290.33
1940.066	291.26
1943.267	288.91
1946.467	288.88
1949.668	290.69
1952.868	295.53
1956.067	295.1
1959.267	295.06
1962.466	296.45
1965.665	294.36
1968.863	295.62
1972.061	299.28
1975.259	302.46
1978.457	304.93
1981.654	306.08
1984.852	307.11
1988.048	305.85
1991.245	309.13
1994.441	313.44
1997.637	315.22
2000.833	321.58
2004.028	325.06
2007.223	327.84
2010.418	330.76
2013.613	336.19
2016.807	340.74
2020.001	343.57
2023.194	348.72
2026.388	356.62
2029.581	363.47
2032.774	367.59
2035.966	374.53
2039.158	375.7
2042.35	383.08
2045.542	384.12
2048.733	390.34
2051.924	396.29
2055.115	401.79
2058.306	402.32
2061.496	406.74
2064.686	407.15
2067.875	415.09
2071.065	415.5
2074.254	413.63
2077.442	418.1
2080.631	420.44
2083.819	425
2087.007	423.52
2090.195	429.42
2093.382	432.94
2096.569	429.09
2099.756	437.16
2102.942	436.55
2106.128	442.18
2109.314	452.85
2112.5	451.01
2115.685	460.34
2118.87	460.72
2122.055	471.13
2125.239	474.31
2128.424	481.31
2131.608	484.88
2134.791	489.56
2137.974	492.63
2141.157	493.74
2144.34	493.41
2147.523	500.74
2150.705	497.83
2153.887	501.11
2157.068	501.87
2160.25	497.7
2163.431	498.66
2166.611	503.96
2169.792	515.06
2172.972	518.94
2176.152	522.25
2179.331	530.4
2182.511	538.61
2185.69	544.67
2188.868	556.9
2192.047	558.16
2195.225	573.33
2198.403	587.84
2201.58	598.96
2204.758	609.58
2207.935	622.86
2211.111	633.93
2214.288	639.24
2217.464	643.01
2220.64	651.34
2223.815	660.28
2226.991	686.3
2230.166	688.84
2233.34	700.91
2236.515	711.26
2239.689	711.18
2242.863	715.37
2246.036	736.28
2249.209	729.03
2252.382	741.22
2255.555	763.73
2258.727	765.22
2261.9	769.01
2265.071	775.16
2268.243	788.36
2271.414	796.71
2274.585	814.81
2277.756	821.51
2280.926	825.47
2284.096	844.91
2287.266	863.16
2290.436	871.17
2293.605	891.97
2296.774	920.14
2299.942	949.68
2303.111	952.88
2306.279	977.59
2309.447	990.45
2312.614	1015.94
2315.781	1044.99
2318.948	1097.01
2322.115	1077.7
2325.281	1134.27
2328.447	1109.85
2331.613	1156.32
2334.779	1142.41
2337.944	1190.74
2341.109	1201.3
2344.274	1231.49
2347.438	1278.51
2350.602	1277.75
2353.766	1312.88
2356.929	1334.09
2360.092	1324.88
2363.255	1426.32
2366.418	1416.99
2369.58	1446.46
2372.742	1539.18
2375.904	1576.92
2379.066	1568.01
2382.227	1531.83
2385.388	1662.78
2388.548	1664.37
2391.709	1686.29
2394.869	1881.87
2398.029	1791.31
2401.188	1844.95
2404.347	1835.18
2407.506	1803.43
2410.665	1856.7
2413.823	1972.03
2416.981	2091.57
2420.139	2018.96
2423.296	1996.36
2426.453	2089.11
2429.61	2005.1
2432.767	2102.81
2435.923	2083.69
2439.079	2274.17
2442.235	2296.62
2445.391	2272.56
2448.546	2253.23
2451.701	2188.98
2454.855	2189.85
2458.009	2320.71
2461.163	2409.77
2464.317	2498.43
2467.471	2560.71
2470.624	2560.92
2473.777	2495.49
2476.929	2432.68
2480.082	2366.37
2483.234	2335.59
2486.385	2452.4
2489.537	2465.65
2492.688	2563.71
2495.839	2476.39
2498.989	2429.36
2502.14	2444.05
2505.29	2472.14
2508.439	2507.03
2511.589	2507.74
2514.738	2727.94
2517.887	2674.19
2521.035	2825.49
2524.183	2843.21
2527.331	2866.21
2530.479	2870.32
2533.627	2882.26
