Data from N_3_HIR_IL_4N_Splice17_14-28-53-158.txt Node
Date: Sat Mar 07 14:28:53 EST 2020
User: sa697716
Spectrometer: NQ5500242
Trigger mode: 0
Integration Time (sec): 1.450000E-1
Scans to average: 20
Nonlinearity correction enabled: false
Boxcar width: 5
Storing dark spectrum: false
XAxis mode: Wavelengths
Number of Pixels in Spectrum: 512
>>>>>Begin Spectral Data<<<<<
187.83	223.99
188.298	219.72
188.766	186.23
189.233	168.89
189.701	171.43
190.169	214.08
190.636	283.19
191.104	405.83
191.571	413.44
192.039	399.35
192.506	170.84
192.974	140.79
193.441	78.06
193.908	26.17
194.375	81.36
194.842	37.14
195.31	117.55
195.777	329.08
196.244	55.11
196.711	58.45
197.177	60.82
197.644	60.13
198.111	60.13
198.578	60.87
199.045	60.8
199.511	60.4
199.978	60.24
200.445	60.59
200.911	60.72
201.378	61.17
201.844	61.2
202.31	61.26
202.777	61.06
203.243	60.95
203.709	60.49
204.176	59.79
204.642	59.6
205.108	59.54
205.574	58.92
206.04	58.22
206.506	57.31
206.972	56.77
207.438	55.91
207.903	55.12
208.369	53.79
208.835	52.67
209.301	51.66
209.766	50.14
210.232	48.56
210.697	47.09
211.163	46.02
211.628	45.13
212.094	43.91
212.559	42.96
213.024	41.95
213.49	41.17
213.955	40.13
214.42	39.28
214.885	38.24
215.35	36.96
215.815	35.04
216.28	32.39
216.745	29.6
217.21	27.04
217.675	24.46
218.14	22.33
218.604	20.41
219.069	18.79
219.534	17.4
219.998	16.31
220.463	15.36
220.927	14.55
221.392	13.93
221.856	13.41
222.32	12.9
222.785	12.49
223.249	12.08
223.713	11.77
224.177	11.49
224.642	11.25
225.106	10.96
225.57	10.71
226.034	10.51
226.497	10.3
226.961	10.11
227.425	9.94
227.889	9.78
228.353	9.61
228.816	9.44
229.28	9.3
229.744	9.14
230.207	9
230.671	8.85
231.134	8.73
231.597	8.62
232.061	8.49
232.524	8.37
232.987	8.24
233.45	8.15
233.914	8.06
234.377	7.95
234.84	7.85
235.303	7.78
235.766	7.7
236.229	7.59
236.691	7.51
237.154	7.43
237.617	7.36
238.08	7.29
238.542	7.22
239.005	7.15
239.468	7.09
239.93	7.02
240.393	6.96
240.855	6.88
241.317	6.81
241.78	6.75
242.242	6.68
242.704	6.61
243.166	6.55
243.629	6.5
244.091	6.42
244.553	6.35
245.015	6.29
245.477	6.22
245.939	6.17
246.4	6.11
246.862	6.05
247.324	6.01
247.786	5.96
248.247	5.9
248.709	5.83
249.17	5.77
249.632	5.73
250.093	5.69
250.555	5.64
251.016	5.6
251.477	5.55
251.939	5.51
252.4	5.46
252.861	5.42
253.322	5.38
253.783	5.35
254.244	5.32
254.705	5.28
255.166	5.24
255.627	5.21
256.088	5.18
256.549	5.15
257.009	5.12
257.47	5.08
257.931	5.04
258.391	5
258.852	4.96
259.312	4.93
259.773	4.89
260.233	4.85
260.694	4.81
261.154	4.77
261.614	4.74
262.074	4.7
262.534	4.66
262.994	4.64
263.455	4.6
263.915	4.57
264.374	4.55
264.834	4.52
265.294	4.5
265.754	4.48
266.214	4.46
266.673	4.44
267.133	4.42
267.593	4.41
268.052	4.4
268.512	4.39
268.971	4.37
269.431	4.36
269.89	4.34
270.349	4.33
270.809	4.31
271.268	4.3
271.727	4.28
272.186	4.28
272.645	4.26
273.104	4.25
273.563	4.23
274.022	4.22
274.481	4.22
274.94	4.21
275.399	4.2
275.857	4.19
276.316	4.18
276.775	4.17
277.233	4.16
277.692	4.15
278.15	4.14
278.609	4.14
279.067	4.13
279.525	4.12
279.984	4.11
280.442	4.11
280.9	4.1
281.358	4.09
281.816	4.09
282.274	4.09
282.732	4.08
283.19	4.07
283.648	4.05
284.106	4.04
284.564	4.04
285.021	4.04
285.479	4.03
285.937	4.02
286.394	4.03
286.852	4.01
287.309	3.99
287.767	3.98
288.224	3.97
288.682	3.96
289.139	3.94
289.596	3.91
290.053	3.89
290.511	3.87
290.968	3.85
291.425	3.82
291.882	3.8
292.339	3.79
292.796	3.77
293.252	3.76
293.709	3.75
294.166	3.74
294.623	3.73
295.079	3.72
295.536	3.71
295.992	3.7
296.449	3.69
296.905	3.69
297.362	3.67
297.818	3.66
298.274	3.65
298.731	3.64
299.187	3.63
299.643	3.61
300.099	3.6
300.555	3.58
301.011	3.57
301.467	3.57
301.923	3.55
302.379	3.55
302.835	3.55
303.291	3.54
303.746	3.54
304.202	3.55
304.658	3.55
305.113	3.55
305.569	3.55
306.024	3.55
306.479	3.54
306.935	3.54
307.39	3.54
307.845	3.54
308.301	3.55
308.756	3.55
309.211	3.54
309.666	3.55
310.121	3.55
310.576	3.55
311.031	3.55
311.486	3.55
311.94	3.56
312.395	3.55
312.85	3.55
313.305	3.55
313.759	3.55
314.214	3.54
314.668	3.54
315.123	3.54
315.577	3.53
316.032	3.53
316.486	3.52
316.94	3.52
317.394	3.52
317.849	3.51
318.303	3.49
318.757	3.48
319.211	3.48
319.665	3.46
320.119	3.45
320.572	3.44
321.026	3.43
321.48	3.42
321.934	3.41
322.387	3.39
322.841	3.39
323.295	3.39
323.748	3.38
324.202	3.37
324.655	3.38
325.108	3.38
325.562	3.38
326.015	3.38
326.468	3.37
326.921	3.37
327.374	3.38
327.827	3.38
328.28	3.37
328.733	3.38
329.186	3.39
329.639	3.38
330.092	3.39
330.545	3.39
330.997	3.39
331.45	3.4
331.903	3.41
332.355	3.42
332.808	3.41
333.26	3.41
333.713	3.41
334.165	3.41
334.617	3.42
335.069	3.42
335.522	3.43
335.974	3.45
336.426	3.44
336.878	3.43
337.33	3.43
337.782	3.44
338.234	3.45
338.686	3.45
339.137	3.46
339.589	3.45
340.041	3.45
340.493	3.43
340.944	3.41
341.396	3.4
341.847	3.39
342.299	3.38
342.75	3.36
343.201	3.34
343.653	3.33
344.104	3.31
344.555	3.3
345.006	3.29
345.457	3.28
345.908	3.27
346.359	3.27
346.81	3.27
347.261	3.26
347.712	3.27
348.163	3.26
348.613	3.26
349.064	3.26
349.515	3.27
349.965	3.27
350.416	3.26
350.866	3.26
351.317	3.26
351.767	3.26
352.217	3.27
352.668	3.26
353.118	3.27
353.568	3.26
354.018	3.27
354.468	3.26
354.918	3.26
355.368	3.27
355.818	3.28
356.268	3.28
356.718	3.28
357.168	3.28
357.617	3.28
358.067	3.28
358.517	3.3
358.966	3.3
359.416	3.3
359.865	3.3
360.315	3.31
360.764	3.3
361.213	3.29
361.663	3.29
362.112	3.3
362.561	3.31
363.01	3.31
363.459	3.29
363.908	3.29
364.357	3.29
364.806	3.28
365.255	3.29
365.703	3.3
366.152	3.32
366.601	3.32
367.05	3.32
367.498	3.32
367.947	3.31
368.395	3.33
368.844	3.34
369.292	3.34
369.74	3.35
370.189	3.34
370.637	3.34
371.085	3.32
371.533	3.32
371.981	3.32
372.429	3.33
372.877	3.33
373.325	3.33
373.773	3.33
374.221	3.33
374.669	3.34
375.116	3.34
375.564	3.35
376.012	3.35
376.459	3.36
376.907	3.37
377.354	3.37
377.801	3.39
378.249	3.39
378.696	3.4
379.143	3.4
379.591	3.41
380.038	3.41
380.485	3.42
380.932	3.44
381.379	3.45
381.826	3.46
382.273	3.47
382.72	3.47
383.166	3.48
383.613	3.5
384.06	3.51
384.506	3.52
384.953	3.54
385.4	3.55
385.846	3.56
386.292	3.58
386.739	3.59
387.185	3.61
387.631	3.63
388.078	3.65
388.524	3.67
388.97	3.68
389.416	3.71
389.862	3.73
390.308	3.77
390.754	3.81
391.2	3.83
391.645	3.87
392.091	3.9
392.537	3.94
392.983	3.96
393.428	3.99
393.874	4.02
394.319	4.04
394.765	4.07
395.21	4.08
395.655	4.11
396.101	4.14
396.546	4.16
396.991	4.19
397.436	4.22
397.881	4.27
398.326	4.3
398.771	4.35
399.216	4.38
399.661	4.43
400.106	4.46
400.551	4.49
400.995	4.51
401.44	4.54
401.885	4.56
402.329	4.59
402.774	4.62
403.218	4.67
403.663	4.69
404.107	4.72
404.551	4.74
404.995	4.78
405.44	4.79
405.884	4.81
406.328	4.85
406.772	4.88
407.216	4.9
407.66	4.91
408.104	4.91
408.547	4.93
408.991	4.96
409.435	4.97
409.879	4.99
410.322	5.03
410.766	5.06
411.209	5.1
411.653	5.13
412.096	5.15
412.54	5.18
412.983	5.2
413.426	5.25
413.869	5.28
414.312	5.33
414.756	5.36
415.199	5.36
415.642	5.38
416.085	5.39
416.527	5.39
416.97	5.4
417.413	5.41
417.856	5.42
418.298	5.41
418.741	5.4
419.184	5.4
419.626	5.41
420.069	5.42
420.511	5.43
420.953	5.44
421.396	5.46
421.838	5.47
422.28	5.48
422.722	5.51
423.164	5.52
423.606	5.54
424.048	5.56
424.49	5.58
424.932	5.6
425.374	5.6
425.816	5.59
426.258	5.58
426.699	5.56
427.141	5.56
427.582	5.56
428.024	5.57
428.465	5.58
428.907	5.57
429.348	5.55
429.789	5.55
430.231	5.57
430.672	5.6
431.113	5.62
431.554	5.65
431.995	5.68
432.436	5.68
432.877	5.69
433.318	5.71
433.759	5.75
434.2	5.78
434.64	5.81
435.081	5.82
435.522	5.84
435.962	5.87
436.403	5.9
436.843	5.92
437.284	5.94
437.724	5.97
438.164	5.96
438.604	5.97
439.045	5.97
439.485	5.99
439.925	5.99
440.365	5.99
440.805	6
441.245	6.02
441.685	6.03
442.125	6.06
442.564	6.07
443.004	6.1
443.444	6.12
443.883	6.14
444.323	6.14
444.762	6.17
445.202	6.2
445.641	6.22
446.081	6.24
446.52	6.25
446.959	6.28
447.398	6.29
447.837	6.31
448.276	6.33
448.716	6.36
449.154	6.39
449.593	6.42
450.032	6.43
450.471	6.43
450.91	6.43
451.349	6.45
451.787	6.44
452.226	6.44
452.664	6.44
453.103	6.42
453.541	6.42
453.98	6.42
454.418	6.4
454.856	6.38
455.295	6.37
455.733	6.34
456.171	6.33
456.609	6.31
457.047	6.3
457.485	6.28
457.923	6.28
458.361	6.26
458.798	6.25
459.236	6.24
459.674	6.24
460.111	6.24
460.549	6.26
460.987	6.26
461.424	6.28
461.862	6.28
462.299	6.29
462.736	6.29
463.173	6.29
463.611	6.28
464.048	6.29
464.485	6.29
464.922	6.29
465.359	6.29
465.796	6.29
466.233	6.29
466.67	6.3
467.106	6.3
467.543	6.29
467.98	6.3
468.416	6.3
468.853	6.3
469.29	6.3
469.726	6.31
470.162	6.31
470.599	6.31
471.035	6.31
471.471	6.31
471.907	6.32
472.344	6.34
472.78	6.35
473.216	6.35
473.652	6.35
474.088	6.34
474.523	6.35
474.959	6.36
475.395	6.34
475.831	6.33
476.266	6.34
476.702	6.32
477.138	6.31
477.573	6.32
478.008	6.32
478.444	6.31
478.879	6.31
479.314	6.31
479.75	6.31
480.185	6.31
480.62	6.3
481.055	6.29
481.49	6.3
481.925	6.3
482.36	6.28
482.795	6.27
483.229	6.28
483.664	6.29
484.099	6.27
484.534	6.26
484.968	6.27
485.403	6.28
485.837	6.29
486.271	6.3
486.706	6.3
487.14	6.32
487.574	6.34
488.009	6.35
488.443	6.37
488.877	6.4
489.311	6.43
489.745	6.45
490.179	6.47
490.613	6.51
491.046	6.54
491.48	6.57
491.914	6.61
492.348	6.65
492.781	6.7
493.215	6.75
493.648	6.8
494.082	6.84
494.515	6.89
494.948	6.95
495.382	7
495.815	7.06
496.248	7.13
496.681	7.19
497.114	7.25
497.547	7.32
497.98	7.39
498.413	7.47
498.846	7.56
499.279	7.64
499.711	7.72
500.144	7.83
500.577	7.93
501.009	8.02
501.442	8.12
501.874	8.24
502.306	8.35
502.739	8.47
503.171	8.6
503.603	8.72
504.036	8.85
504.468	8.99
504.9	9.12
505.332	9.27
505.764	9.42
506.196	9.58
506.627	9.73
507.059	9.9
507.491	10.06
507.923	10.23
508.354	10.41
508.786	10.6
509.217	10.78
509.649	10.97
510.08	11.16
510.512	11.34
510.943	11.54
511.374	11.74
511.805	11.96
512.237	12.17
512.668	12.37
513.099	12.58
513.53	12.78
513.961	13
514.391	13.24
514.822	13.46
515.253	13.69
515.684	13.91
516.114	14.13
516.545	14.35
516.975	14.57
517.406	14.81
517.836	15.03
518.267	15.27
518.697	15.48
519.127	15.7
519.558	15.92
519.988	16.14
520.418	16.36
520.848	16.57
521.278	16.77
521.708	17.09
522.138	17.29
522.567	17.48
522.997	17.67
523.427	17.86
523.857	18.04
524.286	18.21
524.716	18.37
525.145	18.54
525.575	18.71
526.004	18.88
526.433	18.91
526.863	19.05
527.292	19.21
527.721	19.34
528.15	19.47
528.579	19.59
529.008	19.73
529.437	19.83
529.866	19.95
530.295	20.06
530.724	20.16
531.152	20.27
531.581	20.37
532.01	20.46
532.438	20.54
532.867	20.62
533.295	20.7
533.723	20.76
534.152	20.83
534.58	20.89
535.008	20.93
535.436	20.98
535.865	21.01
536.293	21.05
536.721	21.08
537.149	21.12
537.576	21.15
538.004	21.17
538.432	21.22
538.86	21.23
539.287	21.25
539.715	21.29
540.143	21.32
540.57	21.35
540.998	21.37
541.425	21.41
541.852	21.44
542.28	21.48
542.707	21.53
543.134	21.53
543.561	21.57
543.988	21.59
544.415	21.6
544.842	21.62
545.269	21.64
545.696	21.68
546.123	21.68
546.549	21.71
546.976	21.73
547.403	21.75
547.829	21.78
548.256	21.81
548.682	21.85
549.108	21.88
549.535	21.9
549.961	21.9
550.387	21.91
550.813	21.93
551.24	21.93
551.666	21.94
552.092	21.94
552.518	21.93
552.943	21.91
553.369	21.9
553.795	21.89
554.221	21.9
554.646	21.89
555.072	21.87
555.498	21.86
555.923	21.83
556.349	21.79
556.774	21.76
557.199	21.74
557.625	21.71
558.05	21.68
558.475	21.64
558.9	21.59
559.325	21.55
559.75	21.5
560.175	21.44
560.6	21.38
561.025	21.32
561.449	21.25
561.874	21.17
562.299	21.08
562.723	20.99
563.148	20.92
563.572	20.82
563.997	20.73
564.421	20.63
564.846	20.53
565.27	20.42
565.694	20.32
566.118	20.21
566.542	20.1
566.966	20
567.39	19.88
567.814	19.76
568.238	19.64
568.662	19.53
569.086	19.41
569.509	19.3
569.933	19.19
570.357	19.07
570.78	18.97
571.204	18.85
571.627	18.76
572.05	18.65
572.474	18.56
572.897	18.47
573.32	18.36
573.743	18.28
574.166	18.18
574.589	18.09
575.012	18.01
575.435	17.92
575.858	17.84
576.281	17.77
576.704	17.71
577.126	17.63
577.549	17.56
577.972	17.49
578.394	17.42
578.817	17.36
579.239	17.3
579.661	17.24
580.084	17.18
580.506	17.12
580.928	17.06
581.35	16.99
581.772	16.94
582.194	16.89
582.616	16.84
583.038	16.78
583.46	16.71
583.882	16.67
584.303	16.61
584.725	16.57
585.147	16.52
585.568	16.48
585.99	16.44
586.411	16.39
586.833	16.34
587.254	16.29
587.675	16.24
588.096	16.22
588.518	16.18
588.939	16.14
589.36	16.1
589.781	16.07
590.202	16.03
590.623	16.01
591.043	15.98
591.464	15.95
591.885	15.92
592.305	15.9
592.726	15.89
593.147	15.85
593.567	15.82
593.987	15.8
594.408	15.77
594.828	15.75
595.248	15.71
595.669	15.69
596.089	15.65
596.509	15.63
596.929	15.59
597.349	15.55
597.769	15.53
598.189	15.5
598.608	15.48
599.028	15.45
599.448	15.4
599.867	15.37
600.287	15.33
600.706	15.31
601.126	15.27
601.545	15.23
601.965	15.19
602.384	15.16
602.803	15.12
603.222	15.06
603.641	15.01
604.061	14.97
604.48	14.92
604.898	14.87
605.317	14.82
605.736	14.78
606.155	14.74
606.574	14.68
606.992	14.62
607.411	14.57
607.829	14.49
608.248	14.42
608.666	14.36
609.085	14.31
609.503	14.25
609.921	14.19
610.339	14.12
610.758	14.07
611.176	13.99
611.594	13.94
612.012	13.86
612.43	13.83
612.847	13.78
613.265	13.72
613.683	13.65
614.101	13.59
614.518	13.53
614.936	13.47
615.353	13.41
615.771	13.35
616.188	13.3
616.606	13.26
617.023	13.2
617.44	13.17
617.857	13.13
618.274	13.09
618.691	13.04
619.108	13
619.525	12.97
619.942	12.93
620.359	12.91
620.776	12.87
621.192	12.84
621.609	12.83
622.026	12.79
622.442	12.76
622.859	12.74
623.275	12.73
623.691	12.71
624.108	12.69
624.524	12.68
624.94	12.67
625.356	12.67
625.772	12.65
626.188	12.63
626.604	12.62
627.02	12.62
627.436	12.6
627.852	12.59
628.268	12.58
628.683	12.56
629.099	12.55
629.514	12.53
629.93	12.51
630.345	12.5
630.761	12.47
631.176	12.44
631.591	12.41
632.007	12.37
632.422	12.34
632.837	12.3
633.252	12.25
633.667	12.19
634.082	12.13
634.497	12.08
634.911	12.01
635.326	11.95
635.741	11.87
636.155	11.8
636.57	11.73
636.984	11.65
637.399	11.56
637.813	11.48
638.228	11.38
638.642	11.29
639.056	11.18
639.47	11.1
639.884	11.01
640.298	10.91
640.712	10.82
641.126	10.71
641.54	10.6
641.954	10.5
642.368	10.4
642.781	10.32
643.195	10.23
643.609	10.15
644.022	10.04
644.436	9.95
644.849	9.86
645.262	9.77
645.676	9.7
646.089	9.62
646.502	9.56
646.915	9.5
647.328	9.44
647.741	9.38
648.154	9.32
648.567	9.27
648.98	9.21
649.393	9.17
649.805	9.14
650.218	9.1
650.631	9.07
651.043	9.03
651.456	8.99
651.868	8.95
652.28	8.91
652.693	8.87
653.105	8.84
653.517	8.8
653.929	8.76
654.341	8.7
654.753	8.64
655.165	8.57
655.577	8.51
655.989	8.44
656.401	8.37
656.813	8.31
657.224	8.23
657.636	8.15
658.047	8.09
658.459	8
658.87	7.92
659.282	7.83
659.693	7.77
660.104	7.69
660.515	7.61
660.926	7.53
661.338	7.44
661.749	7.37
662.159	7.3
662.57	7.23
662.981	7.17
663.392	7.1
663.803	7.05
664.213	6.99
664.624	6.93
665.035	6.89
665.445	6.85
665.855	6.81
666.266	6.78
666.676	6.75
667.086	6.7
667.497	6.66
667.907	6.64
668.317	6.61
668.727	6.58
669.137	6.57
669.547	6.55
669.956	6.53
670.366	6.53
670.776	6.51
671.186	6.5
671.595	6.51
672.005	6.49
672.414	6.49
672.824	6.49
673.233	6.51
673.642	6.51
674.052	6.53
674.461	6.54
674.87	6.55
675.279	6.57
675.688	6.6
676.097	6.63
676.506	6.67
676.915	6.7
677.323	6.74
677.732	6.77
678.141	6.81
678.549	6.84
678.958	6.89
679.366	6.96
679.775	7.01
680.183	7.07
680.592	7.15
681	7.24
681.408	7.32
681.816	7.43
682.224	7.55
682.632	7.68
683.04	7.82
683.448	7.97
683.856	8.12
684.264	8.29
684.671	8.49
685.079	8.69
685.487	8.91
685.894	9.16
686.302	9.42
686.709	9.69
687.116	9.98
687.524	10.3
687.931	10.64
688.338	10.98
688.745	11.35
689.152	11.72
689.559	12.12
689.966	12.51
690.373	12.93
690.78	13.34
691.187	13.77
691.593	14.19
692	14.62
692.407	15.04
692.813	15.48
693.22	15.92
693.626	16.36
694.032	16.81
694.439	17.25
694.845	17.67
695.251	18.11
695.657	18.53
696.063	18.94
696.469	19.35
696.875	19.78
697.281	20.18
697.687	20.59
698.093	20.98
698.498	21.34
698.904	21.73
699.31	22.1
699.715	22.46
700.12	22.82
700.526	23.17
700.931	23.52
701.337	23.83
701.742	24.17
702.147	24.46
702.552	24.78
702.957	25.08
703.362	25.36
703.767	25.63
704.172	25.93
704.577	26.2
704.981	26.48
705.386	26.74
705.791	27.01
706.195	27.25
706.6	27.53
707.004	27.77
707.408	28.04
707.813	28.28
708.217	28.52
708.621	28.74
709.025	28.94
709.43	29.13
709.834	29.36
710.237	29.56
710.641	29.77
711.045	29.95
711.449	30.15
711.853	30.33
712.256	30.53
712.66	30.72
713.064	30.89
713.467	31.09
713.87	31.27
714.274	31.43
714.677	31.6
715.08	31.77
715.484	31.95
715.887	32.12
716.29	32.27
716.693	32.41
717.096	32.57
717.499	32.72
717.901	32.86
718.304	33
718.707	33.15
719.109	33.28
719.512	33.4
719.915	33.51
720.317	33.61
720.719	33.71
721.122	33.82
721.524	33.94
721.926	34.06
722.328	34.18
722.731	34.3
723.133	34.41
723.535	34.53
723.937	34.62
724.338	34.71
724.74	34.79
725.142	34.94
725.544	35.05
725.945	35.15
726.347	35.19
726.748	35.26
727.15	35.31
727.551	35.35
727.952	35.4
728.354	35.5
728.755	35.58
729.156	35.65
729.557	35.65
729.958	35.68
730.359	35.71
730.76	35.79
731.161	35.85
731.562	35.91
731.962	35.97
732.363	36.03
732.763	36.04
733.164	36.07
733.564	36.11
733.965	36.14
734.365	36.19
734.766	36.23
735.166	36.25
735.566	36.27
735.966	36.29
736.366	36.32
736.766	36.34
737.166	36.37
737.566	36.41
737.966	36.43
738.365	36.47
738.765	36.49
739.165	36.49
739.564	36.52
739.964	36.54
740.363	36.57
740.763	36.58
741.162	36.61
741.561	36.61
741.96	36.61
742.36	36.64
742.759	36.64
743.158	36.65
743.557	36.66
743.955	36.69
744.354	36.71
744.753	36.75
745.152	36.79
745.55	36.81
745.949	36.86
746.348	36.91
746.746	36.93
747.144	36.96
747.543	36.99
747.941	37.02
748.339	37
748.737	37
749.136	36.99
749.534	36.97
749.932	36.97
750.33	36.95
750.727	36.93
751.125	36.92
751.523	36.93
751.921	36.9
752.318	36.9
752.716	36.9
753.113	36.9
753.511	36.9
753.908	36.92
754.305	36.92
754.703	36.89
755.1	36.9
755.497	36.89
755.894	36.86
756.291	36.87
756.688	36.84
757.085	36.85
757.482	36.83
757.878	36.81
758.275	36.79
758.672	36.77
759.068	36.79
759.465	36.8
759.861	36.78
760.258	36.79
760.654	36.79
761.05	36.81
761.447	36.8
761.843	36.81
762.239	36.83
762.635	36.84
763.031	36.85
763.427	36.84
763.822	36.83
764.218	36.85
764.614	36.85
765.01	36.85
765.405	36.85
765.801	36.84
766.196	36.83
766.592	36.79
766.987	36.79
767.382	36.77
767.778	36.75
768.173	36.76
768.568	36.76
768.963	36.75
769.358	36.79
769.753	36.78
770.148	36.79
770.542	36.81
770.937	36.86
771.332	36.84
771.726	36.88
772.121	36.9
772.515	36.89
772.91	36.86
773.304	36.88
773.699	36.85
774.093	36.85
774.487	36.84
774.881	36.85
775.275	36.83
775.669	36.82
776.063	36.8
776.457	36.78
776.851	36.78
777.245	36.77
777.638	36.77
778.032	36.77
778.425	36.8
778.819	36.81
779.212	36.81
779.606	36.81
779.999	36.82
780.392	36.84
780.786	36.86
781.179	36.86
781.572	36.89
781.965	36.9
782.358	36.91
782.751	36.87
783.143	36.86
783.536	36.87
783.929	36.87
784.322	36.9
784.714	36.89
785.107	36.91
785.499	36.92
785.891	36.93
786.284	36.93
786.676	36.95
787.068	36.98
787.46	36.98
787.852	37
788.245	37
788.636	36.97
789.028	36.96
789.42	36.97
789.812	36.99
790.204	36.99
790.595	36.97
790.987	36.96
791.378	36.97
791.77	36.97
792.161	36.95
792.553	36.95
792.944	36.95
793.335	36.99
793.726	36.99
794.117	36.95
794.508	36.93
794.899	36.96
795.29	36.96
795.681	36.92
796.072	36.92
796.463	36.94
796.853	36.93
797.244	36.94
797.634	36.94
798.025	36.94
798.415	36.97
798.806	36.95
799.196	36.96
799.586	36.97
799.976	37.02
800.366	37.02
800.756	37.03
801.146	37.07
801.536	37.1
801.926	37.1
802.316	37.12
802.706	37.14
803.095	37.18
803.485	37.19
803.874	37.19
804.264	37.19
804.653	37.2
805.043	37.21
805.432	37.21
805.821	37.23
806.21	37.23
806.599	37.22
806.988	37.2
807.377	37.21
807.766	37.24
808.155	37.25
808.544	37.25
808.933	37.26
809.321	37.25
809.71	37.25
810.098	37.23
810.487	37.24
810.875	37.24
811.264	37.25
811.652	37.24
812.04	37.22
812.428	37.26
812.816	37.26
813.204	37.25
813.592	37.24
813.98	37.27
814.368	37.29
814.756	37.28
815.144	37.3
815.531	37.3
815.919	37.31
816.306	37.32
816.694	37.29
817.081	37.31
817.469	37.33
817.856	37.35
818.243	37.33
818.63	37.33
819.017	37.32
819.404	37.32
819.791	37.32
820.178	37.34
820.565	37.32
820.952	37.3
821.339	37.28
821.725	37.26
822.112	37.26
822.498	37.24
822.885	37.25
823.271	37.25
823.657	37.21
824.044	37.22
824.43	37.19
824.816	37.17
825.202	37.18
825.588	37.19
825.974	37.2
826.36	37.19
826.746	37.19
827.132	37.15
827.517	37.14
827.903	37.16
828.289	37.17
828.674	37.15
829.06	37.13
829.445	37.1
829.83	37.07
830.216	37.04
830.601	37.01
830.986	37
831.371	36.99
831.756	36.98
832.141	36.95
832.526	36.92
832.911	36.91
833.295	36.9
833.68	36.89
834.065	36.88
834.449	36.86
834.834	36.85
835.218	36.85
835.603	36.83
835.987	36.82
836.371	36.79
836.755	36.76
837.139	36.74
837.524	36.75
837.908	36.77
838.291	36.78
838.675	36.77
839.059	36.76
839.443	36.72
839.827	36.7
840.21	36.69
840.594	36.7
840.977	36.69
841.361	36.68
841.744	36.64
842.127	36.59
842.511	36.57
842.894	36.56
843.277	36.56
843.66	36.55
844.043	36.56
844.426	36.54
844.809	36.53
845.191	36.54
845.574	36.54
845.957	36.56
846.339	36.59
846.722	36.58
847.104	36.58
847.487	36.58
847.869	36.58
848.252	36.57
848.634	36.57
849.016	36.59
849.398	36.59
849.78	36.6
850.162	36.6
850.544	36.58
850.926	36.6
851.307	36.6
851.689	36.6
852.071	36.61
852.452	36.61
852.834	36.61
853.215	36.58
853.597	36.57
853.978	36.56
854.359	36.57
854.741	36.56
855.122	36.53
855.503	36.51
855.884	36.48
856.265	36.48
856.646	36.49
857.026	36.5
857.407	36.51
857.788	36.52
858.169	36.53
858.549	36.51
858.93	36.52
859.31	36.55
859.69	36.56
860.071	36.6
860.451	36.59
860.831	36.59
861.211	36.56
861.591	36.53
861.971	36.53
862.351	36.53
862.731	36.55
863.111	36.53
863.491	36.52
863.87	36.51
864.25	36.48
864.629	36.47
865.009	36.46
865.388	36.46
865.768	36.49
866.147	36.48
866.526	36.49
866.905	36.48
867.284	36.49
867.663	36.5
868.042	36.52
868.421	36.53
868.8	36.55
869.179	36.55
869.558	36.55
869.936	36.53
870.315	36.51
870.693	36.51
871.072	36.51
871.45	36.51
871.828	36.5
872.207	36.52
872.585	36.51
872.963	36.5
873.341	36.5
873.719	36.52
874.097	36.55
874.475	36.58
874.853	36.58
875.23	36.59
875.608	36.59
875.986	36.61
876.363	36.59
876.741	36.59
877.118	36.59
877.495	36.59
877.873	36.58
878.25	36.59
878.627	36.59
879.004	36.6
879.381	36.59
879.758	36.58
880.135	36.57
880.512	36.56
880.889	36.57
881.265	36.56
881.642	36.57
882.019	36.57
882.395	36.53
882.772	36.5
883.148	36.46
883.524	36.46
883.901	36.46
884.277	36.43
884.653	36.4
885.029	36.39
885.405	36.36
885.781	36.37
886.157	36.37
886.532	36.39
886.908	36.4
887.284	36.4
887.659	36.37
888.035	36.34
888.411	36.34
888.786	36.34
889.161	36.34
889.537	36.36
889.912	36.34
890.287	36.32
890.662	36.29
891.037	36.28
891.412	36.24
891.787	36.23
892.162	36.23
892.536	36.22
892.911	36.21
893.286	36.21
893.66	36.18
894.035	36.16
894.409	36.14
894.784	36.14
895.158	36.12
895.532	36.13
895.906	36.14
896.281	36.12
896.655	36.12
897.029	36.12
897.402	36.1
897.776	36.11
898.15	36.12
898.524	36.13
898.898	36.14
899.271	36.16
899.645	36.18
900.018	36.22
900.392	36.23
900.765	36.25
901.138	36.26
901.511	36.27
901.884	36.29
902.258	36.29
902.631	36.3
903.003	36.31
903.376	36.31
903.749	36.3
904.122	36.29
904.495	36.31
904.867	36.31
905.24	36.33
905.612	36.33
905.985	36.33
906.357	36.32
906.729	36.33
907.102	36.32
907.474	36.33
907.846	36.33
908.218	36.34
908.59	36.36
908.962	36.36
909.334	36.35
909.705	36.34
910.077	36.35
910.449	36.36
910.82	36.36
911.192	36.37
911.563	36.35
911.935	36.36
912.306	36.36
912.677	36.36
913.048	36.36
913.419	36.36
913.79	36.38
914.161	36.38
914.532	36.38
914.903	36.41
915.274	36.43
915.645	36.46
916.015	36.46
916.386	36.49
916.756	36.49
917.127	36.51
917.497	36.52
917.868	36.53
918.238	36.52
918.608	36.54
918.978	36.54
919.348	36.53
919.718	36.51
920.088	36.54
920.458	36.53
920.828	36.53
921.198	36.51
921.567	36.53
921.937	36.56
922.306	36.57
922.676	36.57
923.045	36.55
923.415	36.54
923.784	36.55
924.153	36.54
924.522	36.53
924.891	36.55
925.26	36.56
925.629	36.59
925.998	36.58
926.367	36.59
926.736	36.57
927.104	36.61
927.473	36.63
927.842	36.62
928.21	36.65
928.578	36.63
928.947	36.64
929.315	36.64
929.683	36.63
930.051	36.63
930.42	36.63
930.788	36.64
931.156	36.59
931.523	36.58
931.891	36.6
932.259	36.58
932.627	36.61
932.994	36.61
933.362	36.6
933.729	36.58
934.097	36.58
934.464	36.59
934.831	36.61
935.199	36.65
935.566	36.67
935.933	36.7
936.3	36.72
936.667	36.73
937.034	36.75
937.401	36.82
937.767	36.85
938.134	36.88
938.501	36.92
938.867	36.94
939.234	36.99
939.6	37.03
939.967	37.03
940.333	37.03
940.699	37.05
941.065	37.04
941.431	36.98
941.798	37
942.163	36.96
942.529	36.99
942.895	37
943.261	36.98
943.627	36.98
943.992	36.96
944.358	36.97
944.723	36.96
945.089	36.91
945.454	36.98
945.82	36.99
946.185	37.02
946.55	36.94
946.915	36.93
947.28	36.87
947.645	36.87
948.01	36.88
948.375	36.87
948.74	36.86
949.104	36.9
949.469	36.85
949.834	36.83
950.198	36.79
950.562	36.81
950.927	36.74
951.291	36.71
951.655	36.64
952.02	36.59
952.384	36.51
952.748	36.51
953.112	36.46
953.476	36.41
953.839	36.33
954.203	36.32
954.567	36.24
954.931	36.22
955.294	36.2
955.658	36.25
956.021	36.23
956.385	36.23
956.748	36.16
957.111	36.14
957.474	36.15
957.837	36.14
958.2	36.08
958.563	36.06
958.926	36.08
959.289	36.12
959.652	36.09
960.015	36.09
960.377	36.06
960.74	36.08
961.102	36.05
961.465	36.06
961.827	36.09
962.189	36.1
962.552	36.15
962.914	36.15
963.276	36.17
963.638	36.17
964	36.2
964.362	36.28
964.724	36.29
965.085	36.28
965.447	36.25
965.809	36.25
966.17	36.27
966.532	36.24
966.893	36.25
967.255	36.17
967.616	36.16
967.977	36.15
968.338	36.09
968.699	36.06
969.061	36.07
969.421	36.14
969.782	36.15
970.143	36.15
970.504	36.14
970.865	36.12
971.225	36.12
971.586	36.11
971.946	36.12
972.307	36.18
972.667	36.17
973.027	36.29
973.388	36.3
973.748	36.28
974.108	36.3
974.468	36.33
974.828	36.37
975.188	36.39
975.548	36.42
975.907	36.43
976.267	36.43
976.627	36.45
976.986	36.34
977.346	36.27
977.705	36.27
978.064	36.28
978.424	36.31
978.783	36.3
979.142	36.3
979.501	36.34
979.86	36.4
980.219	36.34
980.578	36.38
980.937	36.42
981.296	36.43
981.654	36.46
982.013	36.45
982.371	36.53
982.73	36.58
983.088	36.58
983.447	36.53
983.805	36.55
984.163	36.64
984.521	36.62
984.879	36.62
985.237	36.65
985.595	36.74
985.953	36.75
986.311	36.67
986.669	36.67
987.026	36.72
987.384	36.82
987.741	36.72
988.099	36.76
988.456	36.79
988.814	36.87
989.171	36.86
989.528	36.85
989.885	36.9
990.242	36.96
990.599	37.04
990.956	37.12
991.313	37.16
991.67	37.27
992.027	37.44
992.383	37.53
992.74	37.65
993.096	37.7
993.453	37.73
993.809	37.78
994.165	37.88
994.522	37.86
994.878	37.85
995.234	37.92
995.59	37.89
995.946	37.77
996.302	37.77
996.658	37.82
997.013	37.82
997.369	37.87
997.725	37.97
998.08	37.98
998.436	38.07
998.791	38.13
999.147	38.08
999.502	38.14
999.857	38.13
1000.212	38.13
1000.567	38.05
1000.922	38.11
1001.277	38.03
1001.632	38
1001.987	37.98
1002.342	37.94
1002.696	37.85
1003.051	37.94
1003.406	38
1003.76	38
1004.114	38.01
1004.469	38.1
1004.823	38.33
1005.177	38.49
1005.531	38.53
1005.885	38.49
1006.239	38.52
1006.593	38.78
1006.947	38.74
1007.301	38.65
1007.655	38.71
1008.008	38.84
1008.362	38.98
1008.715	38.85
1009.069	38.98
1009.422	39.02
1009.776	39.1
1010.129	39.21
1010.482	39.13
1010.835	39.26
1011.188	39.4
1011.541	39.47
1011.894	39.54
1012.247	39.38
1012.6	39.6
1012.952	39.46
1013.305	39.42
1013.657	39.61
1014.01	39.67
1014.362	39.75
1014.715	39.85
1015.067	39.99
1015.419	40.3
1015.771	40.29
1016.123	40.45
1016.475	40.37
1016.827	40.68
1017.179	40.77
1017.531	40.85
1017.883	40.93
1018.234	41.08
1018.586	41.1
1018.938	41.25
1019.289	41
1019.64	41.16
1019.992	41.22
1020.343	41.19
1020.694	41.2
1021.045	41.44
1021.396	41.39
1021.747	41.38
1022.098	41.39
1022.449	41.31
1022.8	41.36
1023.151	41.62
1023.501	41.66
1023.852	41.77
1024.202	41.92
1024.553	41.82
1024.903	42.04
1025.253	42.35
1025.604	42.4
1025.954	42.33
1026.304	42.53
1026.654	42.46
1027.004	42.39
1027.354	42.54
1027.703	42.53
1028.053	42.84
1028.403	43.02
1028.753	42.57
1029.102	42.62
1029.452	42.8
1029.801	43.14
1030.15	43.24
1030.499	43.33
897.758	1051.83
901.051	1058.95
904.343	1058.93
907.636	1076.9
910.928	1046.14
914.22	1044.68
917.511	1030.6
920.803	985.2
924.094	985.08
927.384	960.42
930.675	924.73
933.965	919.32
937.255	864.31
940.544	829.87
943.834	790.63
947.123	785.36
950.411	738.15
953.7	724.46
956.988	687.52
960.276	655.14
963.563	646.78
966.851	621.64
970.138	616.59
973.424	597.67
976.711	598.83
979.997	570.69
983.283	566.34
986.568	555.91
989.853	538.86
993.138	527.76
996.423	509.4
999.708	494.58
1002.992	488.43
1006.275	466.78
1009.559	462.95
1012.842	445.43
1016.125	432.95
1019.408	425.89
1022.69	421.88
1025.972	412.1
1029.254	402.44
1032.536	395.78
1035.817	388.57
1039.098	382.93
1042.379	376.6
1045.659	371.72
1048.939	364.2
1052.219	355.97
1055.498	350.4
1058.778	340.83
1062.057	335.47
1065.335	331.93
1068.614	327.69
1071.892	323.68
1075.17	314.46
1078.447	307.97
1081.724	305.57
1085.001	303.43
1088.278	297.12
1091.554	291.31
1094.83	292.69
1098.106	289.4
1101.382	286.74
1104.657	284.97
1107.932	280.35
1111.206	282.79
1114.481	275.77
1117.755	273.81
1121.029	271.21
1124.302	271.53
1127.575	268
1130.848	263.76
1134.121	261.08
1137.393	259.94
1140.665	255.56
1143.937	252.94
1147.208	250.47
1150.48	250.16
1153.75	246.82
1157.021	242.77
1160.291	243.22
1163.561	239.18
1166.831	238.8
1170.101	236.73
1173.37	236.54
1176.639	236.04
1179.907	234.42
1183.176	231.38
1186.444	231.32
1189.711	230.64
1192.979	231.28
1196.246	229.35
1199.513	229.7
1202.78	229.02
1206.046	228.3
1209.312	226.63
1212.578	227.11
1215.843	228.95
1219.108	228.25
1222.373	231.94
1225.638	233.75
1228.902	236.35
1232.166	236.49
1235.43	238.88
1238.693	242.01
1241.956	244.08
1245.219	246.91
1248.482	247.18
1251.744	247.49
1255.006	247.62
1258.268	243.13
1261.529	241.1
1264.79	239.47
1268.051	238.3
1271.312	235.58
1274.572	232.26
1277.832	230.31
1281.092	226.27
1284.351	224.56
1287.61	224.47
1290.869	220.99
1294.128	219.01
1297.386	218.9
1300.644	216.9
1303.902	217.46
1307.159	217
1310.416	216.97
1313.673	215.89
1316.93	218.39
1320.186	217.72
1323.442	217.76
1326.697	222.14
1329.953	222.52
1333.208	223.39
1336.463	225.56
1339.717	225.61
1342.972	228.35
1346.226	230.6
1349.479	231.35
1352.733	232.24
1355.986	234.01
1359.238	233.74
1362.491	234.15
1365.743	236.38
1368.995	236.53
1372.247	236.61
1375.498	236.83
1378.749	237.89
1382	235.31
1385.251	236.46
1388.501	234.81
1391.751	235.12
1395	234.56
1398.25	232.62
1401.499	231.31
1404.748	230.45
1407.996	228.56
1411.244	227.67
1414.492	225.64
1417.74	223.37
1420.987	220.01
1424.234	220.28
1427.481	217.49
1430.728	217.74
1433.974	215.82
1437.22	214.02
1440.465	213.6
1443.711	210.86
1446.956	209.26
1450.201	206.84
1453.445	205.45
1456.689	204.78
1459.933	200.53
1463.177	198.84
1466.42	195.53
1469.663	193.32
1472.906	192.04
1476.148	187.05
1479.391	184.95
1482.633	183.74
1485.874	181.23
1489.115	179.59
1492.356	177.48
1495.597	177.33
1498.838	175.36
1502.078	174.01
1505.318	173.47
1508.557	173.35
1511.797	173.46
1515.036	171.44
1518.274	170.99
1521.513	170.1
1524.751	169.71
1527.989	169.07
1531.227	168.53
1534.464	168.3
1537.701	167.99
1540.938	167.17
1544.174	164.55
1547.41	164.82
1550.646	164.8
1553.882	164.24
1557.117	162.38
1560.352	161.12
1563.587	161.29
1566.821	160.16
1570.055	159.15
1573.289	157.49
1576.523	157.85
1579.756	157.29
1582.989	156.11
1586.222	155.73
1589.454	155.38
1592.686	156.15
1595.918	156.12
1599.15	155.16
1602.381	155.73
1605.612	155.1
1608.843	155.27
1612.073	154.85
1615.303	155.51
1618.533	155.5
1621.762	155.39
1624.992	155.92
1628.221	155.41
1631.449	154.73
1634.678	155.15
1637.906	155.31
1641.134	155.21
1644.361	155.26
1647.588	155.69
1650.815	155.41
1654.042	154.77
1657.269	155.79
1660.495	155.16
1663.72	154.78
1666.946	155.82
1670.171	155.96
1673.396	156.24
1676.621	155.67
1679.845	156.82
1683.069	156.93
1686.293	157.82
1689.517	158.72
1692.74	158.55
1695.963	158.95
1699.185	160.64
1702.408	160.44
1705.63	160.94
1708.852	161.14
1712.073	162.2
1715.294	161.73
1718.515	163.18
1721.736	162.72
1724.956	163.14
1728.176	163.08
1731.396	164.11
1734.616	163.54
1737.835	164.5
1741.054	163.34
1744.272	163.62
1747.491	165.11
1750.709	165.21
1753.927	164.3
1757.144	164.26
1760.361	164.37
1763.578	165.36
1766.795	164.67
1770.011	166.73
1773.227	165.98
1776.443	167.81
1779.658	168.55
1782.874	168.39
1786.089	168.71
1789.303	169.23
1792.518	171.05
1795.732	171.18
1798.945	172.1
1802.159	172.5
1805.372	171.82
1808.585	175.15
1811.797	175.15
1815.01	175.25
1818.222	176.4
1821.434	178.83
1824.645	179.07
1827.856	182.57
1831.067	183.83
1834.278	183.77
1837.488	185.27
1840.698	186.63
1843.908	185.06
1847.117	186.51
1850.326	187.86
1853.535	186.47
1856.744	188.43
1859.952	188.77
1863.16	186.64
1866.368	185.23
1869.575	186.99
1872.782	184.3
1875.989	184.02
1879.196	183.74
1882.402	182.33
1885.608	182.42
1888.814	183.37
1892.019	182.54
1895.224	181.57
1898.429	180.94
1901.634	182.03
1904.838	182.07
1908.042	183.75
1911.246	183.56
1914.449	184.07
1917.652	184.35
1920.855	184.11
1924.058	183.91
1927.26	182.92
1930.462	183.98
1933.664	185.59
1936.865	183.89
1940.066	182.96
1943.267	182.38
1946.467	183.01
1949.668	183.4
1952.868	186.12
1956.067	186.42
1959.267	186.86
1962.466	187.3
1965.665	186.24
1968.863	186.57
1972.061	190.8
1975.259	192.7
1978.457	193.48
1981.654	194.87
1984.852	196.2
1988.048	194.82
1991.245	196.85
1994.441	198.66
1997.637	201.1
2000.833	204.59
2004.028	207.61
2007.223	207.59
2010.418	209.11
2013.613	214.24
2016.807	216.32
2020.001	217.79
2023.194	221.62
2026.388	226.41
2029.581	231.25
2032.774	232.14
2035.966	236.96
2039.158	237.3
2042.35	241.68
2045.542	243.73
2048.733	246.72
2051.924	250.47
2055.115	255.11
2058.306	255.68
2061.496	257.66
2064.686	258.23
2067.875	263.75
2071.065	264.24
2074.254	263.54
2077.442	267.41
2080.631	268.75
2083.819	271.2
2087.007	270.72
2090.195	274.07
2093.382	276.89
2096.569	275.12
2099.756	279.97
2102.942	280.16
2106.128	282.7
2109.314	288.59
2112.5	287.22
2115.685	293.61
2118.87	294.36
2122.055	299.91
2125.239	301.01
2128.424	303.1
2131.608	306.74
2134.791	311.39
2137.974	312.25
2141.157	314.21
2144.34	314.72
2147.523	320.67
2150.705	318.41
2153.887	321.6
2157.068	323.31
2160.25	320.16
2163.431	322.26
2166.611	326.27
2169.792	330.77
2172.972	334.23
2176.152	336.7
2179.331	340.86
2182.511	344.85
2185.69	349.29
2188.868	356.04
2192.047	355.72
2195.225	367.24
2198.403	376.02
2201.58	382.47
2204.758	390.74
2207.935	398.06
2211.111	405.53
2214.288	410.76
2217.464	411.71
2220.64	417.82
2223.815	421.87
2226.991	439.66
2230.166	440.11
2233.34	447.27
2236.515	454.38
2239.689	454.96
2242.863	457.99
2246.036	468.18
2249.209	464.71
2252.382	474.41
2255.555	486.98
2258.727	489.83
2261.9	494.11
2265.071	498.42
2268.243	507.76
2271.414	514.08
2274.585	523.52
2277.756	528.68
2280.926	533.66
2284.096	547.02
2287.266	556.93
2290.436	563.88
2293.605	574.54
2296.774	590.4
2299.942	610.79
2303.111	611.81
2306.279	624.16
2309.447	634.34
2312.614	652.27
2315.781	670.85
2318.948	700.57
2322.115	691.17
2325.281	727.22
2328.447	716.72
2331.613	745.13
2334.779	735.28
2337.944	769.33
2341.109	776.5
2344.274	796.32
2347.438	826.23
2350.602	825.88
2353.766	853.2
2356.929	866.17
2360.092	859.51
2363.255	919.26
2366.418	916.78
2369.58	933.48
2372.742	993.17
2375.904	1017.96
2379.066	1011.84
2382.227	990.11
2385.388	1075.58
2388.548	1069.44
2391.709	1082.33
2394.869	1204.9
2398.029	1158.51
2401.188	1191.86
2404.347	1184.35
2407.506	1161.13
2410.665	1198.29
2413.823	1270.19
2416.981	1344.62
2420.139	1304.3
2423.296	1289.26
2426.453	1350.06
2429.61	1294.38
2432.767	1349.5
2435.923	1335.02
2439.079	1468.43
2442.235	1492.96
2445.391	1474.16
2448.546	1461.04
2451.701	1420.45
2454.855	1414.53
2458.009	1516.03
2461.163	1569.31
2464.317	1632.38
2467.471	1676.2
2470.624	1676.05
2473.777	1625.29
2476.929	1575.13
2480.082	1530.32
2483.234	1514.73
2486.385	1594.73
2489.537	1600.01
2492.688	1648.86
2495.839	1607.73
2498.989	1572.96
2502.14	1575.84
2505.29	1591.53
2508.439	1615.76
2511.589	1614.44
2514.738	1764.88
2517.887	1727.23
2521.035	1817.76
2524.183	1840.74
2527.331	1851.49
2530.479	1841.79
2533.627	1854.65
