Data from N_3_DEC_NC_4N_Splice17_14-00-58-789.txt Node
Date: Sat Mar 07 14:00:58 EST 2020
User: sa697716
Spectrometer: NQ5500242
Trigger mode: 0
Integration Time (sec): 1.450000E-1
Scans to average: 20
Nonlinearity correction enabled: false
Boxcar width: 5
Storing dark spectrum: false
XAxis mode: Wavelengths
Number of Pixels in Spectrum: 512
>>>>>Begin Spectral Data<<<<<
187.83	152.58
188.298	158.16
188.766	140.66
189.233	109.47
189.701	119.86
190.169	141.32
190.636	145.93
191.104	172.51
191.571	157.93
192.039	100.88
192.506	-96.92
192.974	138.63
193.441	138.97
193.908	41.97
194.375	26.1
194.842	17.02
195.31	44.14
195.777	-104
196.244	28.85
196.711	41.08
197.177	44.62
197.644	44.17
198.111	43.83
198.578	44.51
199.045	44.87
199.511	44.69
199.978	44.7
200.445	45
200.911	45.43
201.378	45.27
201.844	45.37
202.31	45.21
202.777	45.32
203.243	45.15
203.709	44.77
204.176	44.39
204.642	44.31
205.108	44.37
205.574	43.96
206.04	43.32
206.506	43.11
206.972	42.87
207.438	42.14
207.903	41.62
208.369	40.97
208.835	40.29
209.301	39.41
209.766	38.25
210.232	37.17
210.697	36.18
211.163	35.16
211.628	34.31
212.094	33.41
212.559	32.79
213.024	31.99
213.49	31.2
213.955	30.58
214.42	30.03
214.885	29.36
215.35	28.3
215.815	27.08
216.28	25.53
216.745	23.62
217.21	21.71
217.675	20.11
218.14	18.62
218.604	17.33
219.069	16.28
219.534	15.31
219.998	14.49
220.463	13.82
220.927	13.22
221.392	12.76
221.856	12.42
222.32	12.11
222.785	11.78
223.249	11.52
223.713	11.3
224.177	11.07
224.642	10.88
225.106	10.68
225.57	10.51
226.034	10.36
226.497	10.21
226.961	10.06
227.425	9.93
227.889	9.8
228.353	9.68
228.816	9.56
229.28	9.44
229.744	9.33
230.207	9.21
230.671	9.1
231.134	8.99
231.597	8.9
232.061	8.81
232.524	8.72
232.987	8.63
233.45	8.56
233.914	8.47
234.377	8.38
234.84	8.3
235.303	8.25
235.766	8.19
236.229	8.11
236.691	8.04
237.154	7.99
237.617	7.93
238.08	7.87
238.542	7.79
239.005	7.74
239.468	7.68
239.93	7.64
240.393	7.59
240.855	7.52
241.317	7.47
241.78	7.42
242.242	7.36
242.704	7.31
243.166	7.26
243.629	7.23
244.091	7.17
244.553	7.12
245.015	7.07
245.477	7.01
245.939	6.97
246.4	6.92
246.862	6.88
247.324	6.83
247.786	6.77
248.247	6.72
248.709	6.66
249.17	6.62
249.632	6.59
250.093	6.56
250.555	6.52
251.016	6.49
251.477	6.45
251.939	6.42
252.4	6.39
252.861	6.37
253.322	6.34
253.783	6.31
254.244	6.27
254.705	6.23
255.166	6.2
255.627	6.17
256.088	6.15
256.549	6.13
257.009	6.09
257.47	6.05
257.931	6.02
258.391	5.98
258.852	5.96
259.312	5.94
259.773	5.91
260.233	5.89
260.694	5.86
261.154	5.84
261.614	5.82
262.074	5.79
262.534	5.77
262.994	5.75
263.455	5.73
263.915	5.72
264.374	5.7
264.834	5.7
265.294	5.68
265.754	5.66
266.214	5.66
266.673	5.64
267.133	5.64
267.593	5.64
268.052	5.64
268.512	5.63
268.971	5.62
269.431	5.61
269.89	5.6
270.349	5.59
270.809	5.58
271.268	5.58
271.727	5.57
272.186	5.56
272.645	5.55
273.104	5.54
273.563	5.53
274.022	5.53
274.481	5.53
274.94	5.53
275.399	5.52
275.857	5.51
276.316	5.5
276.775	5.49
277.233	5.49
277.692	5.48
278.15	5.47
278.609	5.46
279.067	5.46
279.525	5.45
279.984	5.44
280.442	5.43
280.9	5.43
281.358	5.42
281.816	5.41
282.274	5.4
282.732	5.39
283.19	5.37
283.648	5.36
284.106	5.34
284.564	5.33
285.021	5.32
285.479	5.32
285.937	5.3
286.394	5.29
286.852	5.27
287.309	5.27
287.767	5.27
288.224	5.26
288.682	5.25
289.139	5.24
289.596	5.24
290.053	5.22
290.511	5.2
290.968	5.19
291.425	5.17
291.882	5.17
292.339	5.15
292.796	5.14
293.252	5.12
293.709	5.1
294.166	5.1
294.623	5.08
295.079	5.08
295.536	5.07
295.992	5.07
296.449	5.06
296.905	5.05
297.362	5.05
297.818	5.03
298.274	5.03
298.731	5.03
299.187	5.02
299.643	5.02
300.099	5.01
300.555	5.01
301.011	5
301.467	4.99
301.923	4.98
302.379	4.98
302.835	4.98
303.291	4.97
303.746	4.97
304.202	4.96
304.658	4.95
305.113	4.95
305.569	4.94
306.024	4.94
306.479	4.92
306.935	4.91
307.39	4.9
307.845	4.9
308.301	4.9
308.756	4.89
309.211	4.88
309.666	4.89
310.121	4.89
310.576	4.89
311.031	4.89
311.486	4.89
311.94	4.9
312.395	4.9
312.85	4.9
313.305	4.89
313.759	4.9
314.214	4.9
314.668	4.89
315.123	4.89
315.577	4.9
316.032	4.9
316.486	4.89
316.94	4.89
317.394	4.89
317.849	4.87
318.303	4.87
318.757	4.86
319.211	4.85
319.665	4.84
320.119	4.82
320.572	4.79
321.026	4.77
321.48	4.76
321.934	4.75
322.387	4.73
322.841	4.73
323.295	4.73
323.748	4.71
324.202	4.71
324.655	4.71
325.108	4.72
325.562	4.72
326.015	4.73
326.468	4.74
326.921	4.74
327.374	4.73
327.827	4.73
328.28	4.72
328.733	4.73
329.186	4.72
329.639	4.72
330.092	4.71
330.545	4.71
330.997	4.69
331.45	4.69
331.903	4.7
332.355	4.71
332.808	4.71
333.26	4.71
333.713	4.71
334.165	4.7
334.617	4.71
335.069	4.7
335.522	4.71
335.974	4.73
336.426	4.72
336.878	4.72
337.33	4.71
337.782	4.71
338.234	4.71
338.686	4.72
339.137	4.73
339.589	4.73
340.041	4.73
340.493	4.72
340.944	4.7
341.396	4.7
341.847	4.69
342.299	4.68
342.75	4.67
343.201	4.66
343.653	4.65
344.104	4.63
344.555	4.62
345.006	4.61
345.457	4.61
345.908	4.61
346.359	4.6
346.81	4.61
347.261	4.6
347.712	4.6
348.163	4.59
348.613	4.6
349.064	4.6
349.515	4.6
349.965	4.6
350.416	4.59
350.866	4.59
351.317	4.58
351.767	4.58
352.217	4.58
352.668	4.58
353.118	4.6
353.568	4.59
354.018	4.59
354.468	4.6
354.918	4.6
355.368	4.61
355.818	4.62
356.268	4.63
356.718	4.65
357.168	4.64
357.617	4.65
358.067	4.64
358.517	4.66
358.966	4.66
359.416	4.66
359.865	4.66
360.315	4.67
360.764	4.68
361.213	4.67
361.663	4.66
362.112	4.68
362.561	4.68
363.01	4.69
363.459	4.69
363.908	4.69
364.357	4.7
364.806	4.7
365.255	4.7
365.703	4.72
366.152	4.73
366.601	4.74
367.05	4.75
367.498	4.75
367.947	4.75
368.395	4.77
368.844	4.78
369.292	4.78
369.74	4.8
370.189	4.8
370.637	4.8
371.085	4.8
371.533	4.8
371.981	4.81
372.429	4.82
372.877	4.84
373.325	4.84
373.773	4.85
374.221	4.86
374.669	4.87
375.116	4.88
375.564	4.89
376.012	4.91
376.459	4.93
376.907	4.95
377.354	4.96
377.801	4.99
378.249	5.01
378.696	5.04
379.143	5.06
379.591	5.08
380.038	5.1
380.485	5.13
380.932	5.15
381.379	5.18
381.826	5.21
382.273	5.23
382.72	5.24
383.166	5.27
383.613	5.28
384.06	5.31
384.506	5.33
384.953	5.36
385.4	5.38
385.846	5.42
386.292	5.44
386.739	5.47
387.185	5.51
387.631	5.55
388.078	5.59
388.524	5.62
388.97	5.66
389.416	5.71
389.862	5.75
390.308	5.79
390.754	5.84
391.2	5.88
391.645	5.92
392.091	5.97
392.537	6.01
392.983	6.05
393.428	6.1
393.874	6.14
394.319	6.18
394.765	6.23
395.21	6.26
395.655	6.29
396.101	6.32
396.546	6.36
396.991	6.41
397.436	6.44
397.881	6.48
398.326	6.53
398.771	6.57
399.216	6.6
399.661	6.64
400.106	6.68
400.551	6.71
400.995	6.73
401.44	6.75
401.885	6.77
402.329	6.8
402.774	6.82
403.218	6.85
403.663	6.88
404.107	6.91
404.551	6.92
404.995	6.94
405.44	6.95
405.884	6.98
406.328	7.01
406.772	7
407.216	7.02
407.66	7.02
408.104	7.02
408.547	7.01
408.991	7.02
409.435	7.02
409.879	7.02
410.322	7.04
410.766	7.05
411.209	7.07
411.653	7.1
412.096	7.12
412.54	7.15
412.983	7.16
413.426	7.19
413.869	7.21
414.312	7.24
414.756	7.27
415.199	7.29
415.642	7.29
416.085	7.31
416.527	7.3
416.97	7.3
417.413	7.29
417.856	7.31
418.298	7.32
418.741	7.32
419.184	7.31
419.626	7.31
420.069	7.32
420.511	7.32
420.953	7.32
421.396	7.33
421.838	7.33
422.28	7.35
422.722	7.35
423.164	7.35
423.606	7.35
424.048	7.36
424.49	7.36
424.932	7.35
425.374	7.32
425.816	7.3
426.258	7.29
426.699	7.26
427.141	7.23
427.582	7.21
428.024	7.2
428.465	7.19
428.907	7.15
429.348	7.12
429.789	7.12
430.231	7.13
430.672	7.13
431.113	7.14
431.554	7.14
431.995	7.14
432.436	7.15
432.877	7.15
433.318	7.16
433.759	7.19
434.2	7.2
434.64	7.21
435.081	7.21
435.522	7.22
435.962	7.23
436.403	7.26
436.843	7.29
437.284	7.28
437.724	7.27
438.164	7.28
438.604	7.27
439.045	7.29
439.485	7.31
439.925	7.31
440.365	7.33
440.805	7.34
441.245	7.36
441.685	7.38
442.125	7.42
442.564	7.46
443.004	7.47
443.444	7.51
443.883	7.53
444.323	7.53
444.762	7.56
445.202	7.59
445.641	7.62
446.081	7.64
446.52	7.67
446.959	7.72
447.398	7.76
447.837	7.81
448.276	7.84
448.716	7.86
449.154	7.91
449.593	7.95
450.032	7.98
450.471	7.99
450.91	7.99
451.349	8.01
451.787	8.01
452.226	8.01
452.664	8.01
453.103	8.02
453.541	8.02
453.98	8.03
454.418	8.03
454.856	8.01
455.295	8.02
455.733	8
456.171	8
456.609	7.99
457.047	7.97
457.485	7.98
457.923	7.97
458.361	7.95
458.798	7.94
459.236	7.94
459.674	7.93
460.111	7.91
460.549	7.92
460.987	7.92
461.424	7.92
461.862	7.92
462.299	7.91
462.736	7.91
463.173	7.92
463.611	7.93
464.048	7.93
464.485	7.94
464.922	7.93
465.359	7.92
465.796	7.93
466.233	7.93
466.67	7.93
467.106	7.93
467.543	7.93
467.98	7.92
468.416	7.91
468.853	7.91
469.29	7.91
469.726	7.92
470.162	7.93
470.599	7.92
471.035	7.92
471.471	7.92
471.907	7.92
472.344	7.93
472.78	7.95
473.216	7.95
473.652	7.96
474.088	7.96
474.523	7.98
474.959	7.99
475.395	8
475.831	8.01
476.266	8.02
476.702	8.02
477.138	8.02
477.573	8.03
478.008	8.04
478.444	8.03
478.879	8.05
479.314	8.05
479.75	8.06
480.185	8.06
480.62	8.06
481.055	8.05
481.49	8.07
481.925	8.07
482.36	8.09
482.795	8.09
483.229	8.11
483.664	8.13
484.099	8.13
484.534	8.14
484.968	8.15
485.403	8.18
485.837	8.21
486.271	8.24
486.706	8.27
487.14	8.29
487.574	8.33
488.009	8.36
488.443	8.39
488.877	8.44
489.311	8.49
489.745	8.55
490.179	8.61
490.613	8.65
491.046	8.7
491.48	8.77
491.914	8.83
492.348	8.89
492.781	8.96
493.215	9.04
493.648	9.11
494.082	9.19
494.515	9.26
494.948	9.34
495.382	9.42
495.815	9.51
496.248	9.61
496.681	9.71
497.114	9.8
497.547	9.9
497.98	10
498.413	10.1
498.846	10.21
499.279	10.33
499.711	10.44
500.144	10.59
500.577	10.72
501.009	10.84
501.442	10.98
501.874	11.13
502.306	11.28
502.739	11.44
503.171	11.6
503.603	11.77
504.036	11.92
504.468	12.09
504.9	12.25
505.332	12.42
505.764	12.6
506.196	12.78
506.627	12.97
507.059	13.15
507.491	13.33
507.923	13.53
508.354	13.73
508.786	13.95
509.217	14.16
509.649	14.38
510.08	14.59
510.512	14.8
510.943	15.02
511.374	15.23
511.805	15.45
512.237	15.68
512.668	15.9
513.099	16.11
513.53	16.32
513.961	16.55
514.391	16.78
514.822	17.02
515.253	17.24
515.684	17.47
516.114	17.69
516.545	17.91
516.975	18.11
517.406	18.32
517.836	18.54
518.267	18.76
518.697	18.95
519.127	19.14
519.558	19.35
519.988	19.56
520.418	19.75
520.848	19.94
521.278	20.14
521.708	20.48
522.138	20.68
522.567	20.85
522.997	21.02
523.427	21.2
523.857	21.35
524.286	21.49
524.716	21.64
525.145	21.79
525.575	21.95
526.004	22.09
526.433	22.07
526.863	22.17
527.292	22.3
527.721	22.41
528.15	22.52
528.579	22.64
529.008	22.75
529.437	22.84
529.866	22.92
530.295	23.01
530.724	23.09
531.152	23.17
531.581	23.26
532.01	23.33
532.438	23.4
532.867	23.49
533.295	23.55
533.723	23.6
534.152	23.66
534.58	23.72
535.008	23.75
535.436	23.78
535.865	23.81
536.293	23.85
536.721	23.88
537.149	23.91
537.576	23.94
538.004	23.98
538.432	24
538.86	24.02
539.287	24.04
539.715	24.08
540.143	24.1
540.57	24.12
540.998	24.12
541.425	24.16
541.852	24.18
542.28	24.2
542.707	24.21
543.134	24.22
543.561	24.26
543.988	24.27
544.415	24.28
544.842	24.29
545.269	24.31
545.696	24.34
546.123	24.34
546.549	24.35
546.976	24.36
547.403	24.38
547.829	24.38
548.256	24.4
548.682	24.41
549.108	24.44
549.535	24.47
549.961	24.48
550.387	24.51
550.813	24.52
551.24	24.53
551.666	24.54
552.092	24.54
552.518	24.56
552.943	24.55
553.369	24.55
553.795	24.53
554.221	24.52
554.646	24.51
555.072	24.49
555.498	24.47
555.923	24.43
556.349	24.4
556.774	24.38
557.199	24.35
557.625	24.32
558.05	24.28
558.475	24.24
558.9	24.2
559.325	24.16
559.75	24.1
560.175	24.05
560.6	24.01
561.025	23.96
561.449	23.9
561.874	23.84
562.299	23.77
562.723	23.71
563.148	23.63
563.572	23.55
563.997	23.47
564.421	23.4
564.846	23.32
565.27	23.22
565.694	23.13
566.118	23.04
566.542	22.95
566.966	22.84
567.39	22.74
567.814	22.64
568.238	22.53
568.662	22.43
569.086	22.33
569.509	22.23
569.933	22.14
570.357	22.03
570.78	21.93
571.204	21.83
571.627	21.74
572.05	21.64
572.474	21.56
572.897	21.49
573.32	21.41
573.743	21.33
574.166	21.25
574.589	21.17
575.012	21.09
575.435	21.01
575.858	20.93
576.281	20.86
576.704	20.79
577.126	20.72
577.549	20.65
577.972	20.57
578.394	20.5
578.817	20.44
579.239	20.38
579.661	20.33
580.084	20.29
580.506	20.25
580.928	20.19
581.35	20.15
581.772	20.09
582.194	20.03
582.616	20
583.038	19.94
583.46	19.89
583.882	19.84
584.303	19.78
584.725	19.72
585.147	19.68
585.568	19.65
585.99	19.59
586.411	19.55
586.833	19.49
587.254	19.44
587.675	19.4
588.096	19.36
588.518	19.31
588.939	19.27
589.36	19.23
589.781	19.18
590.202	19.15
590.623	19.11
591.043	19.07
591.464	19.06
591.885	19.02
592.305	18.99
592.726	18.97
593.147	18.95
593.567	18.92
593.987	18.89
594.408	18.86
594.828	18.82
595.248	18.8
595.669	18.77
596.089	18.74
596.509	18.72
596.929	18.7
597.349	18.67
597.769	18.63
598.189	18.61
598.608	18.58
599.028	18.56
599.448	18.53
599.867	18.5
600.287	18.47
600.706	18.45
601.126	18.41
601.545	18.38
601.965	18.35
602.384	18.31
602.803	18.27
603.222	18.23
603.641	18.19
604.061	18.16
604.48	18.13
604.898	18.08
605.317	18.04
605.736	17.99
606.155	17.93
606.574	17.88
606.992	17.84
607.411	17.8
607.829	17.74
608.248	17.67
608.666	17.61
609.085	17.56
609.503	17.51
609.921	17.43
610.339	17.39
610.758	17.33
611.176	17.27
611.594	17.22
612.012	17.16
612.43	17.1
612.847	17.05
613.265	16.98
613.683	16.93
614.101	16.87
614.518	16.82
614.936	16.75
615.353	16.69
615.771	16.64
616.188	16.59
616.606	16.54
617.023	16.49
617.44	16.45
617.857	16.41
618.274	16.36
618.691	16.32
619.108	16.27
619.525	16.23
619.942	16.21
620.359	16.18
620.776	16.14
621.192	16.12
621.609	16.1
622.026	16.07
622.442	16.05
622.859	16.02
623.275	16
623.691	15.99
624.108	15.98
624.524	15.96
624.94	15.95
625.356	15.93
625.772	15.91
626.188	15.89
626.604	15.89
627.02	15.87
627.436	15.87
627.852	15.86
628.268	15.85
628.683	15.84
629.099	15.82
629.514	15.8
629.93	15.79
630.345	15.77
630.761	15.74
631.176	15.71
631.591	15.68
632.007	15.64
632.422	15.59
632.837	15.55
633.252	15.49
633.667	15.44
634.082	15.36
634.497	15.29
634.911	15.21
635.326	15.13
635.741	15.05
636.155	14.96
636.57	14.87
636.984	14.79
637.399	14.68
637.813	14.57
638.228	14.45
638.642	14.34
639.056	14.23
639.47	14.12
639.884	14
640.298	13.86
640.712	13.74
641.126	13.6
641.54	13.47
641.954	13.34
642.368	13.23
642.781	13.11
643.195	12.99
643.609	12.88
644.022	12.77
644.436	12.66
644.849	12.55
645.262	12.45
645.676	12.36
646.089	12.27
646.502	12.18
646.915	12.11
647.328	12.03
647.741	11.95
648.154	11.88
648.567	11.81
648.98	11.75
649.393	11.71
649.805	11.67
650.218	11.61
650.631	11.58
651.043	11.54
651.456	11.5
651.868	11.45
652.28	11.42
652.693	11.38
653.105	11.34
653.517	11.3
653.929	11.25
654.341	11.2
654.753	11.14
655.165	11.07
655.577	11
655.989	10.92
656.401	10.84
656.813	10.77
657.224	10.67
657.636	10.57
658.047	10.47
658.459	10.36
658.87	10.25
659.282	10.15
659.693	10.05
660.104	9.94
660.515	9.84
660.926	9.75
661.338	9.63
661.749	9.54
662.159	9.45
662.57	9.36
662.981	9.28
663.392	9.18
663.803	9.09
664.213	9
664.624	8.92
665.035	8.84
665.445	8.76
665.855	8.7
666.266	8.63
666.676	8.57
667.086	8.51
667.497	8.45
667.907	8.41
668.317	8.37
668.727	8.34
669.137	8.3
669.547	8.26
669.956	8.23
670.366	8.2
670.776	8.16
671.186	8.14
671.595	8.11
672.005	8.11
672.414	8.1
672.824	8.08
673.233	8.08
673.642	8.08
674.052	8.08
674.461	8.08
674.87	8.09
675.279	8.12
675.688	8.14
676.097	8.17
676.506	8.2
676.915	8.23
677.323	8.28
677.732	8.31
678.141	8.36
678.549	8.41
678.958	8.48
679.366	8.56
679.775	8.63
680.183	8.73
680.592	8.84
681	8.97
681.408	9.11
681.816	9.26
682.224	9.45
682.632	9.63
683.04	9.83
683.448	10.05
683.856	10.28
684.264	10.53
684.671	10.79
685.079	11.06
685.487	11.35
685.894	11.67
686.302	12.01
686.709	12.35
687.116	12.71
687.524	13.1
687.931	13.5
688.338	13.91
688.745	14.33
689.152	14.77
689.559	15.22
689.966	15.68
690.373	16.12
690.78	16.57
691.187	17
691.593	17.46
692	17.92
692.407	18.37
692.813	18.81
693.22	19.24
693.626	19.67
694.032	20.1
694.439	20.51
694.845	20.94
695.251	21.35
695.657	21.74
696.063	22.14
696.469	22.53
696.875	22.9
697.281	23.27
697.687	23.63
698.093	23.98
698.498	24.31
698.904	24.65
699.31	24.96
699.715	25.29
700.12	25.6
700.526	25.9
700.931	26.18
701.337	26.46
701.742	26.74
702.147	27
702.552	27.26
702.957	27.5
703.362	27.73
703.767	27.95
704.172	28.17
704.577	28.38
704.981	28.59
705.386	28.79
705.791	29
706.195	29.21
706.6	29.41
707.004	29.59
707.408	29.78
707.813	29.95
708.217	30.12
708.621	30.32
709.025	30.47
709.43	30.63
709.834	30.79
710.237	30.94
710.641	31.08
711.045	31.2
711.449	31.36
711.853	31.52
712.256	31.67
712.66	31.82
713.064	31.95
713.467	32.08
713.87	32.23
714.274	32.34
714.677	32.47
715.08	32.59
715.484	32.72
715.887	32.84
716.29	32.93
716.693	33.03
717.096	33.14
717.499	33.24
717.901	33.35
718.304	33.44
718.707	33.55
719.109	33.64
719.512	33.72
719.915	33.81
720.317	33.88
720.719	33.95
721.122	34.02
721.524	34.1
721.926	34.16
722.328	34.24
722.731	34.28
723.133	34.35
723.535	34.43
723.937	34.5
724.338	34.54
724.74	34.61
725.142	34.75
725.544	34.8
725.945	34.85
726.347	34.91
726.748	34.97
727.15	35.02
727.551	35.07
727.952	35.12
728.354	35.18
728.755	35.23
729.156	35.26
729.557	35.23
729.958	35.27
730.359	35.31
730.76	35.35
731.161	35.36
731.562	35.41
731.962	35.4
732.363	35.43
732.763	35.46
733.164	35.48
733.564	35.5
733.965	35.52
734.365	35.56
734.766	35.57
735.166	35.59
735.566	35.6
735.966	35.64
736.366	35.66
736.766	35.67
737.166	35.69
737.566	35.71
737.966	35.72
738.365	35.73
738.765	35.75
739.165	35.76
739.564	35.77
739.964	35.79
740.363	35.75
740.763	35.78
741.162	35.79
741.561	35.76
741.96	35.76
742.36	35.78
742.759	35.81
743.158	35.8
743.557	35.8
743.955	35.82
744.354	35.84
744.753	35.88
745.152	35.89
745.55	35.92
745.949	35.96
746.348	35.99
746.746	35.99
747.144	36.02
747.543	36.02
747.941	36.04
748.339	36.03
748.737	36.04
749.136	36.03
749.534	36.02
749.932	36.01
750.33	36
750.727	36.01
751.125	35.99
751.523	35.96
751.921	35.96
752.318	35.97
752.716	35.99
753.113	36
753.511	36.01
753.908	36.05
754.305	36.05
754.703	36.03
755.1	36.03
755.497	36.04
755.894	36.03
756.291	36.03
756.688	36
757.085	36.01
757.482	35.99
757.878	35.98
758.275	35.95
758.672	35.94
759.068	35.95
759.465	35.94
759.861	35.95
760.258	35.98
760.654	35.96
761.05	35.99
761.447	35.98
761.843	35.96
762.239	35.95
762.635	35.96
763.031	35.95
763.427	35.92
763.822	35.93
764.218	35.93
764.614	35.92
765.01	35.93
765.405	35.92
765.801	35.91
766.196	35.93
766.592	35.92
766.987	35.9
767.382	35.92
767.778	35.93
768.173	35.93
768.568	35.92
768.963	35.89
769.358	35.88
769.753	35.87
770.148	35.87
770.542	35.86
770.937	35.86
771.332	35.88
771.726	35.87
772.121	35.86
772.515	35.83
772.91	35.81
773.304	35.81
773.699	35.82
774.093	35.82
774.487	35.81
774.881	35.82
775.275	35.81
775.669	35.78
776.063	35.75
776.457	35.76
776.851	35.78
777.245	35.77
777.638	35.76
778.032	35.76
778.425	35.79
778.819	35.8
779.212	35.8
779.606	35.82
779.999	35.82
780.392	35.85
780.786	35.85
781.179	35.86
781.572	35.89
781.965	35.91
782.358	35.92
782.751	35.88
783.143	35.88
783.536	35.88
783.929	35.88
784.322	35.9
784.714	35.89
785.107	35.91
785.499	35.9
785.891	35.89
786.284	35.91
786.676	35.9
787.068	35.92
787.46	35.94
787.852	35.95
788.245	35.93
788.636	35.94
789.028	35.93
789.42	35.92
789.812	35.92
790.204	35.92
790.595	35.93
790.987	35.93
791.378	35.93
791.77	35.94
792.161	35.94
792.553	35.98
792.944	35.96
793.335	35.97
793.726	35.96
794.117	35.94
794.508	35.95
794.899	35.94
795.29	35.94
795.681	35.91
796.072	35.91
796.463	35.92
796.853	35.9
797.244	35.91
797.634	35.9
798.025	35.92
798.415	35.94
798.806	35.94
799.196	35.95
799.586	35.96
799.976	35.99
800.366	35.97
800.756	35.97
801.146	35.97
801.536	35.98
801.926	35.97
802.316	35.97
802.706	35.97
803.095	35.97
803.485	35.97
803.874	35.98
804.264	35.97
804.653	35.97
805.043	35.96
805.432	35.97
805.821	35.96
806.21	35.97
806.599	35.97
806.988	35.99
807.377	36
807.766	35.99
808.155	35.96
808.544	35.97
808.933	35.97
809.321	35.99
809.71	35.99
810.098	36.01
810.487	36.01
810.875	36.01
811.264	36
811.652	36.01
812.04	36.01
812.428	36.05
812.816	36.05
813.204	36.07
813.592	36.05
813.98	36.05
814.368	36.07
814.756	36.09
815.144	36.1
815.531	36.1
815.919	36.09
816.306	36.09
816.694	36.07
817.081	36.08
817.469	36.07
817.856	36.05
818.243	36.05
818.63	36.02
819.017	35.99
819.404	35.98
819.791	35.97
820.178	35.98
820.565	35.97
820.952	35.98
821.339	35.96
821.725	35.98
822.112	35.99
822.498	36.01
822.885	36
823.271	36.01
823.657	36.01
824.044	36.02
824.43	36.03
824.816	36.04
825.202	36.04
825.588	36.04
825.974	36.02
826.36	36.01
826.746	36
827.132	36.01
827.517	36.01
827.903	36.03
828.289	36.03
828.674	35.99
829.06	35.96
829.445	35.92
829.83	35.91
830.216	35.88
830.601	35.87
830.986	35.87
831.371	35.84
831.756	35.82
832.141	35.79
832.526	35.76
832.911	35.76
833.295	35.77
833.68	35.78
834.065	35.79
834.449	35.79
834.834	35.77
835.218	35.72
835.603	35.73
835.987	35.73
836.371	35.71
836.755	35.69
837.139	35.66
837.524	35.66
837.908	35.65
838.291	35.67
838.675	35.63
839.059	35.64
839.443	35.65
839.827	35.61
840.21	35.61
840.594	35.59
840.977	35.6
841.361	35.6
841.744	35.57
842.127	35.56
842.511	35.53
842.894	35.55
843.277	35.54
843.66	35.54
844.043	35.54
844.426	35.52
844.809	35.54
845.191	35.55
845.574	35.56
845.957	35.58
846.339	35.58
846.722	35.57
847.104	35.55
847.487	35.55
847.869	35.53
848.252	35.54
848.634	35.55
849.016	35.56
849.398	35.56
849.78	35.56
850.162	35.54
850.544	35.54
850.926	35.54
851.307	35.55
851.689	35.55
852.071	35.57
852.452	35.56
852.834	35.54
853.215	35.53
853.597	35.5
853.978	35.51
854.359	35.51
854.741	35.5
855.122	35.49
855.503	35.48
855.884	35.48
856.265	35.47
856.646	35.47
857.026	35.49
857.407	35.49
857.788	35.5
858.169	35.5
858.549	35.5
858.93	35.5
859.31	35.51
859.69	35.51
860.071	35.52
860.451	35.53
860.831	35.53
861.211	35.52
861.591	35.49
861.971	35.5
862.351	35.5
862.731	35.51
863.111	35.49
863.491	35.49
863.87	35.48
864.25	35.46
864.629	35.47
865.009	35.47
865.388	35.46
865.768	35.47
866.147	35.48
866.526	35.46
866.905	35.45
867.284	35.45
867.663	35.45
868.042	35.44
868.421	35.45
868.8	35.46
869.179	35.46
869.558	35.47
869.936	35.47
870.315	35.44
870.693	35.45
871.072	35.46
871.45	35.45
871.828	35.47
872.207	35.5
872.585	35.48
872.963	35.46
873.341	35.45
873.719	35.44
874.097	35.44
874.475	35.46
874.853	35.47
875.23	35.47
875.608	35.5
875.986	35.52
876.363	35.52
876.741	35.54
877.118	35.54
877.495	35.55
877.873	35.56
878.25	35.57
878.627	35.56
879.004	35.54
879.381	35.53
879.758	35.5
880.135	35.49
880.512	35.46
880.889	35.46
881.265	35.44
881.642	35.42
882.019	35.41
882.395	35.4
882.772	35.39
883.148	35.39
883.524	35.39
883.901	35.37
884.277	35.34
884.653	35.32
885.029	35.29
885.405	35.31
885.781	35.32
886.157	35.32
886.532	35.32
886.908	35.32
887.284	35.31
887.659	35.28
888.035	35.26
888.411	35.25
888.786	35.26
889.161	35.28
889.537	35.27
889.912	35.24
890.287	35.24
890.662	35.22
891.037	35.21
891.412	35.19
891.787	35.18
892.162	35.18
892.536	35.17
892.911	35.17
893.286	35.14
893.66	35.13
894.035	35.12
894.409	35.08
894.784	35.08
895.158	35.07
895.532	35.08
895.906	35.09
896.281	35.08
896.655	35.08
897.029	35.07
897.402	35.07
897.776	35.07
898.15	35.09
898.524	35.11
898.898	35.1
899.271	35.1
899.645	35.1
900.018	35.11
900.392	35.11
900.765	35.13
901.138	35.13
901.511	35.12
901.884	35.14
902.258	35.14
902.631	35.16
903.003	35.19
903.376	35.21
903.749	35.22
904.122	35.23
904.495	35.25
904.867	35.26
905.24	35.28
905.612	35.31
905.985	35.29
906.357	35.27
906.729	35.27
907.102	35.26
907.474	35.24
907.846	35.23
908.218	35.23
908.59	35.27
908.962	35.25
909.334	35.25
909.705	35.23
910.077	35.24
910.449	35.28
910.82	35.27
911.192	35.28
911.563	35.28
911.935	35.26
912.306	35.25
912.677	35.24
913.048	35.26
913.419	35.24
913.79	35.27
914.161	35.28
914.532	35.25
914.903	35.25
915.274	35.28
915.645	35.31
916.015	35.33
916.386	35.37
916.756	35.37
917.127	35.38
917.497	35.37
917.868	35.38
918.238	35.35
918.608	35.39
918.978	35.39
919.348	35.37
919.718	35.36
920.088	35.39
920.458	35.39
920.828	35.35
921.198	35.33
921.567	35.36
921.937	35.35
922.306	35.36
922.676	35.36
923.045	35.37
923.415	35.38
923.784	35.39
924.153	35.4
924.522	35.39
924.891	35.42
925.26	35.46
925.629	35.46
925.998	35.43
926.367	35.43
926.736	35.43
927.104	35.4
927.473	35.4
927.842	35.38
928.21	35.37
928.578	35.37
928.947	35.39
929.315	35.36
929.683	35.35
930.051	35.35
930.42	35.37
930.788	35.37
931.156	35.36
931.523	35.36
931.891	35.4
932.259	35.4
932.627	35.4
932.994	35.37
933.362	35.36
933.729	35.38
934.097	35.41
934.464	35.41
934.831	35.39
935.199	35.41
935.566	35.43
935.933	35.41
936.3	35.42
936.667	35.42
937.034	35.46
937.401	35.51
937.767	35.5
938.134	35.48
938.501	35.46
938.867	35.48
939.234	35.48
939.6	35.45
939.967	35.45
940.333	35.41
940.699	35.43
941.065	35.37
941.431	35.4
941.798	35.4
942.163	35.43
942.529	35.46
942.895	35.49
943.261	35.49
943.627	35.52
943.992	35.52
944.358	35.55
944.723	35.52
945.089	35.53
945.454	35.5
945.82	35.49
946.185	35.47
946.55	35.42
946.915	35.36
947.28	35.37
947.645	35.37
948.01	35.39
948.375	35.4
948.74	35.35
949.104	35.36
949.469	35.37
949.834	35.37
950.198	35.36
950.562	35.34
950.927	35.32
951.291	35.24
951.655	35.17
952.02	35.11
952.384	35.09
952.748	35.08
953.112	35.02
953.476	34.94
953.839	34.86
954.203	34.86
954.567	34.88
954.931	34.86
955.294	34.85
955.658	34.9
956.021	34.89
956.385	34.82
956.748	34.83
957.111	34.86
957.474	34.86
957.837	34.85
958.2	34.82
958.563	34.82
958.926	34.83
959.289	34.82
959.652	34.78
960.015	34.75
960.377	34.8
960.74	34.81
961.102	34.81
961.465	34.83
961.827	34.89
962.189	34.92
962.552	34.88
962.914	34.9
963.276	34.93
963.638	34.94
964	34.96
964.362	34.97
964.724	34.97
965.085	34.93
965.447	34.89
965.809	34.86
966.17	34.84
966.532	34.86
966.893	34.87
967.255	34.9
967.616	34.89
967.977	34.85
968.338	34.85
968.699	34.87
969.061	34.91
969.421	34.97
969.782	35
970.143	34.97
970.504	34.98
970.865	34.96
971.225	34.92
971.586	34.9
971.946	34.94
972.307	34.89
972.667	34.84
973.027	34.87
973.388	34.86
973.748	34.86
974.108	34.94
974.468	34.93
974.828	34.98
975.188	34.99
975.548	34.99
975.907	34.99
976.267	35.02
976.627	35.06
976.986	35.03
977.346	35.02
977.705	35
978.064	35
978.424	35.03
978.783	35.01
979.142	35.04
979.501	35.09
979.86	35.12
980.219	35.12
980.578	35.16
980.937	35.21
981.296	35.2
981.654	35.2
982.013	35.15
982.371	35.19
982.73	35.23
983.088	35.24
983.447	35.22
983.805	35.21
984.163	35.24
984.521	35.17
984.879	35.1
985.237	35.15
985.595	35.2
985.953	35.23
986.311	35.17
986.669	35.09
987.026	35.09
987.384	35.11
987.741	35.12
988.099	35.14
988.456	35.12
988.814	35.18
989.171	35.21
989.528	35.2
989.885	35.17
990.242	35.18
990.599	35.3
990.956	35.38
991.313	35.43
991.67	35.4
992.027	35.45
992.383	35.56
992.74	35.64
993.096	35.65
993.453	35.71
993.809	35.79
994.165	35.89
994.522	35.91
994.878	35.85
995.234	35.81
995.59	35.84
995.946	35.82
996.302	35.84
996.658	35.78
997.013	35.84
997.369	35.82
997.725	35.89
998.08	35.96
998.436	35.99
998.791	36.04
999.147	35.99
999.502	36.1
999.857	36.14
1000.212	36.03
1000.567	36.12
1000.922	36.02
1001.277	36
1001.632	35.87
1001.987	35.79
1002.342	35.68
1002.696	35.61
1003.051	35.89
1003.406	35.98
1003.76	36.1
1004.114	36.27
1004.469	36.31
1004.823	36.63
1005.177	36.71
1005.531	36.8
1005.885	36.89
1006.239	36.95
1006.593	37.16
1006.947	37.13
1007.301	36.98
1007.655	36.87
1008.008	36.85
1008.362	36.97
1008.715	36.66
1009.069	36.81
1009.422	36.87
1009.776	36.79
1010.129	36.81
1010.482	36.76
1010.835	36.75
1011.188	36.87
1011.541	37.01
1011.894	37.15
1012.247	37.1
1012.6	37.31
1012.952	37.16
1013.305	37.18
1013.657	37.23
1014.01	37.35
1014.362	37.4
1014.715	37.46
1015.067	37.46
1015.419	37.49
1015.771	37.34
1016.123	37.39
1016.475	37.4
1016.827	37.45
1017.179	37.56
1017.531	37.6
1017.883	37.55
1018.234	37.67
1018.586	37.74
1018.938	38.04
1019.289	37.83
1019.64	37.92
1019.992	37.84
1020.343	37.7
1020.694	37.59
1021.045	37.69
1021.396	37.74
1021.747	37.94
1022.098	37.94
1022.449	37.89
1022.8	37.69
1023.151	37.91
1023.501	37.94
1023.852	38.2
1024.202	38.32
1024.553	38.61
1024.903	38.69
1025.253	38.91
1025.604	38.79
1025.954	38.73
1026.304	38.52
1026.654	38.44
1027.004	38.35
1027.354	38.59
1027.703	38.33
1028.053	38.52
1028.403	38.61
1028.753	38.33
1029.102	38.44
1029.452	38.63
1029.801	38.86
1030.15	39.11
1030.499	39.24
897.758	1404.66
901.051	1402.37
904.343	1407.64
907.636	1427.82
910.928	1388.21
914.22	1386.23
917.511	1362.19
920.803	1307.65
924.094	1300.75
927.384	1269.01
930.675	1212.42
933.965	1205.29
937.255	1139.96
940.544	1088.6
943.834	1038.12
947.123	1029.09
950.411	968.94
953.7	949.91
956.988	898.33
960.276	859.91
963.563	846.44
966.851	816.42
970.138	808.97
973.424	781.64
976.711	785.82
979.997	745.86
983.283	742.31
986.568	726.32
989.853	702.24
993.138	689.48
996.423	665.42
999.708	646.66
1002.992	639.56
1006.275	609.04
1009.559	603.93
1012.842	581.82
1016.125	566.43
1019.408	555.84
1022.69	547.5
1025.972	537.75
1029.254	524.48
1032.536	514.35
1035.817	504.13
1039.098	497.83
1042.379	488.17
1045.659	482.02
1048.939	470.02
1052.219	461.79
1055.498	453.69
1058.778	444.07
1062.057	433.41
1065.335	427.96
1068.614	422.59
1071.892	418.41
1075.17	404.63
1078.447	397.04
1081.724	393.74
1085.001	390.85
1088.278	382.38
1091.554	375.96
1094.83	375.8
1098.106	373.26
1101.382	369.79
1104.657	366.24
1107.932	359.66
1111.206	361.88
1114.481	352.47
1117.755	349.45
1121.029	346.28
1124.302	345.21
1127.575	338.16
1130.848	334.23
1134.121	330.8
1137.393	329.25
1140.665	322.88
1143.937	320.45
1147.208	317.56
1150.48	317.98
1153.75	313.49
1157.021	308.62
1160.291	308.71
1163.561	304.72
1166.831	304.82
1170.101	302.29
1173.37	301.58
1176.639	302.6
1179.907	299.11
1183.176	296.77
1186.444	295.44
1189.711	295.64
1192.979	294.33
1196.246	292.45
1199.513	294.44
1202.78	291.78
1206.046	291.44
1209.312	288.43
1212.578	288.82
1215.843	291.41
1219.108	288.8
1222.373	295.39
1225.638	297.02
1228.902	301.86
1232.166	302.07
1235.43	303.36
1238.693	307.95
1241.956	309.7
1245.219	314.71
1248.482	314.88
1251.744	315.14
1255.006	316.9
1258.268	308.58
1261.529	305.46
1264.79	303.64
1268.051	301.91
1271.312	298.91
1274.572	294.51
1277.832	291.74
1281.092	286.74
1284.351	284.28
1287.61	284.19
1290.869	278.56
1294.128	277.22
1297.386	277.19
1300.644	274.02
1303.902	274.77
1307.159	273.27
1310.416	273.73
1313.673	273.54
1316.93	276.27
1320.186	276.23
1323.442	276.4
1326.697	282.44
1329.953	282.92
1333.208	284.26
1336.463	288.32
1339.717	288.41
1342.972	292.12
1346.226	294.61
1349.479	295.73
1352.733	297.08
1355.986	298.66
1359.238	299.24
1362.491	300.23
1365.743	303.5
1368.995	303.08
1372.247	301.8
1375.498	302.03
1378.749	304.25
1382	301.45
1385.251	302.46
1388.501	300.66
1391.751	302.55
1395	301.16
1398.25	298.97
1401.499	298.32
1404.748	298.42
1407.996	295.74
1411.244	294.72
1414.492	293.49
1417.74	290.54
1420.987	285.6
1424.234	286.54
1427.481	281.91
1430.728	282.01
1433.974	279.51
1437.22	276.87
1440.465	275.66
1443.711	273.53
1446.956	271.78
1450.201	267.78
1453.445	266.08
1456.689	265.07
1459.933	260.24
1463.177	258.29
1466.42	255.02
1469.663	251.59
1472.906	249.62
1476.148	243.28
1479.391	240.52
1482.633	238.34
1485.874	235.72
1489.115	233.57
1492.356	230.45
1495.597	229.21
1498.838	225.86
1502.078	223.61
1505.318	222.72
1508.557	222.47
1511.797	222.22
1515.036	220.68
1518.274	219.8
1521.513	217.15
1524.751	216.99
1527.989	216.77
1531.227	215.6
1534.464	216.21
1537.701	214.68
1540.938	214.07
1544.174	210.51
1547.41	210.48
1550.646	209.72
1553.882	209.49
1557.117	206.51
1560.352	204.72
1563.587	204.29
1566.821	203.12
1570.055	200.85
1573.289	199.45
1576.523	198.83
1579.756	198.09
1582.989	196.73
1586.222	195.95
1589.454	195.28
1592.686	197.41
1595.918	196.4
1599.15	195.29
1602.381	195.44
1605.612	195.27
1608.843	195.58
1612.073	195.89
1615.303	196.62
1618.533	196.93
1621.762	196.25
1624.992	196.36
1628.221	195.4
1631.449	195.18
1634.678	194.82
1637.906	196.19
1641.134	195.91
1644.361	195.72
1647.588	196.07
1650.815	195.38
1654.042	194.37
1657.269	196.13
1660.495	195.77
1663.72	195.11
1666.946	196.04
1670.171	196.82
1673.396	195.62
1676.621	196.12
1679.845	196.61
1683.069	196.11
1686.293	197.57
1689.517	198.58
1692.74	198.05
1695.963	199.11
1699.185	201.18
1702.408	201.54
1705.63	202.44
1708.852	203.22
1712.073	203.59
1715.294	203.81
1718.515	205.6
1721.736	204.89
1724.956	205.93
1728.176	205.88
1731.396	207.19
1734.616	206.6
1737.835	207.57
1741.054	205.58
1744.272	206.81
1747.491	208.21
1750.709	208.86
1753.927	208.58
1757.144	207.94
1760.361	208.58
1763.578	208.94
1766.795	208.35
1770.011	209.65
1773.227	209.6
1776.443	212.83
1779.658	213.36
1782.874	212.77
1786.089	213.58
1789.303	214.3
1792.518	217.55
1795.732	216.68
1798.945	219.6
1802.159	219.55
1805.372	219.92
1808.585	223.79
1811.797	224.34
1815.01	224.78
1818.222	227.23
1821.434	228.96
1824.645	229.39
1827.856	233.16
1831.067	236.02
1834.278	234.97
1837.488	237.25
1840.698	239.11
1843.908	236.77
1847.117	238.23
1850.326	240
1853.535	239.51
1856.744	243
1859.952	243.73
1863.16	241.91
1866.368	240.62
1869.575	243.54
1872.782	240.53
1875.989	240.21
1879.196	240.14
1882.402	238.91
1885.608	239.59
1888.814	240.34
1892.019	240.01
1895.224	239.31
1898.429	238.52
1901.634	240.24
1904.838	240.11
1908.042	243.09
1911.246	243.79
1914.449	245.09
1917.652	244.77
1920.855	244.86
1924.058	245.37
1927.26	243.93
1930.462	244.91
1933.664	248.16
1936.865	245.92
1940.066	246.52
1943.267	244.7
1946.467	244.88
1949.668	246.27
1952.868	250.34
1956.067	250.13
1959.267	249.83
1962.466	250.55
1965.665	249.09
1968.863	249.97
1972.061	253.5
1975.259	255.45
1978.457	257.25
1981.654	259
1984.852	259.69
1988.048	258.2
1991.245	260.86
1994.441	264.53
1997.637	265.61
2000.833	271.65
2004.028	274.66
2007.223	275.47
2010.418	278.17
2013.613	282.83
2016.807	286.47
2020.001	288.68
2023.194	292.57
2026.388	299.57
2029.581	304.38
2032.774	307.97
2035.966	313.51
2039.158	313.75
2042.35	320.22
2045.542	322.44
2048.733	327.51
2051.924	331.91
2055.115	337.36
2058.306	338.73
2061.496	340.89
2064.686	342.08
2067.875	348.19
2071.065	349.25
2074.254	347.58
2077.442	352.38
2080.631	353.3
2083.819	356.93
2087.007	356.31
2090.195	360.48
2093.382	363.15
2096.569	360.88
2099.756	367.19
2102.942	368.05
2106.128	370.79
2109.314	379.85
2112.5	378.54
2115.685	386.09
2118.87	386.63
2122.055	395.84
2125.239	397.82
2128.424	402.81
2131.608	404.96
2134.791	409.97
2137.974	411.36
2141.157	412.8
2144.34	412.87
2147.523	420.29
2150.705	417.98
2153.887	420.26
2157.068	419.81
2160.25	417.08
2163.431	418.78
2166.611	424.2
2169.792	432.56
2172.972	438.44
2176.152	441.24
2179.331	446.93
2182.511	452.64
2185.69	457.86
2188.868	469.46
2192.047	469.62
2195.225	482.74
2198.403	496.84
2201.58	505.79
2204.758	514.33
2207.935	523.8
2211.111	535.49
2214.288	541.11
2217.464	543.64
2220.64	551.35
2223.815	557.98
2226.991	582.12
2230.166	584.15
2233.34	593.6
2236.515	601.79
2239.689	601.94
2242.863	606.18
2246.036	622.1
2249.209	616.68
2252.382	626.1
2255.555	645.5
2258.727	647.86
2261.9	652.66
2265.071	657.92
2268.243	667.51
2271.414	676.9
2274.585	691.21
2277.756	697.74
2280.926	702.13
2284.096	719.75
2287.266	735.69
2290.436	742.68
2293.605	759.79
2296.774	781.63
2299.942	806.41
2303.111	811.59
2306.279	830.39
2309.447	842.45
2312.614	863.26
2315.781	887.21
2318.948	929.98
2322.115	915.55
2325.281	966.97
2328.447	945.77
2331.613	983.63
2334.779	972.39
2337.944	1014.49
2341.109	1024.17
2344.274	1052.45
2347.438	1092.05
2350.602	1092.76
2353.766	1124.13
2356.929	1142.68
2360.092	1131.7
2363.255	1217.09
2366.418	1213.35
2369.58	1236.85
2372.742	1317.34
2375.904	1351.48
2379.066	1343.33
2382.227	1315.05
2385.388	1425.52
2388.548	1425.64
2391.709	1445.61
2394.869	1607.87
2398.029	1536.69
2401.188	1582.83
2404.347	1576.81
2407.506	1545.64
2410.665	1585.19
2413.823	1683.15
2416.981	1781.39
2420.139	1724.8
2423.296	1706.32
2426.453	1784.23
2429.61	1720
2432.767	1799.8
2435.923	1779.3
2439.079	1943.94
2442.235	1974.58
2445.391	1957.88
2448.546	1941.98
2451.701	1888.52
2454.855	1886.21
2458.009	2005.99
2461.163	2079.93
2464.317	2147.23
2467.471	2205.58
2470.624	2206.53
2473.777	2153.73
2476.929	2087.79
2480.082	2032.76
2483.234	2009.32
2486.385	2111.1
2489.537	2121.48
2492.688	2196.55
2495.839	2137.86
2498.989	2097.4
2502.14	2102.47
2505.29	2125.25
2508.439	2144.11
2511.589	2145.12
2514.738	2343.58
2517.887	2291.54
2521.035	2423.11
2524.183	2438.6
2527.331	2457.55
2530.479	2442.35
2533.627	2458.66
