Data from N_3_DEC_OH_4N_Splice17_14-22-15-397.txt Node
Date: Sat Mar 07 14:22:15 EST 2020
User: sa697716
Spectrometer: NQ5500242
Trigger mode: 0
Integration Time (sec): 1.450000E-1
Scans to average: 20
Nonlinearity correction enabled: false
Boxcar width: 5
Storing dark spectrum: false
XAxis mode: Wavelengths
Number of Pixels in Spectrum: 512
>>>>>Begin Spectral Data<<<<<
187.83	157.04
188.298	192.85
188.766	156.04
189.233	129.29
189.701	132.09
190.169	157.99
190.636	163.46
191.104	150.14
191.571	179.13
192.039	204.61
192.506	-58.12
192.974	103.97
193.441	260.02
193.908	90.87
194.375	95.92
194.842	3.74
195.31	31.3
195.777	-132.32
196.244	46.55
196.711	67.8
197.177	72.26
197.644	72.6
198.111	72.12
198.578	72.76
199.045	73.74
199.511	73.21
199.978	73.54
200.445	73.7
200.911	73.68
201.378	73.69
201.844	73.58
202.31	73.24
202.777	73.16
203.243	73.18
203.709	72.55
204.176	71.79
204.642	71.42
205.108	71.28
205.574	70.89
206.04	70.3
206.506	69.6
206.972	69.36
207.438	68.41
207.903	67.31
208.369	65.75
208.835	64.59
209.301	62.79
209.766	60.93
210.232	59.17
210.697	57.09
211.163	55.56
211.628	54.27
212.094	52.76
212.559	51.36
213.024	50.08
213.49	49.03
213.955	47.8
214.42	46.79
214.885	45.38
215.35	43.54
215.815	41.25
216.28	38.22
216.745	34.9
217.21	31.46
217.675	28.4
218.14	25.62
218.604	23.18
219.069	21.15
219.534	19.43
219.998	18.12
220.463	17
220.927	16.01
221.392	15.27
221.856	14.63
222.32	14.1
222.785	13.62
223.249	13.2
223.713	12.83
224.177	12.5
224.642	12.2
225.106	11.88
225.57	11.58
226.034	11.34
226.497	11.09
226.961	10.84
227.425	10.61
227.889	10.41
228.353	10.21
228.816	10.03
229.28	9.82
229.744	9.66
230.207	9.49
230.671	9.33
231.134	9.18
231.597	9.05
232.061	8.91
232.524	8.77
232.987	8.65
233.45	8.54
233.914	8.42
234.377	8.33
234.84	8.21
235.303	8.12
235.766	8.04
236.229	7.94
236.691	7.84
237.154	7.76
237.617	7.69
238.08	7.6
238.542	7.51
239.005	7.45
239.468	7.36
239.93	7.31
240.393	7.24
240.855	7.15
241.317	7.08
241.78	7.03
242.242	6.95
242.704	6.88
243.166	6.82
243.629	6.77
244.091	6.7
244.553	6.65
245.015	6.59
245.477	6.52
245.939	6.47
246.4	6.42
246.862	6.36
247.324	6.33
247.786	6.26
248.247	6.21
248.709	6.15
249.17	6.1
249.632	6.06
250.093	6
250.555	5.96
251.016	5.92
251.477	5.88
251.939	5.85
252.4	5.81
252.861	5.78
253.322	5.75
253.783	5.73
254.244	5.7
254.705	5.66
255.166	5.63
255.627	5.6
256.088	5.58
256.549	5.54
257.009	5.5
257.47	5.47
257.931	5.43
258.391	5.38
258.852	5.35
259.312	5.31
259.773	5.27
260.233	5.24
260.694	5.21
261.154	5.18
261.614	5.15
262.074	5.12
262.534	5.08
262.994	5.06
263.455	5.04
263.915	5.01
264.374	4.99
264.834	4.97
265.294	4.94
265.754	4.93
266.214	4.91
266.673	4.89
267.133	4.87
267.593	4.86
268.052	4.85
268.512	4.84
268.971	4.83
269.431	4.82
269.89	4.81
270.349	4.8
270.809	4.78
271.268	4.77
271.727	4.76
272.186	4.75
272.645	4.75
273.104	4.74
273.563	4.72
274.022	4.71
274.481	4.7
274.94	4.7
275.399	4.69
275.857	4.69
276.316	4.68
276.775	4.68
277.233	4.68
277.692	4.67
278.15	4.66
278.609	4.66
279.067	4.66
279.525	4.66
279.984	4.65
280.442	4.64
280.9	4.64
281.358	4.64
281.816	4.63
282.274	4.63
282.732	4.62
283.19	4.62
283.648	4.62
284.106	4.61
284.564	4.61
285.021	4.61
285.479	4.61
285.937	4.6
286.394	4.59
286.852	4.59
287.309	4.58
287.767	4.57
288.224	4.56
288.682	4.54
289.139	4.52
289.596	4.5
290.053	4.48
290.511	4.46
290.968	4.44
291.425	4.42
291.882	4.4
292.339	4.38
292.796	4.36
293.252	4.35
293.709	4.34
294.166	4.33
294.623	4.33
295.079	4.32
295.536	4.31
295.992	4.3
296.449	4.3
296.905	4.29
297.362	4.28
297.818	4.27
298.274	4.27
298.731	4.26
299.187	4.25
299.643	4.24
300.099	4.23
300.555	4.23
301.011	4.22
301.467	4.21
301.923	4.2
302.379	4.2
302.835	4.2
303.291	4.19
303.746	4.18
304.202	4.18
304.658	4.18
305.113	4.18
305.569	4.18
306.024	4.18
306.479	4.18
306.935	4.18
307.39	4.18
307.845	4.18
308.301	4.18
308.756	4.19
309.211	4.19
309.666	4.2
310.121	4.2
310.576	4.2
311.031	4.2
311.486	4.2
311.94	4.2
312.395	4.2
312.85	4.2
313.305	4.2
313.759	4.2
314.214	4.2
314.668	4.19
315.123	4.19
315.577	4.19
316.032	4.18
316.486	4.17
316.94	4.17
317.394	4.16
317.849	4.14
318.303	4.13
318.757	4.11
319.211	4.1
319.665	4.09
320.119	4.07
320.572	4.05
321.026	4.04
321.48	4.03
321.934	4.02
322.387	4.01
322.841	4.01
323.295	4
323.748	4
324.202	3.99
324.655	3.98
325.108	3.99
325.562	3.99
326.015	4
326.468	4
326.921	4
327.374	4.01
327.827	4.01
328.28	4.01
328.733	4.01
329.186	4.02
329.639	4.02
330.092	4.02
330.545	4.02
330.997	4.01
331.45	4.02
331.903	4.02
332.355	4.03
332.808	4.03
333.26	4.03
333.713	4.03
334.165	4.02
334.617	4.03
335.069	4.03
335.522	4.04
335.974	4.05
336.426	4.06
336.878	4.05
337.33	4.06
337.782	4.07
338.234	4.07
338.686	4.08
339.137	4.08
339.589	4.08
340.041	4.07
340.493	4.07
340.944	4.05
341.396	4.04
341.847	4.03
342.299	4
342.75	3.98
343.201	3.97
343.653	3.95
344.104	3.94
344.555	3.93
345.006	3.92
345.457	3.89
345.908	3.88
346.359	3.87
346.81	3.86
347.261	3.86
347.712	3.86
348.163	3.85
348.613	3.85
349.064	3.85
349.515	3.84
349.965	3.83
350.416	3.83
350.866	3.84
351.317	3.84
351.767	3.85
352.217	3.85
352.668	3.85
353.118	3.85
353.568	3.84
354.018	3.85
354.468	3.86
354.918	3.87
355.368	3.88
355.818	3.88
356.268	3.89
356.718	3.88
357.168	3.88
357.617	3.88
358.067	3.88
358.517	3.89
358.966	3.89
359.416	3.89
359.865	3.89
360.315	3.89
360.764	3.89
361.213	3.88
361.663	3.88
362.112	3.9
362.561	3.9
363.01	3.9
363.459	3.88
363.908	3.88
364.357	3.89
364.806	3.88
365.255	3.88
365.703	3.89
366.152	3.9
366.601	3.91
367.05	3.9
367.498	3.91
367.947	3.92
368.395	3.93
368.844	3.93
369.292	3.94
369.74	3.95
370.189	3.95
370.637	3.94
371.085	3.94
371.533	3.93
371.981	3.92
372.429	3.93
372.877	3.92
373.325	3.91
373.773	3.92
374.221	3.91
374.669	3.9
375.116	3.89
375.564	3.89
376.012	3.9
376.459	3.9
376.907	3.91
377.354	3.91
377.801	3.92
378.249	3.92
378.696	3.93
379.143	3.93
379.591	3.94
380.038	3.95
380.485	3.96
380.932	3.95
381.379	3.96
381.826	3.96
382.273	3.96
382.72	3.95
383.166	3.95
383.613	3.94
384.06	3.93
384.506	3.93
384.953	3.93
385.4	3.93
385.846	3.95
386.292	3.95
386.739	3.94
387.185	3.95
387.631	3.97
388.078	3.97
388.524	3.97
388.97	3.99
389.416	4
389.862	4.02
390.308	4.03
390.754	4.04
391.2	4.05
391.645	4.07
392.091	4.09
392.537	4.11
392.983	4.12
393.428	4.14
393.874	4.15
394.319	4.16
394.765	4.16
395.21	4.17
395.655	4.18
396.101	4.19
396.546	4.19
396.991	4.21
397.436	4.21
397.881	4.24
398.326	4.26
398.771	4.27
399.216	4.29
399.661	4.32
400.106	4.34
400.551	4.36
400.995	4.35
401.44	4.36
401.885	4.37
402.329	4.39
402.774	4.39
403.218	4.41
403.663	4.44
404.107	4.45
404.551	4.45
404.995	4.47
405.44	4.47
405.884	4.49
406.328	4.52
406.772	4.54
407.216	4.55
407.66	4.56
408.104	4.55
408.547	4.56
408.991	4.57
409.435	4.57
409.879	4.58
410.322	4.6
410.766	4.62
411.209	4.62
411.653	4.64
412.096	4.66
412.54	4.67
412.983	4.67
413.426	4.71
413.869	4.72
414.312	4.76
414.756	4.79
415.199	4.8
415.642	4.82
416.085	4.84
416.527	4.84
416.97	4.84
417.413	4.85
417.856	4.85
418.298	4.82
418.741	4.83
419.184	4.82
419.626	4.82
420.069	4.83
420.511	4.83
420.953	4.83
421.396	4.84
421.838	4.85
422.28	4.86
422.722	4.89
423.164	4.91
423.606	4.92
424.048	4.93
424.49	4.95
424.932	4.96
425.374	4.95
425.816	4.93
426.258	4.92
426.699	4.91
427.141	4.9
427.582	4.9
428.024	4.91
428.465	4.92
428.907	4.93
429.348	4.92
429.789	4.91
430.231	4.93
430.672	4.95
431.113	4.98
431.554	5
431.995	5.03
432.436	5.03
432.877	5.05
433.318	5.05
433.759	5.08
434.2	5.1
434.64	5.11
435.081	5.13
435.522	5.15
435.962	5.17
436.403	5.21
436.843	5.23
437.284	5.23
437.724	5.24
438.164	5.24
438.604	5.24
439.045	5.25
439.485	5.26
439.925	5.27
440.365	5.28
440.805	5.29
441.245	5.28
441.685	5.31
442.125	5.34
442.564	5.35
443.004	5.36
443.444	5.37
443.883	5.38
444.323	5.38
444.762	5.39
445.202	5.39
445.641	5.39
446.081	5.39
446.52	5.37
446.959	5.39
447.398	5.4
447.837	5.39
448.276	5.4
448.716	5.4
449.154	5.42
449.593	5.43
450.032	5.43
450.471	5.42
450.91	5.42
451.349	5.42
451.787	5.4
452.226	5.38
452.664	5.4
453.103	5.38
453.541	5.38
453.98	5.35
454.418	5.32
454.856	5.3
455.295	5.29
455.733	5.26
456.171	5.24
456.609	5.23
457.047	5.2
457.485	5.18
457.923	5.16
458.361	5.14
458.798	5.14
459.236	5.14
459.674	5.14
460.111	5.13
460.549	5.16
460.987	5.17
461.424	5.18
461.862	5.2
462.299	5.22
462.736	5.23
463.173	5.26
463.611	5.27
464.048	5.27
464.485	5.27
464.922	5.28
465.359	5.27
465.796	5.27
466.233	5.28
466.67	5.28
467.106	5.28
467.543	5.28
467.98	5.27
468.416	5.26
468.853	5.27
469.29	5.29
469.726	5.3
470.162	5.29
470.599	5.3
471.035	5.28
471.471	5.27
471.907	5.26
472.344	5.26
472.78	5.28
473.216	5.28
473.652	5.27
474.088	5.25
474.523	5.25
474.959	5.25
475.395	5.23
475.831	5.22
476.266	5.22
476.702	5.2
477.138	5.19
477.573	5.17
478.008	5.17
478.444	5.15
478.879	5.14
479.314	5.12
479.75	5.11
480.185	5.11
480.62	5.11
481.055	5.1
481.49	5.1
481.925	5.1
482.36	5.09
482.795	5.09
483.229	5.09
483.664	5.09
484.099	5.09
484.534	5.08
484.968	5.08
485.403	5.07
485.837	5.07
486.271	5.08
486.706	5.08
487.14	5.08
487.574	5.08
488.009	5.08
488.443	5.08
488.877	5.1
489.311	5.12
489.745	5.14
490.179	5.16
490.613	5.18
491.046	5.2
491.48	5.22
491.914	5.24
492.348	5.27
492.781	5.3
493.215	5.34
493.648	5.36
494.082	5.39
494.515	5.42
494.948	5.44
495.382	5.47
495.815	5.51
496.248	5.54
496.681	5.59
497.114	5.62
497.547	5.67
497.98	5.7
498.413	5.74
498.846	5.79
499.279	5.84
499.711	5.89
500.144	5.94
500.577	6
501.009	6.05
501.442	6.11
501.874	6.17
502.306	6.22
502.739	6.3
503.171	6.37
503.603	6.44
504.036	6.52
504.468	6.59
504.9	6.66
505.332	6.74
505.764	6.83
506.196	6.91
506.627	7.01
507.059	7.1
507.491	7.18
507.923	7.27
508.354	7.38
508.786	7.48
509.217	7.58
509.649	7.69
510.08	7.8
510.512	7.91
510.943	8.01
511.374	8.12
511.805	8.24
512.237	8.34
512.668	8.45
513.099	8.57
513.53	8.69
513.961	8.81
514.391	8.94
514.822	9.06
515.253	9.18
515.684	9.31
516.114	9.43
516.545	9.55
516.975	9.68
517.406	9.81
517.836	9.93
518.267	10.06
518.697	10.18
519.127	10.29
519.558	10.42
519.988	10.53
520.418	10.64
520.848	10.75
521.278	10.87
521.708	11.07
522.138	11.19
522.567	11.3
522.997	11.4
523.427	11.52
523.857	11.62
524.286	11.71
524.716	11.82
525.145	11.92
525.575	12.01
526.004	12.11
526.433	12.11
526.863	12.19
527.292	12.28
527.721	12.35
528.15	12.42
528.579	12.5
529.008	12.59
529.437	12.65
529.866	12.72
530.295	12.78
530.724	12.84
531.152	12.89
531.581	12.95
532.01	13.01
532.438	13.07
532.867	13.12
533.295	13.16
533.723	13.19
534.152	13.24
534.58	13.28
535.008	13.31
535.436	13.35
535.865	13.4
536.293	13.43
536.721	13.46
537.149	13.49
537.576	13.52
538.004	13.56
538.432	13.58
538.86	13.62
539.287	13.65
539.715	13.69
540.143	13.72
540.57	13.73
540.998	13.75
541.425	13.77
541.852	13.8
542.28	13.83
542.707	13.84
543.134	13.86
543.561	13.9
543.988	13.92
544.415	13.94
544.842	13.97
545.269	14
545.696	14.04
546.123	14.06
546.549	14.09
546.976	14.12
547.403	14.15
547.829	14.18
548.256	14.2
548.682	14.22
549.108	14.24
549.535	14.27
549.961	14.29
550.387	14.31
550.813	14.35
551.24	14.36
551.666	14.37
552.092	14.4
552.518	14.44
552.943	14.44
553.369	14.46
553.795	14.46
554.221	14.46
554.646	14.45
555.072	14.46
555.498	14.44
555.923	14.44
556.349	14.44
556.774	14.43
557.199	14.42
557.625	14.42
558.05	14.41
558.475	14.4
558.9	14.4
559.325	14.39
559.75	14.38
560.175	14.35
560.6	14.33
561.025	14.3
561.449	14.27
561.874	14.23
562.299	14.18
562.723	14.13
563.148	14.09
563.572	14.02
563.997	13.98
564.421	13.92
564.846	13.87
565.27	13.82
565.694	13.77
566.118	13.71
566.542	13.65
566.966	13.59
567.39	13.53
567.814	13.47
568.238	13.41
568.662	13.37
569.086	13.32
569.509	13.28
569.933	13.22
570.357	13.15
570.78	13.09
571.204	13.03
571.627	12.99
572.05	12.95
572.474	12.91
572.897	12.87
573.32	12.82
573.743	12.77
574.166	12.72
574.589	12.67
575.012	12.65
575.435	12.61
575.858	12.6
576.281	12.57
576.704	12.53
577.126	12.5
577.549	12.48
577.972	12.45
578.394	12.42
578.817	12.4
579.239	12.39
579.661	12.37
580.084	12.34
580.506	12.32
580.928	12.28
581.35	12.27
581.772	12.24
582.194	12.22
582.616	12.21
583.038	12.18
583.46	12.15
583.882	12.13
584.303	12.1
584.725	12.09
585.147	12.06
585.568	12.06
585.99	12.04
586.411	12.03
586.833	12
587.254	11.98
587.675	11.97
588.096	11.95
588.518	11.93
588.939	11.92
589.36	11.9
589.781	11.88
590.202	11.87
590.623	11.85
591.043	11.83
591.464	11.82
591.885	11.8
592.305	11.79
592.726	11.78
593.147	11.76
593.567	11.73
593.987	11.72
594.408	11.7
594.828	11.67
595.248	11.65
595.669	11.64
596.089	11.63
596.509	11.61
596.929	11.59
597.349	11.57
597.769	11.55
598.189	11.54
598.608	11.54
599.028	11.53
599.448	11.52
599.867	11.5
600.287	11.49
600.706	11.47
601.126	11.46
601.545	11.45
601.965	11.44
602.384	11.43
602.803	11.41
603.222	11.39
603.641	11.37
604.061	11.35
604.48	11.33
604.898	11.31
605.317	11.29
605.736	11.27
606.155	11.25
606.574	11.23
606.992	11.21
607.411	11.19
607.829	11.15
608.248	11.13
608.666	11.12
609.085	11.1
609.503	11.09
609.921	11.07
610.339	11.05
610.758	11.04
611.176	11
611.594	10.99
612.012	10.97
612.43	10.96
612.847	10.94
613.265	10.92
613.683	10.9
614.101	10.87
614.518	10.85
614.936	10.83
615.353	10.81
615.771	10.8
616.188	10.78
616.606	10.78
617.023	10.76
617.44	10.75
617.857	10.73
618.274	10.71
618.691	10.7
619.108	10.69
619.525	10.68
619.942	10.67
620.359	10.66
620.776	10.65
621.192	10.64
621.609	10.64
622.026	10.63
622.442	10.63
622.859	10.64
623.275	10.64
623.691	10.65
624.108	10.65
624.524	10.64
624.94	10.64
625.356	10.64
625.772	10.64
626.188	10.64
626.604	10.64
627.02	10.64
627.436	10.64
627.852	10.64
628.268	10.62
628.683	10.62
629.099	10.62
629.514	10.61
629.93	10.59
630.345	10.57
630.761	10.56
631.176	10.54
631.591	10.51
632.007	10.49
632.422	10.46
632.837	10.43
633.252	10.39
633.667	10.35
634.082	10.3
634.497	10.27
634.911	10.21
635.326	10.14
635.741	10.08
636.155	10.01
636.57	9.93
636.984	9.87
637.399	9.79
637.813	9.72
638.228	9.64
638.642	9.56
639.056	9.46
639.47	9.4
639.884	9.32
640.298	9.23
640.712	9.15
641.126	9.07
641.54	8.99
641.954	8.91
642.368	8.83
642.781	8.77
643.195	8.69
643.609	8.62
644.022	8.54
644.436	8.48
644.849	8.42
645.262	8.37
645.676	8.32
646.089	8.27
646.502	8.22
646.915	8.19
647.328	8.16
647.741	8.13
648.154	8.11
648.567	8.09
648.98	8.07
649.393	8.05
649.805	8.05
650.218	8.04
650.631	8.04
651.043	8.04
651.456	8.04
651.868	8.03
652.28	8.03
652.693	8.02
653.105	8.03
653.517	8.03
653.929	8.02
654.341	8.01
654.753	7.99
655.165	7.98
655.577	7.96
655.989	7.93
656.401	7.92
656.813	7.89
657.224	7.86
657.636	7.81
658.047	7.79
658.459	7.76
658.87	7.73
659.282	7.69
659.693	7.67
660.104	7.63
660.515	7.59
660.926	7.56
661.338	7.52
661.749	7.48
662.159	7.46
662.57	7.44
662.981	7.42
663.392	7.38
663.803	7.36
664.213	7.32
664.624	7.29
665.035	7.28
665.445	7.25
665.855	7.23
666.266	7.22
666.676	7.21
667.086	7.17
667.497	7.15
667.907	7.15
668.317	7.14
668.727	7.14
669.137	7.14
669.547	7.15
669.956	7.14
670.366	7.15
670.776	7.15
671.186	7.16
671.595	7.18
672.005	7.18
672.414	7.19
672.824	7.21
673.233	7.24
673.642	7.26
674.052	7.28
674.461	7.3
674.87	7.32
675.279	7.35
675.688	7.39
676.097	7.42
676.506	7.46
676.915	7.5
677.323	7.53
677.732	7.56
678.141	7.61
678.549	7.65
678.958	7.72
679.366	7.79
679.775	7.85
680.183	7.93
680.592	8.02
681	8.12
681.408	8.22
681.816	8.34
682.224	8.47
682.632	8.61
683.04	8.75
683.448	8.89
683.856	9.04
684.264	9.22
684.671	9.41
685.079	9.61
685.487	9.83
685.894	10.06
686.302	10.3
686.709	10.56
687.116	10.84
687.524	11.13
687.931	11.44
688.338	11.77
688.745	12.09
689.152	12.41
689.559	12.76
689.966	13.09
690.373	13.45
690.78	13.81
691.187	14.17
691.593	14.53
692	14.9
692.407	15.25
692.813	15.61
693.22	15.98
693.626	16.34
694.032	16.7
694.439	17.04
694.845	17.38
695.251	17.72
695.657	18.04
696.063	18.37
696.469	18.69
696.875	19.02
697.281	19.35
697.687	19.66
698.093	19.96
698.498	20.26
698.904	20.56
699.31	20.84
699.715	21.12
700.12	21.4
700.526	21.66
700.931	21.92
701.337	22.15
701.742	22.39
702.147	22.63
702.552	22.87
702.957	23.07
703.362	23.29
703.767	23.48
704.172	23.68
704.577	23.89
704.981	24.09
705.386	24.29
705.791	24.49
706.195	24.68
706.6	24.86
707.004	25.03
707.408	25.23
707.813	25.41
708.217	25.59
708.621	25.76
709.025	25.92
709.43	26.08
709.834	26.23
710.237	26.39
710.641	26.54
711.045	26.7
711.449	26.86
711.853	27.02
712.256	27.18
712.66	27.33
713.064	27.48
713.467	27.61
713.87	27.75
714.274	27.89
714.677	28.03
715.08	28.18
715.484	28.3
715.887	28.44
716.29	28.54
716.693	28.67
717.096	28.8
717.499	28.91
717.901	29.03
718.304	29.13
718.707	29.25
719.109	29.36
719.512	29.46
719.915	29.57
720.317	29.66
720.719	29.75
721.122	29.84
721.524	29.93
721.926	30.02
722.328	30.13
722.731	30.21
723.133	30.3
723.535	30.37
723.937	30.47
724.338	30.52
724.74	30.59
725.142	30.71
725.544	30.76
725.945	30.83
726.347	30.9
726.748	30.95
727.15	31.01
727.551	31.07
727.952	31.12
728.354	31.18
728.755	31.25
729.156	31.3
729.557	31.31
729.958	31.38
730.359	31.43
730.76	31.51
731.161	31.57
731.562	31.62
731.962	31.65
732.363	31.71
732.763	31.75
733.164	31.8
733.564	31.84
733.965	31.88
734.365	31.91
734.766	31.95
735.166	31.96
735.566	32
735.966	32.04
736.366	32.1
736.766	32.12
737.166	32.18
737.566	32.2
737.966	32.25
738.365	32.28
738.765	32.35
739.165	32.38
739.564	32.42
739.964	32.43
740.363	32.46
740.763	32.47
741.162	32.49
741.561	32.5
741.96	32.52
742.36	32.54
742.759	32.57
743.158	32.56
743.557	32.58
743.955	32.6
744.354	32.65
744.753	32.69
745.152	32.75
745.55	32.8
745.949	32.84
746.348	32.91
746.746	32.92
747.144	32.95
747.543	33.01
747.941	33.06
748.339	33.09
748.737	33.1
749.136	33.12
749.534	33.1
749.932	33.13
750.33	33.13
750.727	33.13
751.125	33.16
751.523	33.16
751.921	33.15
752.318	33.15
752.716	33.16
753.113	33.17
753.511	33.16
753.908	33.18
754.305	33.17
754.703	33.17
755.1	33.17
755.497	33.16
755.894	33.15
756.291	33.14
756.688	33.13
757.085	33.13
757.482	33.12
757.878	33.13
758.275	33.13
758.672	33.12
759.068	33.14
759.465	33.13
759.861	33.15
760.258	33.18
760.654	33.23
761.05	33.25
761.447	33.26
761.843	33.27
762.239	33.27
762.635	33.29
763.031	33.31
763.427	33.29
763.822	33.32
764.218	33.33
764.614	33.31
765.01	33.3
765.405	33.29
765.801	33.3
766.196	33.32
766.592	33.35
766.987	33.36
767.382	33.38
767.778	33.43
768.173	33.44
768.568	33.45
768.963	33.47
769.358	33.51
769.753	33.54
770.148	33.55
770.542	33.56
770.937	33.59
771.332	33.6
771.726	33.62
772.121	33.64
772.515	33.63
772.91	33.67
773.304	33.71
773.699	33.72
774.093	33.73
774.487	33.75
774.881	33.78
775.275	33.77
775.669	33.77
776.063	33.77
776.457	33.79
776.851	33.82
777.245	33.8
777.638	33.77
778.032	33.79
778.425	33.83
778.819	33.87
779.212	33.89
779.606	33.92
779.999	33.95
780.392	33.98
780.786	34
781.179	34.04
781.572	34.09
781.965	34.15
782.358	34.18
782.751	34.17
783.143	34.17
783.536	34.18
783.929	34.2
784.322	34.23
784.714	34.25
785.107	34.29
785.499	34.29
785.891	34.32
786.284	34.33
786.676	34.34
787.068	34.34
787.46	34.38
787.852	34.4
788.245	34.39
788.636	34.39
789.028	34.41
789.42	34.4
789.812	34.42
790.204	34.42
790.595	34.42
790.987	34.42
791.378	34.45
791.77	34.46
792.161	34.48
792.553	34.52
792.944	34.53
793.335	34.54
793.726	34.56
794.117	34.55
794.508	34.56
794.899	34.58
795.29	34.61
795.681	34.62
796.072	34.63
796.463	34.62
796.853	34.62
797.244	34.62
797.634	34.62
798.025	34.65
798.415	34.68
798.806	34.69
799.196	34.72
799.586	34.74
799.976	34.77
800.366	34.8
800.756	34.84
801.146	34.87
801.536	34.91
801.926	34.93
802.316	34.93
802.706	34.95
803.095	34.97
803.485	34.98
803.874	34.99
804.264	35.01
804.653	35.03
805.043	35.03
805.432	35.03
805.821	35.07
806.21	35.1
806.599	35.13
806.988	35.15
807.377	35.17
807.766	35.21
808.155	35.19
808.544	35.21
808.933	35.22
809.321	35.25
809.71	35.26
810.098	35.27
810.487	35.26
810.875	35.28
811.264	35.31
811.652	35.31
812.04	35.3
812.428	35.37
812.816	35.36
813.204	35.38
813.592	35.37
813.98	35.4
814.368	35.4
814.756	35.42
815.144	35.4
815.531	35.41
815.919	35.43
816.306	35.44
816.694	35.43
817.081	35.48
817.469	35.47
817.856	35.49
818.243	35.48
818.63	35.5
819.017	35.49
819.404	35.48
819.791	35.47
820.178	35.49
820.565	35.47
820.952	35.45
821.339	35.43
821.725	35.44
822.112	35.47
822.498	35.48
822.885	35.5
823.271	35.52
823.657	35.52
824.044	35.54
824.43	35.54
824.816	35.56
825.202	35.59
825.588	35.59
825.974	35.58
826.36	35.57
826.746	35.58
827.132	35.57
827.517	35.58
827.903	35.6
828.289	35.59
828.674	35.58
829.06	35.58
829.445	35.56
829.83	35.57
830.216	35.55
830.601	35.53
830.986	35.53
831.371	35.51
831.756	35.49
832.141	35.48
832.526	35.46
832.911	35.46
833.295	35.45
833.68	35.46
834.065	35.46
834.449	35.46
834.834	35.46
835.218	35.44
835.603	35.43
835.987	35.42
836.371	35.41
836.755	35.4
837.139	35.39
837.524	35.4
837.908	35.39
838.291	35.39
838.675	35.39
839.059	35.38
839.443	35.37
839.827	35.39
840.21	35.39
840.594	35.41
840.977	35.42
841.361	35.41
841.744	35.39
842.127	35.37
842.511	35.38
842.894	35.37
843.277	35.37
843.66	35.36
844.043	35.36
844.426	35.36
844.809	35.36
845.191	35.37
845.574	35.38
845.957	35.41
846.339	35.42
846.722	35.42
847.104	35.44
847.487	35.45
847.869	35.49
848.252	35.5
848.634	35.51
849.016	35.52
849.398	35.53
849.78	35.53
850.162	35.52
850.544	35.54
850.926	35.54
851.307	35.54
851.689	35.57
852.071	35.58
852.452	35.58
852.834	35.6
853.215	35.59
853.597	35.61
853.978	35.61
854.359	35.62
854.741	35.62
855.122	35.6
855.503	35.6
855.884	35.6
856.265	35.61
856.646	35.59
857.026	35.61
857.407	35.62
857.788	35.61
858.169	35.64
858.549	35.63
858.93	35.64
859.31	35.66
859.69	35.69
860.071	35.7
860.451	35.7
860.831	35.71
861.211	35.69
861.591	35.69
861.971	35.7
862.351	35.72
862.731	35.74
863.111	35.74
863.491	35.75
863.87	35.76
864.25	35.77
864.629	35.78
865.009	35.79
865.388	35.81
865.768	35.82
866.147	35.82
866.526	35.81
866.905	35.81
867.284	35.84
867.663	35.84
868.042	35.83
868.421	35.85
868.8	35.87
869.179	35.89
869.558	35.89
869.936	35.92
870.315	35.93
870.693	35.96
871.072	35.99
871.45	35.99
871.828	36
872.207	36.02
872.585	36.01
872.963	36.01
873.341	36.02
873.719	36.03
874.097	36.01
874.475	36.02
874.853	36.03
875.23	36.03
875.608	36.05
875.986	36.1
876.363	36.12
876.741	36.14
877.118	36.16
877.495	36.15
877.873	36.19
878.25	36.21
878.627	36.24
879.004	36.25
879.381	36.26
879.758	36.25
880.135	36.24
880.512	36.24
880.889	36.23
881.265	36.21
881.642	36.23
882.019	36.22
882.395	36.21
882.772	36.18
883.148	36.17
883.524	36.16
883.901	36.15
884.277	36.12
884.653	36.11
885.029	36.11
885.405	36.11
885.781	36.11
886.157	36.1
886.532	36.14
886.908	36.13
887.284	36.13
887.659	36.11
888.035	36.09
888.411	36.09
888.786	36.08
889.161	36.09
889.537	36.09
889.912	36.08
890.287	36.06
890.662	36.04
891.037	36.04
891.412	36.02
891.787	36.01
892.162	36.01
892.536	35.99
892.911	36
893.286	35.97
893.66	35.96
894.035	35.96
894.409	35.96
894.784	35.96
895.158	35.94
895.532	35.96
895.906	35.98
896.281	35.97
896.655	35.96
897.029	35.98
897.402	35.97
897.776	35.97
898.15	35.98
898.524	35.99
898.898	35.98
899.271	36
899.645	36
900.018	36.03
900.392	36.06
900.765	36.1
901.138	36.11
901.511	36.14
901.884	36.18
902.258	36.21
902.631	36.24
903.003	36.26
903.376	36.28
903.749	36.29
904.122	36.3
904.495	36.33
904.867	36.35
905.24	36.37
905.612	36.4
905.985	36.39
906.357	36.4
906.729	36.41
907.102	36.44
907.474	36.46
907.846	36.48
908.218	36.5
908.59	36.52
908.962	36.55
909.334	36.57
909.705	36.57
910.077	36.61
910.449	36.62
910.82	36.63
911.192	36.64
911.563	36.65
911.935	36.64
912.306	36.65
912.677	36.65
913.048	36.65
913.419	36.64
913.79	36.67
914.161	36.66
914.532	36.65
914.903	36.67
915.274	36.67
915.645	36.67
916.015	36.71
916.386	36.74
916.756	36.74
917.127	36.76
917.497	36.78
917.868	36.79
918.238	36.81
918.608	36.86
918.978	36.88
919.348	36.93
919.718	36.95
920.088	36.97
920.458	36.96
920.828	36.98
921.198	36.99
921.567	37.01
921.937	37.04
922.306	37.03
922.676	37.01
923.045	37.01
923.415	36.98
923.784	36.99
924.153	37.01
924.522	37.03
924.891	37.02
925.26	37.02
925.629	37.06
925.998	37.03
926.367	37.04
926.736	37.04
927.104	37.06
927.473	37.08
927.842	37.08
928.21	37.11
928.578	37.1
928.947	37.12
929.315	37.11
929.683	37.11
930.051	37.13
930.42	37.13
930.788	37.13
931.156	37.12
931.523	37.09
931.891	37.14
932.259	37.14
932.627	37.14
932.994	37.12
933.362	37.13
933.729	37.13
934.097	37.14
934.464	37.16
934.831	37.2
935.199	37.25
935.566	37.31
935.933	37.3
936.3	37.28
936.667	37.3
937.034	37.34
937.401	37.39
937.767	37.41
938.134	37.46
938.501	37.5
938.867	37.54
939.234	37.55
939.6	37.58
939.967	37.63
940.333	37.69
940.699	37.77
941.065	37.81
941.431	37.81
941.798	37.81
942.163	37.84
942.529	37.89
942.895	37.94
943.261	37.99
943.627	38.02
943.992	38.03
944.358	38.09
944.723	38.08
945.089	38.11
945.454	38.16
945.82	38.18
946.185	38.19
946.55	38.12
946.915	38.1
947.28	38.06
947.645	38.04
948.01	38.02
948.375	37.97
948.74	37.98
949.104	37.99
949.469	37.97
949.834	37.93
950.198	37.89
950.562	37.85
950.927	37.82
951.291	37.75
951.655	37.7
952.02	37.69
952.384	37.63
952.748	37.57
953.112	37.5
953.476	37.43
953.839	37.4
954.203	37.37
954.567	37.39
954.931	37.36
955.294	37.34
955.658	37.39
956.021	37.35
956.385	37.37
956.748	37.35
957.111	37.34
957.474	37.42
957.837	37.43
958.2	37.43
958.563	37.38
958.926	37.37
959.289	37.37
959.652	37.3
960.015	37.29
960.377	37.26
960.74	37.3
961.102	37.28
961.465	37.24
961.827	37.2
962.189	37.21
962.552	37.22
962.914	37.21
963.276	37.24
963.638	37.27
964	37.29
964.362	37.28
964.724	37.22
965.085	37.19
965.447	37.15
965.809	37.18
966.17	37.16
966.532	37.19
966.893	37.19
967.255	37.17
967.616	37.19
967.977	37.2
968.338	37.18
968.699	37.22
969.061	37.3
969.421	37.34
969.782	37.4
970.143	37.39
970.504	37.37
970.865	37.4
971.225	37.41
971.586	37.39
971.946	37.38
972.307	37.41
972.667	37.41
973.027	37.4
973.388	37.48
973.748	37.42
974.108	37.49
974.468	37.51
974.828	37.57
975.188	37.57
975.548	37.59
975.907	37.6
976.267	37.65
976.627	37.67
976.986	37.61
977.346	37.55
977.705	37.6
978.064	37.56
978.424	37.64
978.783	37.61
979.142	37.63
979.501	37.71
979.86	37.74
980.219	37.74
980.578	37.75
980.937	37.86
981.296	37.89
981.654	37.96
982.013	38
982.371	37.99
982.73	38.01
983.088	38.03
983.447	37.95
983.805	37.96
984.163	38
984.521	38.05
984.879	37.99
985.237	38.04
985.595	38.01
985.953	38.01
986.311	38
986.669	38.03
987.026	38.08
987.384	38.2
987.741	38.2
988.099	38.26
988.456	38.28
988.814	38.37
989.171	38.37
989.528	38.39
989.885	38.39
990.242	38.46
990.599	38.55
990.956	38.59
991.313	38.64
991.67	38.66
992.027	38.7
992.383	38.75
992.74	38.84
993.096	38.87
993.453	38.87
993.809	38.98
994.165	39.07
994.522	39.09
994.878	39.14
995.234	39.15
995.59	39.23
995.946	39.27
996.302	39.3
996.658	39.37
997.013	39.46
997.369	39.55
997.725	39.63
998.08	39.68
998.436	39.69
998.791	39.81
999.147	39.78
999.502	39.88
999.857	39.91
1000.212	39.89
1000.567	39.84
1000.922	39.85
1001.277	39.89
1001.632	39.89
1001.987	39.86
1002.342	39.83
1002.696	39.8
1003.051	39.93
1003.406	40
1003.76	40.1
1004.114	40.18
1004.469	40.31
1004.823	40.57
1005.177	40.67
1005.531	40.8
1005.885	40.89
1006.239	40.99
1006.593	41.11
1006.947	41.16
1007.301	41.12
1007.655	41
1008.008	41.11
1008.362	41.23
1008.715	41.18
1009.069	41.35
1009.422	41.33
1009.776	41.37
1010.129	41.56
1010.482	41.56
1010.835	41.69
1011.188	41.77
1011.541	42.03
1011.894	42.15
1012.247	42.14
1012.6	42.11
1012.952	41.97
1013.305	42.09
1013.657	42.37
1014.01	42.47
1014.362	42.63
1014.715	42.65
1015.067	42.78
1015.419	42.88
1015.771	42.9
1016.123	43.03
1016.475	43.28
1016.827	43.6
1017.179	43.71
1017.531	43.8
1017.883	43.86
1018.234	43.97
1018.586	43.95
1018.938	44.09
1019.289	44.17
1019.64	44.26
1019.992	44.37
1020.343	44.37
1020.694	44.24
1021.045	44.33
1021.396	44.19
1021.747	44.33
1022.098	44.35
1022.449	44.57
1022.8	44.76
1023.151	44.81
1023.501	44.88
1023.852	45
1024.202	44.92
1024.553	45
1024.903	45.23
1025.253	45.58
1025.604	45.62
1025.954	45.57
1026.304	45.79
1026.654	45.95
1027.004	46.28
1027.354	46.54
1027.703	46.63
1028.053	47.17
1028.403	47.49
1028.753	47.21
1029.102	47.17
1029.452	47.19
1029.801	47.41
1030.15	47.42
1030.499	47.24
897.758	927.61
901.051	934.52
904.343	935.37
907.636	952.62
910.928	927.77
914.22	924.81
917.511	914.41
920.803	876.46
924.094	873.89
927.384	852.66
930.675	823.12
933.965	819.32
937.255	771.48
940.544	739.98
943.834	706.03
947.123	701.33
950.411	661.43
953.7	649.02
956.988	614.34
960.276	587.57
963.563	580.44
966.851	556.82
970.138	553.22
973.424	537.19
976.711	541.43
979.997	513.53
983.283	510.32
986.568	501.68
989.853	486.91
993.138	477.9
996.423	462.13
999.708	449.22
1002.992	444.55
1006.275	425.62
1009.559	421.85
1012.842	405.23
1016.125	395.69
1019.408	387.03
1022.69	383.9
1025.972	375.51
1029.254	366.45
1032.536	359.55
1035.817	354.2
1039.098	349.85
1042.379	342.82
1045.659	338.97
1048.939	331
1052.219	324.87
1055.498	322.16
1058.778	312.76
1062.057	308.53
1065.335	306.07
1068.614	302.98
1071.892	297.9
1075.17	289.71
1078.447	285.17
1081.724	282.61
1085.001	280.46
1088.278	275.62
1091.554	269.69
1094.83	270.99
1098.106	267.41
1101.382	264.57
1104.657	262.56
1107.932	259.29
1111.206	261.12
1114.481	254.32
1117.755	252.96
1121.029	251
1124.302	249.66
1127.575	246.39
1130.848	243.01
1134.121	241.11
1137.393	240.25
1140.665	235.61
1143.937	233.1
1147.208	232.07
1150.48	231.22
1153.75	227.22
1157.021	225.39
1160.291	226.06
1163.561	222.32
1166.831	222.52
1170.101	220.56
1173.37	220.67
1176.639	220.91
1179.907	219.72
1183.176	216.97
1186.444	216.35
1189.711	216.99
1192.979	216.05
1196.246	214.19
1199.513	215.6
1202.78	213.67
1206.046	213.96
1209.312	211.15
1212.578	211.52
1215.843	212.48
1219.108	212.11
1222.373	216.43
1225.638	217.06
1228.902	219.73
1232.166	220.07
1235.43	220.53
1238.693	224.37
1241.956	225.56
1245.219	228.98
1248.482	229.4
1251.744	229.71
1255.006	229.58
1258.268	225.34
1261.529	223.96
1264.79	223.23
1268.051	221.52
1271.312	219.79
1274.572	216.58
1277.832	214.75
1281.092	211.17
1284.351	209.5
1287.61	209.55
1290.869	206.26
1294.128	204.46
1297.386	204.22
1300.644	201.5
1303.902	202.97
1307.159	202.75
1310.416	202.56
1313.673	201.05
1316.93	203.64
1320.186	203.14
1323.442	203.64
1326.697	206.66
1329.953	207.52
1333.208	208.3
1336.463	210.46
1339.717	210.78
1342.972	212.32
1346.226	214.28
1349.479	215.64
1352.733	216.2
1355.986	218.04
1359.238	217.2
1362.491	217.63
1365.743	219.84
1368.995	219.86
1372.247	219.59
1375.498	218.95
1378.749	219.76
1382	217.52
1385.251	218
1388.501	216.13
1391.751	215.3
1395	214.5
1398.25	213.32
1401.499	211
1404.748	210.37
1407.996	207.32
1411.244	206.53
1414.492	205.23
1417.74	202.18
1420.987	199.14
1424.234	199.1
1427.481	197.51
1430.728	197.47
1433.974	195.46
1437.22	193.97
1440.465	193.39
1443.711	191.87
1446.956	190.43
1450.201	188.04
1453.445	187.24
1456.689	186.42
1459.933	183.4
1463.177	181.2
1466.42	179
1469.663	176.88
1472.906	175.5
1476.148	171
1479.391	168.97
1482.633	167.83
1485.874	166.11
1489.115	164.6
1492.356	162.88
1495.597	162.3
1498.838	160.78
1502.078	159.37
1505.318	158.89
1508.557	158.82
1511.797	158.88
1515.036	157.74
1518.274	157.62
1521.513	156.73
1524.751	156.07
1527.989	155.91
1531.227	155.36
1534.464	155.47
1537.701	155.48
1540.938	154.7
1544.174	153.36
1547.41	153.57
1550.646	153.55
1553.882	152.7
1557.117	151.03
1560.352	150.86
1563.587	150.7
1566.821	149.5
1570.055	148.7
1573.289	147.24
1576.523	147.84
1579.756	146.41
1582.989	145.44
1586.222	145.67
1589.454	145.43
1592.686	146.07
1595.918	145.35
1599.15	144.78
1602.381	145.43
1605.612	144.74
1608.843	144.84
1612.073	144.62
1615.303	145.86
1618.533	145.8
1621.762	145.98
1624.992	146.32
1628.221	146.28
1631.449	145.89
1634.678	145.88
1637.906	146.56
1641.134	146.29
1644.361	146.22
1647.588	146.65
1650.815	146.07
1654.042	146.11
1657.269	146.04
1660.495	145.78
1663.72	145.72
1666.946	146.41
1670.171	146.87
1673.396	146.51
1676.621	146.45
1679.845	147.16
1683.069	147.07
1686.293	147.48
1689.517	147.91
1692.74	147.99
1695.963	148.63
1699.185	149.48
1702.408	149.76
1705.63	149.85
1708.852	150.08
1712.073	150.97
1715.294	150.72
1718.515	151.45
1721.736	151.39
1724.956	152.18
1728.176	152.02
1731.396	152.79
1734.616	152.11
1737.835	152.97
1741.054	151.85
1744.272	152.12
1747.491	153.41
1750.709	154
1753.927	153.61
1757.144	153.49
1760.361	153.28
1763.578	153.59
1766.795	153.04
1770.011	154.82
1773.227	153.92
1776.443	156.09
1779.658	156.61
1782.874	156.51
1786.089	155.7
1789.303	156.2
1792.518	158.36
1795.732	158.1
1798.945	159.35
1802.159	159.71
1805.372	159.21
1808.585	162.34
1811.797	162.32
1815.01	163.05
1818.222	163.8
1821.434	166.49
1824.645	166.93
1827.856	168.73
1831.067	169.77
1834.278	170.02
1837.488	171.2
1840.698	172.37
1843.908	170.76
1847.117	171.46
1850.326	172.27
1853.535	171.34
1856.744	173.15
1859.952	173.42
1863.16	171.96
1866.368	171.42
1869.575	172.54
1872.782	169.58
1875.989	169.28
1879.196	168.82
1882.402	167.41
1885.608	167.18
1888.814	167.07
1892.019	165.93
1895.224	164.58
1898.429	164.38
1901.634	164.79
1904.838	164.91
1908.042	166.35
1911.246	166.18
1914.449	166.47
1917.652	167.12
1920.855	166.57
1924.058	167.54
1927.26	166.87
1930.462	167.23
1933.664	168.31
1936.865	167.23
1940.066	165.98
1943.267	165.6
1946.467	165.98
1949.668	166.76
1952.868	168.66
1956.067	169.54
1959.267	168.73
1962.466	169.38
1965.665	169.23
1968.863	169.85
1972.061	172.78
1975.259	175.16
1978.457	175.64
1981.654	176.94
1984.852	177.56
1988.048	176.72
1991.245	178.54
1994.441	180.2
1997.637	182.07
2000.833	185.34
2004.028	187.92
2007.223	187.57
2010.418	188.51
2013.613	193.01
2016.807	194.56
2020.001	195.92
2023.194	199.73
2026.388	203.42
2029.581	209.49
2032.774	210.12
2035.966	213.79
2039.158	214.37
2042.35	218.36
2045.542	220.27
2048.733	223.95
2051.924	227.24
2055.115	230.83
2058.306	231.09
2061.496	233.02
2064.686	232.22
2067.875	237.09
2071.065	237.93
2074.254	235.9
2077.442	240.84
2080.631	241.33
2083.819	242.28
2087.007	242.83
2090.195	246.7
2093.382	248.7
2096.569	247.45
2099.756	251.19
2102.942	251.74
2106.128	253.33
2109.314	261.88
2112.5	259.81
2115.685	265.89
2118.87	267.04
2122.055	271.97
2125.239	272.73
2128.424	276.32
2131.608	277.78
2134.791	282.3
2137.974	282.76
2141.157	284.17
2144.34	282.95
2147.523	288.71
2150.705	286.89
2153.887	289.87
2157.068	290.29
2160.25	287.33
2163.431	289.32
2166.611	292.9
2169.792	297.56
2172.972	301.26
2176.152	304.43
2179.331	307.33
2182.511	309.7
2185.69	314.2
2188.868	320.29
2192.047	320.49
2195.225	331.08
2198.403	337.96
2201.58	343.78
2204.758	350.97
2207.935	355.87
2211.111	363.29
2214.288	367.68
2217.464	369.73
2220.64	375.07
2223.815	378.95
2226.991	395.46
2230.166	395.1
2233.34	400.36
2236.515	409.01
2239.689	408.12
2242.863	412.98
2246.036	420.69
2249.209	417.65
2252.382	425.85
2255.555	435.33
2258.727	438.48
2261.9	439.34
2265.071	444.98
2268.243	454.02
2271.414	458.57
2274.585	466.03
2277.756	469.83
2280.926	475.88
2284.096	488.18
2287.266	497.16
2290.436	503.09
2293.605	511.87
2296.774	529.14
2299.942	544.86
2303.111	546.92
2306.279	556.3
2309.447	568.4
2312.614	585.04
2315.781	598.6
2318.948	625.58
2322.115	616.96
2325.281	650.31
2328.447	639.79
2331.613	662.38
2334.779	654.84
2337.944	684.72
2341.109	692.85
2344.274	708.8
2347.438	733.04
2350.602	734.69
2353.766	755.43
2356.929	767.53
2360.092	762.95
2363.255	816.32
2366.418	816.76
2369.58	832.11
2372.742	883.28
2375.904	905.84
2379.066	899.21
2382.227	879.23
2385.388	951.9
2388.548	952.32
2391.709	963.45
2394.869	1074.15
2398.029	1026.26
2401.188	1060.49
2404.347	1055.23
2407.506	1033.15
2410.665	1067.77
2413.823	1129.6
2416.981	1194.99
2420.139	1161.97
2423.296	1147.47
2426.453	1201.15
2429.61	1156.85
2432.767	1213.24
2435.923	1194.1
2439.079	1309.39
2442.235	1334.33
2445.391	1316.58
2448.546	1306.44
2451.701	1272.1
2454.855	1264.59
2458.009	1351.15
2461.163	1399.16
2464.317	1442.65
2467.471	1480.74
2470.624	1481.81
2473.777	1439.51
2476.929	1391.67
2480.082	1345.82
2483.234	1337.45
2486.385	1410.3
2489.537	1417.12
2492.688	1462.61
2495.839	1428.13
2498.989	1392.87
2502.14	1395.36
2505.29	1411.24
2508.439	1428.31
2511.589	1431.13
2514.738	1571.12
2517.887	1534.8
2521.035	1607.46
2524.183	1631.82
2527.331	1638.62
2530.479	1624.32
2533.627	1643.64
