Data from N_3_DIV_OH_2N_Splice17_13-46-32-094.txt Node
Date: Sat Mar 07 13:46:32 EST 2020
User: sa697716
Spectrometer: NQ5500242
Trigger mode: 0
Integration Time (sec): 1.450000E-1
Scans to average: 20
Nonlinearity correction enabled: false
Boxcar width: 5
Storing dark spectrum: false
XAxis mode: Wavelengths
Number of Pixels in Spectrum: 512
>>>>>Begin Spectral Data<<<<<
187.83	258.64
188.298	275.67
188.766	266.3
189.233	217.63
189.701	230.45
190.169	284.57
190.636	342.7
191.104	486.95
191.571	354.07
192.039	-21.21
192.506	-346.58
192.974	87.54
193.441	196.59
193.908	139.91
194.375	105.74
194.842	69.37
195.31	140.62
195.777	498.12
196.244	58.5
196.711	33.61
197.177	31.4
197.644	29.44
198.111	29.15
198.578	29.23
199.045	29.18
199.511	29.17
199.978	28.96
200.445	29.44
200.911	29.3
201.378	29.07
201.844	29.15
202.31	28.97
202.777	29.17
203.243	28.99
203.709	28.46
204.176	28.17
204.642	28.03
205.108	28.28
205.574	27.77
206.04	27.12
206.506	26.82
206.972	26.5
207.438	26.21
207.903	25.55
208.369	25.05
208.835	24.87
209.301	24.55
209.766	23.56
210.232	22.68
210.697	22.18
211.163	21.69
211.628	21.18
212.094	20.49
212.559	20.12
213.024	19.54
213.49	19.26
213.955	18.63
214.42	18.13
214.885	17.75
215.35	17.1
215.815	16.44
216.28	15.21
216.745	13.8
217.21	12.58
217.675	11.26
218.14	10.28
218.604	9.32
219.069	8.59
219.534	8.02
219.998	7.46
220.463	7.03
220.927	6.51
221.392	6.2
221.856	5.96
222.32	5.73
222.785	5.57
223.249	5.42
223.713	5.29
224.177	5.15
224.642	5.01
225.106	4.88
225.57	4.75
226.034	4.7
226.497	4.62
226.961	4.54
227.425	4.48
227.889	4.41
228.353	4.33
228.816	4.24
229.28	4.17
229.744	4.09
230.207	4.05
230.671	3.98
231.134	3.9
231.597	3.86
232.061	3.81
232.524	3.75
232.987	3.69
233.45	3.66
233.914	3.62
234.377	3.57
234.84	3.53
235.303	3.49
235.766	3.46
236.229	3.42
236.691	3.36
237.154	3.33
237.617	3.3
238.08	3.27
238.542	3.23
239.005	3.21
239.468	3.17
239.93	3.14
240.393	3.11
240.855	3.09
241.317	3.06
241.78	3.03
242.242	2.99
242.704	2.97
243.166	2.93
243.629	2.92
244.091	2.89
244.553	2.87
245.015	2.84
245.477	2.81
245.939	2.79
246.4	2.76
246.862	2.74
247.324	2.72
247.786	2.7
248.247	2.68
248.709	2.64
249.17	2.61
249.632	2.61
250.093	2.61
250.555	2.59
251.016	2.58
251.477	2.56
251.939	2.55
252.4	2.53
252.861	2.5
253.322	2.49
253.783	2.48
254.244	2.47
254.705	2.44
255.166	2.41
255.627	2.4
256.088	2.38
256.549	2.37
257.009	2.35
257.47	2.33
257.931	2.31
258.391	2.29
258.852	2.27
259.312	2.25
259.773	2.23
260.233	2.22
260.694	2.2
261.154	2.19
261.614	2.17
262.074	2.15
262.534	2.14
262.994	2.13
263.455	2.12
263.915	2.12
264.374	2.11
264.834	2.1
265.294	2.09
265.754	2.08
266.214	2.07
266.673	2.06
267.133	2.06
267.593	2.05
268.052	2.04
268.512	2.04
268.971	2.04
269.431	2.04
269.89	2.03
270.349	2.03
270.809	2.02
271.268	2.02
271.727	2.01
272.186	2.01
272.645	2.01
273.104	2
273.563	1.99
274.022	1.98
274.481	1.98
274.94	1.99
275.399	1.98
275.857	1.97
276.316	1.96
276.775	1.96
277.233	1.96
277.692	1.95
278.15	1.96
278.609	1.96
279.067	1.96
279.525	1.96
279.984	1.95
280.442	1.94
280.9	1.95
281.358	1.95
281.816	1.95
282.274	1.95
282.732	1.95
283.19	1.94
283.648	1.93
284.106	1.93
284.564	1.92
285.021	1.92
285.479	1.91
285.937	1.9
286.394	1.89
286.852	1.88
287.309	1.88
287.767	1.87
288.224	1.86
288.682	1.85
289.139	1.84
289.596	1.83
290.053	1.82
290.511	1.81
290.968	1.8
291.425	1.79
291.882	1.79
292.339	1.78
292.796	1.77
293.252	1.77
293.709	1.77
294.166	1.76
294.623	1.76
295.079	1.75
295.536	1.75
295.992	1.75
296.449	1.75
296.905	1.75
297.362	1.75
297.818	1.74
298.274	1.74
298.731	1.74
299.187	1.73
299.643	1.73
300.099	1.73
300.555	1.72
301.011	1.71
301.467	1.71
301.923	1.7
302.379	1.7
302.835	1.7
303.291	1.7
303.746	1.69
304.202	1.7
304.658	1.7
305.113	1.69
305.569	1.7
306.024	1.7
306.479	1.69
306.935	1.68
307.39	1.67
307.845	1.67
308.301	1.67
308.756	1.67
309.211	1.67
309.666	1.67
310.121	1.68
310.576	1.67
311.031	1.68
311.486	1.68
311.94	1.69
312.395	1.69
312.85	1.69
313.305	1.68
313.759	1.69
314.214	1.68
314.668	1.67
315.123	1.67
315.577	1.67
316.032	1.67
316.486	1.67
316.94	1.67
317.394	1.66
317.849	1.66
318.303	1.66
318.757	1.65
319.211	1.65
319.665	1.64
320.119	1.63
320.572	1.62
321.026	1.62
321.48	1.62
321.934	1.6
322.387	1.59
322.841	1.59
323.295	1.6
323.748	1.59
324.202	1.59
324.655	1.59
325.108	1.6
325.562	1.6
326.015	1.6
326.468	1.6
326.921	1.6
327.374	1.6
327.827	1.61
328.28	1.61
328.733	1.62
329.186	1.61
329.639	1.61
330.092	1.61
330.545	1.6
330.997	1.6
331.45	1.61
331.903	1.61
332.355	1.62
332.808	1.61
333.26	1.61
333.713	1.6
334.165	1.6
334.617	1.61
335.069	1.59
335.522	1.6
335.974	1.61
336.426	1.6
336.878	1.59
337.33	1.59
337.782	1.59
338.234	1.6
338.686	1.6
339.137	1.61
339.589	1.6
340.041	1.61
340.493	1.61
340.944	1.59
341.396	1.59
341.847	1.59
342.299	1.59
342.75	1.59
343.201	1.58
343.653	1.57
344.104	1.56
344.555	1.55
345.006	1.53
345.457	1.53
345.908	1.53
346.359	1.53
346.81	1.53
347.261	1.52
347.712	1.52
348.163	1.52
348.613	1.52
349.064	1.52
349.515	1.53
349.965	1.53
350.416	1.52
350.866	1.53
351.317	1.52
351.767	1.52
352.217	1.52
352.668	1.52
353.118	1.52
353.568	1.52
354.018	1.53
354.468	1.53
354.918	1.54
355.368	1.54
355.818	1.54
356.268	1.54
356.718	1.54
357.168	1.54
357.617	1.53
358.067	1.52
358.517	1.53
358.966	1.54
359.416	1.54
359.865	1.54
360.315	1.54
360.764	1.55
361.213	1.55
361.663	1.54
362.112	1.56
362.561	1.57
363.01	1.57
363.459	1.56
363.908	1.55
364.357	1.55
364.806	1.56
365.255	1.56
365.703	1.57
366.152	1.58
366.601	1.59
367.05	1.58
367.498	1.58
367.947	1.59
368.395	1.6
368.844	1.62
369.292	1.61
369.74	1.62
370.189	1.63
370.637	1.63
371.085	1.63
371.533	1.64
371.981	1.66
372.429	1.67
372.877	1.68
373.325	1.69
373.773	1.7
374.221	1.71
374.669	1.71
375.116	1.72
375.564	1.74
376.012	1.76
376.459	1.77
376.907	1.78
377.354	1.8
377.801	1.82
378.249	1.85
378.696	1.87
379.143	1.88
379.591	1.91
380.038	1.93
380.485	1.95
380.932	1.98
381.379	2.01
381.826	2.04
382.273	2.06
382.72	2.07
383.166	2.1
383.613	2.13
384.06	2.15
384.506	2.18
384.953	2.21
385.4	2.24
385.846	2.27
386.292	2.29
386.739	2.31
387.185	2.34
387.631	2.37
388.078	2.41
388.524	2.44
388.97	2.48
389.416	2.51
389.862	2.55
390.308	2.59
390.754	2.62
391.2	2.66
391.645	2.7
392.091	2.75
392.537	2.78
392.983	2.81
393.428	2.84
393.874	2.87
394.319	2.91
394.765	2.94
395.21	2.96
395.655	3
396.101	3.02
396.546	3.05
396.991	3.06
397.436	3.08
397.881	3.12
398.326	3.14
398.771	3.18
399.216	3.19
399.661	3.21
400.106	3.23
400.551	3.24
400.995	3.26
401.44	3.27
401.885	3.28
402.329	3.3
402.774	3.31
403.218	3.34
403.663	3.35
404.107	3.37
404.551	3.37
404.995	3.38
405.44	3.37
405.884	3.37
406.328	3.38
406.772	3.38
407.216	3.38
407.66	3.38
408.104	3.36
408.547	3.36
408.991	3.36
409.435	3.36
409.879	3.37
410.322	3.38
410.766	3.41
411.209	3.42
411.653	3.44
412.096	3.46
412.54	3.47
412.983	3.48
413.426	3.51
413.869	3.52
414.312	3.54
414.756	3.54
415.199	3.54
415.642	3.54
416.085	3.54
416.527	3.54
416.97	3.52
417.413	3.51
417.856	3.51
418.298	3.5
418.741	3.49
419.184	3.46
419.626	3.46
420.069	3.47
420.511	3.47
420.953	3.47
421.396	3.47
421.838	3.48
422.28	3.49
422.722	3.51
423.164	3.5
423.606	3.5
424.048	3.5
424.49	3.51
424.932	3.5
425.374	3.47
425.816	3.45
426.258	3.43
426.699	3.42
427.141	3.41
427.582	3.41
428.024	3.41
428.465	3.4
428.907	3.39
429.348	3.37
429.789	3.38
430.231	3.42
430.672	3.44
431.113	3.46
431.554	3.46
431.995	3.47
432.436	3.47
432.877	3.48
433.318	3.51
433.759	3.54
434.2	3.57
434.64	3.57
435.081	3.57
435.522	3.58
435.962	3.59
436.403	3.63
436.843	3.63
437.284	3.62
437.724	3.62
438.164	3.61
438.604	3.6
439.045	3.62
439.485	3.63
439.925	3.63
440.365	3.65
440.805	3.67
441.245	3.68
441.685	3.72
442.125	3.77
442.564	3.78
443.004	3.81
443.444	3.83
443.883	3.85
444.323	3.86
444.762	3.89
445.202	3.9
445.641	3.94
446.081	3.96
446.52	3.99
446.959	4.02
447.398	4.07
447.837	4.11
448.276	4.14
448.716	4.17
449.154	4.21
449.593	4.24
450.032	4.26
450.471	4.26
450.91	4.28
451.349	4.31
451.787	4.31
452.226	4.3
452.664	4.31
453.103	4.31
453.541	4.31
453.98	4.33
454.418	4.32
454.856	4.34
455.295	4.34
455.733	4.33
456.171	4.31
456.609	4.32
457.047	4.31
457.485	4.32
457.923	4.33
458.361	4.32
458.798	4.31
459.236	4.33
459.674	4.31
460.111	4.31
460.549	4.33
460.987	4.33
461.424	4.32
461.862	4.32
462.299	4.31
462.736	4.32
463.173	4.32
463.611	4.32
464.048	4.33
464.485	4.34
464.922	4.34
465.359	4.33
465.796	4.36
466.233	4.37
466.67	4.39
467.106	4.4
467.543	4.38
467.98	4.38
468.416	4.36
468.853	4.35
469.29	4.34
469.726	4.34
470.162	4.34
470.599	4.31
471.035	4.29
471.471	4.27
471.907	4.26
472.344	4.27
472.78	4.29
473.216	4.29
473.652	4.3
474.088	4.29
474.523	4.3
474.959	4.31
475.395	4.3
475.831	4.32
476.266	4.33
476.702	4.33
477.138	4.34
477.573	4.34
478.008	4.35
478.444	4.36
478.879	4.38
479.314	4.38
479.75	4.38
480.185	4.37
480.62	4.37
481.055	4.37
481.49	4.38
481.925	4.38
482.36	4.38
482.795	4.39
483.229	4.4
483.664	4.41
484.099	4.42
484.534	4.42
484.968	4.45
485.403	4.46
485.837	4.47
486.271	4.5
486.706	4.52
487.14	4.53
487.574	4.56
488.009	4.59
488.443	4.61
488.877	4.65
489.311	4.69
489.745	4.73
490.179	4.78
490.613	4.84
491.046	4.88
491.48	4.93
491.914	4.99
492.348	5.04
492.781	5.1
493.215	5.15
493.648	5.21
494.082	5.28
494.515	5.35
494.948	5.41
495.382	5.47
495.815	5.55
496.248	5.63
496.681	5.71
497.114	5.79
497.547	5.87
497.98	5.97
498.413	6.06
498.846	6.16
499.279	6.25
499.711	6.35
500.144	6.46
500.577	6.57
501.009	6.68
501.442	6.8
501.874	6.93
502.306	7.04
502.739	7.18
503.171	7.31
503.603	7.45
504.036	7.6
504.468	7.73
504.9	7.88
505.332	8.02
505.764	8.18
506.196	8.34
506.627	8.5
507.059	8.68
507.491	8.83
507.923	9.01
508.354	9.2
508.786	9.39
509.217	9.59
509.649	9.79
510.08	9.99
510.512	10.18
510.943	10.38
511.374	10.58
511.805	10.79
512.237	11
512.668	11.2
513.099	11.4
513.53	11.6
513.961	11.81
514.391	12.02
514.822	12.24
515.253	12.44
515.684	12.65
516.114	12.86
516.545	13.08
516.975	13.28
517.406	13.5
517.836	13.71
518.267	13.92
518.697	14.13
519.127	14.32
519.558	14.52
519.988	14.72
520.418	14.91
520.848	15.09
521.278	15.26
521.708	15.71
522.138	15.89
522.567	16.05
522.997	16.21
523.427	16.36
523.857	16.52
524.286	16.67
524.716	16.82
525.145	16.97
525.575	17.12
526.004	17.25
526.433	17.12
526.863	17.24
527.292	17.37
527.721	17.5
528.15	17.6
528.579	17.7
529.008	17.8
529.437	17.89
529.866	17.96
530.295	18.05
530.724	18.15
531.152	18.23
531.581	18.3
532.01	18.36
532.438	18.43
532.867	18.49
533.295	18.56
533.723	18.62
534.152	18.67
534.58	18.74
535.008	18.77
535.436	18.81
535.865	18.84
536.293	18.88
536.721	18.91
537.149	18.95
537.576	18.99
538.004	19.01
538.432	19.04
538.86	19.07
539.287	19.08
539.715	19.12
540.143	19.15
540.57	19.17
540.998	19.19
541.425	19.22
541.852	19.24
542.28	19.24
542.707	19.25
543.134	19.27
543.561	19.29
543.988	19.31
544.415	19.3
544.842	19.3
545.269	19.32
545.696	19.34
546.123	19.35
546.549	19.35
546.976	19.38
547.403	19.4
547.829	19.41
548.256	19.41
548.682	19.44
549.108	19.48
549.535	19.49
549.961	19.49
550.387	19.48
550.813	19.5
551.24	19.51
551.666	19.48
552.092	19.48
552.518	19.49
552.943	19.48
553.369	19.46
553.795	19.43
554.221	19.42
554.646	19.4
555.072	19.39
555.498	19.36
555.923	19.34
556.349	19.32
556.774	19.27
557.199	19.22
557.625	19.18
558.05	19.13
558.475	19.08
558.9	19.04
559.325	19
559.75	18.94
560.175	18.88
560.6	18.81
561.025	18.75
561.449	18.7
561.874	18.64
562.299	18.57
562.723	18.5
563.148	18.42
563.572	18.32
563.997	18.23
564.421	18.14
564.846	18.05
565.27	17.97
565.694	17.88
566.118	17.8
566.542	17.7
566.966	17.6
567.39	17.52
567.814	17.42
568.238	17.33
568.662	17.24
569.086	17.15
569.509	17.07
569.933	16.99
570.357	16.91
570.78	16.82
571.204	16.73
571.627	16.65
572.05	16.56
572.474	16.51
572.897	16.43
573.32	16.34
573.743	16.25
574.166	16.18
574.589	16.08
575.012	15.99
575.435	15.91
575.858	15.83
576.281	15.75
576.704	15.68
577.126	15.59
577.549	15.52
577.972	15.45
578.394	15.38
578.817	15.33
579.239	15.28
579.661	15.23
580.084	15.18
580.506	15.13
580.928	15.08
581.35	15.01
581.772	14.95
582.194	14.9
582.616	14.85
583.038	14.79
583.46	14.72
583.882	14.66
584.303	14.59
584.725	14.54
585.147	14.51
585.568	14.47
585.99	14.43
586.411	14.4
586.833	14.36
587.254	14.3
587.675	14.26
588.096	14.22
588.518	14.18
588.939	14.15
589.36	14.12
589.781	14.05
590.202	14.03
590.623	14
591.043	13.95
591.464	13.93
591.885	13.9
592.305	13.88
592.726	13.88
593.147	13.86
593.567	13.82
593.987	13.79
594.408	13.77
594.828	13.73
595.248	13.7
595.669	13.68
596.089	13.65
596.509	13.64
596.929	13.61
597.349	13.58
597.769	13.56
598.189	13.53
598.608	13.51
599.028	13.49
599.448	13.47
599.867	13.44
600.287	13.4
600.706	13.38
601.126	13.35
601.545	13.33
601.965	13.3
602.384	13.27
602.803	13.24
603.222	13.2
603.641	13.16
604.061	13.13
604.48	13.08
604.898	13.04
605.317	12.99
605.736	12.94
606.155	12.9
606.574	12.84
606.992	12.78
607.411	12.74
607.829	12.66
608.248	12.59
608.666	12.53
609.085	12.48
609.503	12.44
609.921	12.38
610.339	12.32
610.758	12.26
611.176	12.21
611.594	12.15
612.012	12.09
612.43	12.06
612.847	12
613.265	11.94
613.683	11.89
614.101	11.84
614.518	11.77
614.936	11.72
615.353	11.67
615.771	11.61
616.188	11.56
616.606	11.51
617.023	11.46
617.44	11.42
617.857	11.38
618.274	11.33
618.691	11.29
619.108	11.24
619.525	11.2
619.942	11.18
620.359	11.15
620.776	11.12
621.192	11.09
621.609	11.07
622.026	11.03
622.442	11.01
622.859	10.98
623.275	10.95
623.691	10.95
624.108	10.93
624.524	10.91
624.94	10.9
625.356	10.88
625.772	10.86
626.188	10.84
626.604	10.83
627.02	10.83
627.436	10.84
627.852	10.83
628.268	10.82
628.683	10.8
629.099	10.79
629.514	10.77
629.93	10.75
630.345	10.73
630.761	10.7
631.176	10.68
631.591	10.65
632.007	10.62
632.422	10.58
632.837	10.54
633.252	10.5
633.667	10.45
634.082	10.4
634.497	10.35
634.911	10.31
635.326	10.25
635.741	10.19
636.155	10.11
636.57	10.05
636.984	9.98
637.399	9.9
637.813	9.83
638.228	9.73
638.642	9.63
639.056	9.53
639.47	9.44
639.884	9.35
640.298	9.25
640.712	9.14
641.126	9.04
641.54	8.93
641.954	8.82
642.368	8.72
642.781	8.64
643.195	8.56
643.609	8.47
644.022	8.37
644.436	8.28
644.849	8.18
645.262	8.1
645.676	8.01
646.089	7.94
646.502	7.87
646.915	7.8
647.328	7.73
647.741	7.66
648.154	7.6
648.567	7.56
648.98	7.52
649.393	7.48
649.805	7.45
650.218	7.42
650.631	7.38
651.043	7.33
651.456	7.3
651.868	7.25
652.28	7.21
652.693	7.16
653.105	7.11
653.517	7.06
653.929	7.02
654.341	6.97
654.753	6.91
655.165	6.87
655.577	6.82
655.989	6.76
656.401	6.69
656.813	6.65
657.224	6.56
657.636	6.47
658.047	6.4
658.459	6.32
658.87	6.23
659.282	6.13
659.693	6.05
660.104	5.95
660.515	5.85
660.926	5.77
661.338	5.67
661.749	5.6
662.159	5.53
662.57	5.45
662.981	5.37
663.392	5.29
663.803	5.23
664.213	5.15
664.624	5.08
665.035	5.04
665.445	4.97
665.855	4.92
666.266	4.87
666.676	4.82
667.086	4.77
667.497	4.72
667.907	4.68
668.317	4.64
668.727	4.61
669.137	4.58
669.547	4.54
669.956	4.52
670.366	4.5
670.776	4.47
671.186	4.46
671.595	4.45
672.005	4.44
672.414	4.45
672.824	4.44
673.233	4.43
673.642	4.44
674.052	4.45
674.461	4.45
674.87	4.47
675.279	4.5
675.688	4.51
676.097	4.54
676.506	4.57
676.915	4.6
677.323	4.64
677.732	4.68
678.141	4.72
678.549	4.77
678.958	4.82
679.366	4.87
679.775	4.92
680.183	5
680.592	5.08
681	5.17
681.408	5.26
681.816	5.37
682.224	5.49
682.632	5.64
683.04	5.77
683.448	5.93
683.856	6.1
684.264	6.3
684.671	6.48
685.079	6.69
685.487	6.93
685.894	7.19
686.302	7.45
686.709	7.72
687.116	8.01
687.524	8.33
687.931	8.66
688.338	9
688.745	9.34
689.152	9.71
689.559	10.11
689.966	10.49
690.373	10.89
690.78	11.3
691.187	11.71
691.593	12.1
692	12.5
692.407	12.92
692.813	13.34
693.22	13.77
693.626	14.17
694.032	14.57
694.439	14.97
694.845	15.38
695.251	15.77
695.657	16.16
696.063	16.56
696.469	16.94
696.875	17.33
697.281	17.69
697.687	18.06
698.093	18.42
698.498	18.76
698.904	19.1
699.31	19.43
699.715	19.76
700.12	20.09
700.526	20.4
700.931	20.73
701.337	21.01
701.742	21.3
702.147	21.57
702.552	21.86
702.957	22.12
703.362	22.38
703.767	22.62
704.172	22.87
704.577	23.13
704.981	23.36
705.386	23.6
705.791	23.84
706.195	24.07
706.6	24.29
707.004	24.51
707.408	24.71
707.813	24.95
708.217	25.16
708.621	25.39
709.025	25.58
709.43	25.77
709.834	25.95
710.237	26.14
710.641	26.32
711.045	26.49
711.449	26.66
711.853	26.87
712.256	27.01
712.66	27.19
713.064	27.34
713.467	27.49
713.87	27.65
714.274	27.78
714.677	27.94
715.08	28.07
715.484	28.24
715.887	28.4
716.29	28.49
716.693	28.63
717.096	28.76
717.499	28.89
717.901	29.02
718.304	29.14
718.707	29.28
719.109	29.39
719.512	29.49
719.915	29.61
720.317	29.67
720.719	29.78
721.122	29.88
721.524	29.98
721.926	30.07
722.328	30.16
722.731	30.25
723.133	30.33
723.535	30.42
723.937	30.5
724.338	30.56
724.74	30.67
725.142	30.96
725.544	31.04
725.945	31.17
726.347	31.2
726.748	31.26
727.15	31.31
727.551	31.4
727.952	31.44
728.354	31.5
728.755	31.55
729.156	31.58
729.557	31.42
729.958	31.45
730.359	31.44
730.76	31.49
731.161	31.51
731.562	31.56
731.962	31.55
732.363	31.6
732.763	31.65
733.164	31.68
733.564	31.72
733.965	31.74
734.365	31.78
734.766	31.81
735.166	31.84
735.566	31.91
735.966	31.96
736.366	32
736.766	32.02
737.166	32.04
737.566	32.09
737.966	32.12
738.365	32.15
738.765	32.18
739.165	32.19
739.564	32.21
739.964	32.21
740.363	32.2
740.763	32.22
741.162	32.25
741.561	32.25
741.96	32.24
742.36	32.25
742.759	32.26
743.158	32.24
743.557	32.24
743.955	32.25
744.354	32.26
744.753	32.28
745.152	32.29
745.55	32.27
745.949	32.3
746.348	32.32
746.746	32.32
747.144	32.33
747.543	32.34
747.941	32.36
748.339	32.36
748.737	32.36
749.136	32.35
749.534	32.32
749.932	32.34
750.33	32.34
750.727	32.34
751.125	32.35
751.523	32.34
751.921	32.37
752.318	32.37
752.716	32.4
753.113	32.42
753.511	32.43
753.908	32.48
754.305	32.52
754.703	32.51
755.1	32.52
755.497	32.53
755.894	32.55
756.291	32.54
756.688	32.54
757.085	32.55
757.482	32.55
757.878	32.56
758.275	32.54
758.672	32.47
759.068	32.48
759.465	32.47
759.861	32.44
760.258	32.43
760.654	32.43
761.05	32.44
761.447	32.42
761.843	32.39
762.239	32.38
762.635	32.37
763.031	32.4
763.427	32.41
763.822	32.42
764.218	32.42
764.614	32.41
765.01	32.38
765.405	32.37
765.801	32.34
766.196	32.36
766.592	32.35
766.987	32.35
767.382	32.32
767.778	32.29
768.173	32.29
768.568	32.29
768.963	32.31
769.358	32.34
769.753	32.36
770.148	32.37
770.542	32.36
770.937	32.35
771.332	32.36
771.726	32.38
772.121	32.4
772.515	32.4
772.91	32.41
773.304	32.4
773.699	32.38
774.093	32.37
774.487	32.36
774.881	32.38
775.275	32.39
775.669	32.36
776.063	32.35
776.457	32.35
776.851	32.33
777.245	32.31
777.638	32.31
778.032	32.29
778.425	32.32
778.819	32.34
779.212	32.35
779.606	32.36
779.999	32.35
780.392	32.39
780.786	32.36
781.179	32.39
781.572	32.42
781.965	32.43
782.358	32.44
782.751	32.43
783.143	32.43
783.536	32.41
783.929	32.38
784.322	32.4
784.714	32.38
785.107	32.42
785.499	32.41
785.891	32.41
786.284	32.39
786.676	32.4
787.068	32.4
787.46	32.39
787.852	32.4
788.245	32.39
788.636	32.38
789.028	32.38
789.42	32.36
789.812	32.35
790.204	32.37
790.595	32.39
790.987	32.36
791.378	32.37
791.77	32.36
792.161	32.34
792.553	32.36
792.944	32.36
793.335	32.37
793.726	32.38
794.117	32.38
794.508	32.34
794.899	32.31
795.29	32.31
795.681	32.29
796.072	32.3
796.463	32.37
796.853	32.36
797.244	32.36
797.634	32.36
798.025	32.36
798.415	32.37
798.806	32.39
799.196	32.41
799.586	32.43
799.976	32.44
800.366	32.46
800.756	32.38
801.146	32.38
801.536	32.39
801.926	32.38
802.316	32.38
802.706	32.39
803.095	32.39
803.485	32.36
803.874	32.32
804.264	32.32
804.653	32.31
805.043	32.34
805.432	32.35
805.821	32.37
806.21	32.37
806.599	32.37
806.988	32.37
807.377	32.36
807.766	32.38
808.155	32.42
808.544	32.42
808.933	32.42
809.321	32.39
809.71	32.37
810.098	32.35
810.487	32.34
810.875	32.34
811.264	32.35
811.652	32.39
812.04	32.38
812.428	32.38
812.816	32.37
813.204	32.38
813.592	32.37
813.98	32.37
814.368	32.39
814.756	32.41
815.144	32.38
815.531	32.36
815.919	32.34
816.306	32.34
816.694	32.32
817.081	32.34
817.469	32.33
817.856	32.34
818.243	32.37
818.63	32.35
819.017	32.34
819.404	32.33
819.791	32.34
820.178	32.33
820.565	32.33
820.952	32.35
821.339	32.34
821.725	32.35
822.112	32.37
822.498	32.37
822.885	32.37
823.271	32.36
823.657	32.35
824.044	32.35
824.43	32.37
824.816	32.37
825.202	32.36
825.588	32.36
825.974	32.36
826.36	32.34
826.746	32.3
827.132	32.29
827.517	32.31
827.903	32.33
828.289	32.34
828.674	32.3
829.06	32.29
829.445	32.28
829.83	32.28
830.216	32.26
830.601	32.26
830.986	32.29
831.371	32.27
831.756	32.26
832.141	32.25
832.526	32.24
832.911	32.24
833.295	32.24
833.68	32.24
834.065	32.22
834.449	32.22
834.834	32.19
835.218	32.19
835.603	32.19
835.987	32.18
836.371	32.16
836.755	32.16
837.139	32.14
837.524	32.14
837.908	32.16
838.291	32.18
838.675	32.19
839.059	32.21
839.443	32.2
839.827	32.21
840.21	32.18
840.594	32.21
840.977	32.19
841.361	32.21
841.744	32.17
842.127	32.14
842.511	32.13
842.894	32.12
843.277	32.1
843.66	32.08
844.043	32.08
844.426	32.1
844.809	32.09
845.191	32.09
845.574	32.09
845.957	32.12
846.339	32.14
846.722	32.13
847.104	32.14
847.487	32.14
847.869	32.16
848.252	32.15
848.634	32.14
849.016	32.15
849.398	32.16
849.78	32.15
850.162	32.14
850.544	32.13
850.926	32.14
851.307	32.14
851.689	32.15
852.071	32.15
852.452	32.17
852.834	32.19
853.215	32.19
853.597	32.21
853.978	32.22
854.359	32.22
854.741	32.21
855.122	32.19
855.503	32.18
855.884	32.18
856.265	32.17
856.646	32.16
857.026	32.15
857.407	32.14
857.788	32.13
858.169	32.13
858.549	32.15
858.93	32.15
859.31	32.16
859.69	32.17
860.071	32.17
860.451	32.18
860.831	32.19
861.211	32.18
861.591	32.16
861.971	32.14
862.351	32.14
862.731	32.13
863.111	32.13
863.491	32.12
863.87	32.11
864.25	32.12
864.629	32.11
865.009	32.09
865.388	32.1
865.768	32.11
866.147	32.11
866.526	32.1
866.905	32.09
867.284	32.09
867.663	32.08
868.042	32.08
868.421	32.08
868.8	32.07
869.179	32.08
869.558	32.07
869.936	32.07
870.315	32.06
870.693	32.08
871.072	32.09
871.45	32.09
871.828	32.09
872.207	32.11
872.585	32.09
872.963	32.09
873.341	32.08
873.719	32.08
874.097	32.06
874.475	32.07
874.853	32.04
875.23	32.03
875.608	32
875.986	31.97
876.363	31.96
876.741	31.97
877.118	31.99
877.495	31.99
877.873	31.99
878.25	32.01
878.627	32.01
879.004	32.01
879.381	32.01
879.758	32.02
880.135	32.04
880.512	32.02
880.889	32
881.265	31.98
881.642	31.95
882.019	31.94
882.395	31.93
882.772	31.93
883.148	31.91
883.524	31.92
883.901	31.92
884.277	31.89
884.653	31.87
885.029	31.87
885.405	31.89
885.781	31.9
886.157	31.89
886.532	31.89
886.908	31.89
887.284	31.91
887.659	31.89
888.035	31.86
888.411	31.87
888.786	31.88
889.161	31.88
889.537	31.88
889.912	31.88
890.287	31.89
890.662	31.89
891.037	31.88
891.412	31.88
891.787	31.86
892.162	31.89
892.536	31.88
892.911	31.88
893.286	31.88
893.66	31.87
894.035	31.87
894.409	31.85
894.784	31.87
895.158	31.87
895.532	31.88
895.906	31.91
896.281	31.9
896.655	31.91
897.029	31.92
897.402	31.91
897.776	31.91
898.15	31.92
898.524	31.96
898.898	31.96
899.271	31.97
899.645	31.98
900.018	31.96
900.392	31.96
900.765	31.97
901.138	31.95
901.511	31.97
901.884	31.97
902.258	31.97
902.631	31.93
903.003	31.92
903.376	31.91
903.749	31.9
904.122	31.9
904.495	31.89
904.867	31.89
905.24	31.9
905.612	31.91
905.985	31.9
906.357	31.9
906.729	31.9
907.102	31.89
907.474	31.89
907.846	31.86
908.218	31.85
908.59	31.86
908.962	31.87
909.334	31.85
909.705	31.84
910.077	31.86
910.449	31.85
910.82	31.84
911.192	31.84
911.563	31.84
911.935	31.87
912.306	31.89
912.677	31.9
913.048	31.92
913.419	31.94
913.79	31.93
914.161	31.93
914.532	31.93
914.903	31.93
915.274	31.94
915.645	31.94
916.015	31.92
916.386	31.91
916.756	31.9
917.127	31.88
917.497	31.89
917.868	31.9
918.238	31.88
918.608	31.91
918.978	31.93
919.348	31.93
919.718	31.93
920.088	31.95
920.458	31.97
920.828	31.98
921.198	31.98
921.567	31.97
921.937	31.97
922.306	31.97
922.676	31.96
923.045	31.96
923.415	31.96
923.784	31.98
924.153	32
924.522	32.02
924.891	32.01
925.26	32.03
925.629	32.08
925.998	32.07
926.367	32.09
926.736	32.1
927.104	32.09
927.473	32.08
927.842	32.04
928.21	32.04
928.578	32.04
928.947	32.06
929.315	32.06
929.683	32.06
930.051	32.09
930.42	32.1
930.788	32.07
931.156	32.06
931.523	32.07
931.891	32.13
932.259	32.13
932.627	32.14
932.994	32.17
933.362	32.16
933.729	32.15
934.097	32.15
934.464	32.16
934.831	32.18
935.199	32.24
935.566	32.27
935.933	32.21
936.3	32.22
936.667	32.19
937.034	32.26
937.401	32.28
937.767	32.3
938.134	32.29
938.501	32.27
938.867	32.33
939.234	32.28
939.6	32.26
939.967	32.3
940.333	32.26
940.699	32.3
941.065	32.11
941.431	32.1
941.798	32.04
942.163	32.03
942.529	32.02
942.895	31.93
943.261	31.89
943.627	31.9
943.992	31.92
944.358	31.95
944.723	31.9
945.089	31.85
945.454	31.84
945.82	31.8
946.185	31.8
946.55	31.73
946.915	31.73
947.28	31.71
947.645	31.68
948.01	31.67
948.375	31.6
948.74	31.55
949.104	31.62
949.469	31.55
949.834	31.53
950.198	31.55
950.562	31.59
950.927	31.6
951.291	31.54
951.655	31.51
952.02	31.47
952.384	31.42
952.748	31.47
953.112	31.44
953.476	31.47
953.839	31.46
954.203	31.42
954.567	31.4
954.931	31.34
955.294	31.39
955.658	31.46
956.021	31.47
956.385	31.5
956.748	31.47
957.111	31.44
957.474	31.41
957.837	31.37
958.2	31.36
958.563	31.34
958.926	31.33
959.289	31.37
959.652	31.31
960.015	31.27
960.377	31.26
960.74	31.28
961.102	31.29
961.465	31.34
961.827	31.47
962.189	31.52
962.552	31.52
962.914	31.58
963.276	31.57
963.638	31.54
964	31.53
964.362	31.54
964.724	31.53
965.085	31.51
965.447	31.45
965.809	31.34
966.17	31.31
966.532	31.33
966.893	31.3
967.255	31.29
967.616	31.33
967.977	31.38
968.338	31.41
968.699	31.42
969.061	31.41
969.421	31.44
969.782	31.47
970.143	31.49
970.504	31.52
970.865	31.55
971.225	31.59
971.586	31.57
971.946	31.52
972.307	31.53
972.667	31.49
973.027	31.56
973.388	31.55
973.748	31.56
974.108	31.56
974.468	31.48
974.828	31.52
975.188	31.49
975.548	31.5
975.907	31.51
976.267	31.47
976.627	31.52
976.986	31.48
977.346	31.46
977.705	31.42
978.064	31.45
978.424	31.52
978.783	31.43
979.142	31.41
979.501	31.47
979.86	31.56
980.219	31.57
980.578	31.54
980.937	31.5
981.296	31.45
981.654	31.48
982.013	31.38
982.371	31.42
982.73	31.43
983.088	31.48
983.447	31.45
983.805	31.4
984.163	31.39
984.521	31.39
984.879	31.46
985.237	31.53
985.595	31.6
985.953	31.62
986.311	31.57
986.669	31.59
987.026	31.53
987.384	31.56
987.741	31.53
988.099	31.62
988.456	31.63
988.814	31.69
989.171	31.76
989.528	31.74
989.885	31.79
990.242	31.86
990.599	31.83
990.956	31.86
991.313	31.83
991.67	31.87
992.027	31.98
992.383	32.09
992.74	32.17
993.096	32.12
993.453	32.12
993.809	32.08
994.165	32.04
994.522	32.16
994.878	32.2
995.234	32.21
995.59	32.22
995.946	32.09
996.302	31.97
996.658	31.92
997.013	31.9
997.369	31.96
997.725	32.1
998.08	32.18
998.436	32.05
998.791	32.01
999.147	31.99
999.502	32
999.857	31.9
1000.212	31.81
1000.567	31.68
1000.922	31.69
1001.277	31.62
1001.632	31.41
1001.987	31.39
1002.342	31.29
1002.696	31.26
1003.051	31.43
1003.406	31.48
1003.76	31.52
1004.114	31.68
1004.469	31.86
1004.823	32.09
1005.177	32.2
1005.531	32.34
1005.885	32.35
1006.239	32.68
1006.593	32.87
1006.947	32.82
1007.301	32.7
1007.655	32.59
1008.008	32.57
1008.362	32.56
1008.715	32.43
1009.069	32.42
1009.422	32.52
1009.776	32.37
1010.129	32.26
1010.482	32.23
1010.835	32.15
1011.188	32.25
1011.541	32.41
1011.894	32.43
1012.247	32.53
1012.6	32.4
1012.952	32.41
1013.305	32.42
1013.657	32.61
1014.01	32.54
1014.362	32.32
1014.715	32.47
1015.067	32.39
1015.419	32.26
1015.771	32.37
1016.123	32.26
1016.475	32.11
1016.827	32.12
1017.179	32.13
1017.531	31.96
1017.883	32.01
1018.234	32.48
1018.586	32.46
1018.938	32.87
1019.289	32.92
1019.64	32.82
1019.992	32.56
1020.343	32.72
1020.694	32.82
1021.045	32.63
1021.396	32.59
1021.747	32.77
1022.098	32.66
1022.449	32.71
1022.8	32.54
1023.151	32.55
1023.501	32.65
1023.852	32.85
1024.202	33.01
1024.553	32.69
1024.903	33.05
1025.253	33.44
1025.604	33.46
1025.954	33.33
1026.304	33.12
1026.654	33.2
1027.004	33.41
1027.354	33.28
1027.703	33.25
1028.053	33.17
1028.403	33.71
1028.753	33.25
1029.102	33.14
1029.452	33.08
1029.801	33.09
1030.15	33.13
1030.499	32.87
897.758	2098.76
901.051	2102.29
904.343	2091.72
907.636	2135.34
910.928	2080.04
914.22	2074.92
917.511	2042.67
920.803	1955.16
924.094	1946.11
927.384	1900.95
930.675	1811.92
933.965	1798.34
937.255	1695.11
940.544	1626.73
943.834	1539.88
947.123	1524.01
950.411	1435.1
953.7	1402.32
956.988	1326.67
960.276	1268.69
963.563	1248.7
966.851	1206.18
970.138	1196.93
973.424	1156.78
976.711	1164.7
979.997	1104.99
983.283	1100.64
986.568	1076.36
989.853	1038.4
993.138	1021.78
996.423	982.33
999.708	955.74
1002.992	946.86
1006.275	898.31
1009.559	888.5
1012.842	854.86
1016.125	831.36
1019.408	815.81
1022.69	803.93
1025.972	791.78
1029.254	769.81
1032.536	756.55
1035.817	738.35
1039.098	727.72
1042.379	711.71
1045.659	704
1048.939	687.27
1052.219	674.41
1055.498	659.77
1058.778	646.29
1062.057	627.87
1065.335	620.33
1068.614	612.9
1071.892	606.43
1075.17	583.82
1078.447	573.99
1081.724	570.16
1085.001	564.49
1088.278	550.75
1091.554	540.88
1094.83	539.37
1098.106	536.54
1101.382	530.69
1104.657	526.81
1107.932	517.32
1111.206	522.22
1114.481	507.36
1117.755	501.57
1121.029	497.85
1124.302	499.88
1127.575	488.5
1130.848	481.64
1134.121	476.22
1137.393	474.47
1140.665	463.53
1143.937	461.94
1147.208	455.14
1150.48	456.54
1153.75	450.84
1157.021	441.38
1160.291	441.06
1163.561	437.33
1166.831	436.61
1170.101	434.42
1173.37	431.59
1176.639	432.57
1179.907	427.32
1183.176	424.61
1186.444	423.47
1189.711	422.63
1192.979	422.46
1196.246	417.71
1199.513	419.96
1202.78	418.11
1206.046	417.59
1209.312	413.82
1212.578	414.7
1215.843	418.91
1219.108	415.25
1222.373	424.07
1225.638	427.54
1228.902	435.47
1232.166	435.03
1235.43	438.91
1238.693	444.81
1241.956	445.45
1245.219	454.63
1248.482	453.66
1251.744	453.24
1255.006	455.29
1258.268	443.67
1261.529	438.66
1264.79	433.65
1268.051	432.69
1271.312	426.33
1274.572	420.6
1277.832	416.94
1281.092	408.87
1284.351	405.89
1287.61	405.5
1290.869	398.67
1294.128	395.86
1297.386	395.41
1300.644	391.93
1303.902	392.32
1307.159	390.03
1310.416	391.29
1313.673	391.52
1316.93	395.76
1320.186	396.35
1323.442	397.7
1326.697	406.75
1329.953	407.57
1333.208	410.25
1336.463	414.8
1339.717	416.24
1342.972	420.95
1346.226	424.09
1349.479	424.36
1352.733	427.83
1355.986	429.59
1359.238	429.77
1362.491	432.88
1365.743	437.15
1368.995	437.64
1372.247	436.3
1375.498	437.57
1378.749	445.05
1382	438.12
1385.251	441.64
1388.501	438.07
1391.751	442.19
1395	439.72
1398.25	436.4
1401.499	436.11
1404.748	436.38
1407.996	432.51
1411.244	430.4
1414.492	428.31
1417.74	426.77
1420.987	419.19
1424.234	421.68
1427.481	413.76
1430.728	415.35
1433.974	410.4
1437.22	406.97
1440.465	405.06
1443.711	404.33
1446.956	402.7
1450.201	395
1453.445	391.39
1456.689	391.48
1459.933	382.79
1463.177	380.83
1466.42	373.51
1469.663	368.9
1472.906	366.93
1476.148	356.53
1479.391	350.7
1482.633	345.56
1485.874	341.92
1489.115	339.67
1492.356	333.35
1495.597	332.96
1498.838	327.36
1502.078	324.87
1505.318	323.34
1508.557	322.72
1511.797	322.95
1515.036	321.32
1518.274	319.57
1521.513	314.9
1524.751	314.46
1527.989	313.91
1531.227	311.78
1534.464	313.22
1537.701	310.3
1540.938	309.06
1544.174	303.86
1547.41	302.84
1550.646	301.39
1553.882	302.12
1557.117	297.83
1560.352	295.05
1563.587	294.09
1566.821	291.94
1570.055	287.15
1573.289	284.88
1576.523	284.51
1579.756	282.7
1582.989	280.6
1586.222	280.08
1589.454	277.22
1592.686	279.03
1595.918	278.53
1599.15	277.28
1602.381	276.68
1605.612	276.99
1608.843	278.83
1612.073	277.59
1615.303	279.12
1618.533	279.61
1621.762	278.39
1624.992	279.2
1628.221	279.26
1631.449	278.47
1634.678	277.31
1637.906	279.2
1641.134	279.21
1644.361	278.28
1647.588	279.51
1650.815	277.85
1654.042	276.07
1657.269	278.05
1660.495	278.39
1663.72	275.54
1666.946	277.09
1670.171	278.14
1673.396	277.93
1676.621	277.54
1679.845	277.13
1683.069	277.21
1686.293	279.14
1689.517	281.19
1692.74	280.53
1695.963	281.96
1699.185	286.73
1702.408	286.29
1705.63	287.31
1708.852	288.43
1712.073	289.25
1715.294	290.43
1718.515	291.22
1721.736	291.28
1724.956	291.83
1728.176	291.8
1731.396	294.85
1734.616	293.77
1737.835	295.14
1741.054	293.25
1744.272	293.9
1747.491	297.58
1750.709	297.92
1753.927	298.95
1757.144	297.65
1760.361	300.58
1763.578	300.46
1766.795	299.31
1770.011	301.33
1773.227	301.55
1776.443	305.74
1779.658	308.39
1782.874	306.34
1786.089	308.43
1789.303	309.5
1792.518	313.5
1795.732	312.41
1798.945	317.35
1802.159	317.35
1805.372	319.31
1808.585	325.12
1811.797	326.51
1815.01	325.55
1818.222	329.29
1821.434	330.61
1824.645	332.66
1827.856	339.29
1831.067	342.64
1834.278	339.24
1837.488	342.13
1840.698	345.46
1843.908	341.83
1847.117	343.87
1850.326	346.83
1853.535	346.14
1856.744	353.85
1859.952	352.93
1863.16	351.92
1866.368	349.78
1869.575	357.89
1872.782	351.98
1875.989	350.82
1879.196	350.49
1882.402	350.1
1885.608	352.41
1888.814	355.21
1892.019	353.81
1895.224	354.11
1898.429	351.99
1901.634	356.18
1904.838	355.74
1908.042	362.24
1911.246	363.58
1914.449	366.77
1917.652	367.06
1920.855	366.34
1924.058	365.06
1927.26	363.9
1930.462	366.62
1933.664	371.57
1936.865	367.53
1940.066	368.37
1943.267	364.82
1946.467	365.04
1949.668	367.58
1952.868	371.85
1956.067	371.51
1959.267	371.58
1962.466	372.87
1965.665	370.51
1968.863	370.57
1972.061	375.03
1975.259	378.88
1978.457	382.47
1981.654	384.18
1984.852	385.55
1988.048	383.53
1991.245	387.33
1994.441	393.6
1997.637	395.54
2000.833	402.81
2004.028	407.95
2007.223	411.2
2010.418	415.13
2013.613	421.09
2016.807	426.87
2020.001	428.63
2023.194	435.33
2026.388	443.66
2029.581	452.76
2032.774	457.59
2035.966	466.04
2039.158	468.12
2042.35	476.85
2045.542	478.17
2048.733	486.38
2051.924	491.94
2055.115	501.04
2058.306	501.4
2061.496	509.29
2064.686	507.85
2067.875	516.08
2071.065	517.6
2074.254	514.67
2077.442	519.08
2080.631	522.43
2083.819	527.29
2087.007	526.47
2090.195	531.78
2093.382	537.6
2096.569	532
2099.756	541.47
2102.942	542.23
2106.128	549.46
2109.314	562.17
2112.5	561.14
2115.685	572.8
2118.87	573.21
2122.055	586.74
2125.239	592.55
2128.424	599.68
2131.608	603.78
2134.791	611.66
2137.974	614.78
2141.157	615.94
2144.34	615.74
2147.523	626.03
2150.705	620.85
2153.887	625.74
2157.068	627.15
2160.25	620.77
2163.431	622.25
2166.611	629.56
2169.792	641.86
2172.972	650
2176.152	651.49
2179.331	662.52
2182.511	674.61
2185.69	684.15
2188.868	698.65
2192.047	700.18
2195.225	719.94
2198.403	737.85
2201.58	750.84
2204.758	764.66
2207.935	781.32
2211.111	796.34
2214.288	805.67
2217.464	808.51
2220.64	816.25
2223.815	829.73
2226.991	862.93
2230.166	866.59
2233.34	885.02
2236.515	899.96
2239.689	901.85
2242.863	905.87
2246.036	936.72
2249.209	924.9
2252.382	938.76
2255.555	971.5
2258.727	972.61
2261.9	978.89
2265.071	988.05
2268.243	1001.74
2271.414	1012.95
2274.585	1039.14
2277.756	1048.71
2280.926	1052.84
2284.096	1077.91
2287.266	1104.11
2290.436	1112.11
2293.605	1141.01
2296.774	1179.58
2299.942	1215.45
2303.111	1225.03
2306.279	1256.16
2309.447	1269.8
2312.614	1302.41
2315.781	1341.22
2318.948	1405.46
2322.115	1381.02
2325.281	1456.09
2328.447	1423.46
2331.613	1481.75
2334.779	1465.06
2337.944	1524.47
2341.109	1543
2344.274	1582.38
2347.438	1646.04
2350.602	1644.98
2353.766	1693.97
2356.929	1720.61
2360.092	1705.69
2363.255	1838.02
2366.418	1826.95
2369.58	1868.91
2372.742	1981.96
2375.904	2028.44
2379.066	2016.25
2382.227	1970.39
2385.388	2136.12
2388.548	2142.25
2391.709	2173.63
2394.869	2428.93
2398.029	2305.18
2401.188	2377.24
2404.347	2359.61
2407.506	2329.91
2410.665	2400.82
2413.823	2544.45
2416.981	2695.03
2420.139	2602.31
2423.296	2568.86
2426.453	2680.03
2429.61	2573.73
2432.767	2708.75
2435.923	2684.8
2439.079	2915.07
2442.235	2953.49
2445.391	2919.18
2448.546	2908.23
2451.701	2826.64
2454.855	2831.95
2458.009	3002.81
2461.163	3119.47
2464.317	3234.08
2467.471	3317.27
2470.624	3316.98
2473.777	3243.85
2476.929	3168.34
2480.082	3085.29
2483.234	3039.55
2486.385	3182.92
2489.537	3195.41
2492.688	3326.76
2495.839	3219.61
2498.989	3162.02
2502.14	3182.03
2505.29	3219.27
2508.439	3275.24
2511.589	3260.2
2514.738	3541.07
2517.887	3473.13
2521.035	3676.55
2524.183	3699.42
2527.331	3734.53
2530.479	3743.08
2533.627	3760.3
