Data from N_3_DEC_CT_2N_Splice17_13-56-31-659.txt Node
Date: Sat Mar 07 13:56:31 EST 2020
User: sa697716
Spectrometer: NQ5500242
Trigger mode: 0
Integration Time (sec): 1.450000E-1
Scans to average: 20
Nonlinearity correction enabled: false
Boxcar width: 5
Storing dark spectrum: false
XAxis mode: Wavelengths
Number of Pixels in Spectrum: 512
>>>>>Begin Spectral Data<<<<<
187.83	148.92
188.298	170.89
188.766	166.18
189.233	137.18
189.701	129.73
190.169	143.56
190.636	146.7
191.104	123.15
191.571	-173.18
192.039	-224.25
192.506	-367.95
192.974	136.45
193.441	231.34
193.908	97.29
194.375	70.38
194.842	-3.4
195.31	-6.91
195.777	-26.16
196.244	47.66
196.711	52.74
197.177	56.58
197.644	57.17
198.111	56.38
198.578	56.84
199.045	57.47
199.511	57.55
199.978	57.68
200.445	58.17
200.911	58.38
201.378	58.5
201.844	58.84
202.31	58.45
202.777	58.47
203.243	58.44
203.709	58.22
204.176	57.84
204.642	57.46
205.108	57.34
205.574	56.75
206.04	56.07
206.506	55.48
206.972	55.38
207.438	54.9
207.903	54.06
208.369	53.3
208.835	52.42
209.301	51.5
209.766	50.28
210.232	49.1
210.697	48
211.163	46.82
211.628	46.02
212.094	44.88
212.559	44.2
213.024	43.17
213.49	42.45
213.955	41.73
214.42	41.19
214.885	40.44
215.35	39.44
215.815	38.04
216.28	36.19
216.745	33.9
217.21	31.64
217.675	29.52
218.14	27.82
218.604	26.25
219.069	24.88
219.534	23.69
219.998	22.72
220.463	21.93
220.927	21.19
221.392	20.65
221.856	20.16
222.32	19.76
222.785	19.4
223.249	19.03
223.713	18.71
224.177	18.43
224.642	18.12
225.106	17.81
225.57	17.51
226.034	17.26
226.497	16.99
226.961	16.76
227.425	16.5
227.889	16.27
228.353	16.03
228.816	15.77
229.28	15.53
229.744	15.33
230.207	15.12
230.671	14.92
231.134	14.71
231.597	14.53
232.061	14.34
232.524	14.16
232.987	13.97
233.45	13.82
233.914	13.68
234.377	13.52
234.84	13.38
235.303	13.26
235.766	13.11
236.229	12.98
236.691	12.83
237.154	12.68
237.617	12.56
238.08	12.43
238.542	12.29
239.005	12.18
239.468	12.06
239.93	11.94
240.393	11.81
240.855	11.69
241.317	11.56
241.78	11.45
242.242	11.33
242.704	11.23
243.166	11.11
243.629	11.02
244.091	10.89
244.553	10.77
245.015	10.65
245.477	10.54
245.939	10.43
246.4	10.34
246.862	10.24
247.324	10.16
247.786	10.06
248.247	9.97
248.709	9.86
249.17	9.76
249.632	9.69
250.093	9.61
250.555	9.52
251.016	9.44
251.477	9.35
251.939	9.28
252.4	9.2
252.861	9.12
253.322	9.05
253.783	8.99
254.244	8.93
254.705	8.86
255.166	8.8
255.627	8.74
256.088	8.69
256.549	8.63
257.009	8.57
257.47	8.51
257.931	8.45
258.391	8.37
258.852	8.3
259.312	8.25
259.773	8.19
260.233	8.14
260.694	8.08
261.154	8.02
261.614	7.96
262.074	7.91
262.534	7.85
262.994	7.81
263.455	7.77
263.915	7.73
264.374	7.69
264.834	7.65
265.294	7.6
265.754	7.57
266.214	7.54
266.673	7.51
267.133	7.49
267.593	7.46
268.052	7.43
268.512	7.41
268.971	7.38
269.431	7.35
269.89	7.33
270.349	7.31
270.809	7.28
271.268	7.26
271.727	7.24
272.186	7.21
272.645	7.19
273.104	7.16
273.563	7.14
274.022	7.12
274.481	7.11
274.94	7.09
275.399	7.07
275.857	7.04
276.316	7.02
276.775	7
277.233	6.99
277.692	6.97
278.15	6.95
278.609	6.93
279.067	6.92
279.525	6.89
279.984	6.87
280.442	6.85
280.9	6.84
281.358	6.82
281.816	6.8
282.274	6.79
282.732	6.76
283.19	6.75
283.648	6.73
284.106	6.71
284.564	6.7
285.021	6.69
285.479	6.67
285.937	6.65
286.394	6.63
286.852	6.62
287.309	6.6
287.767	6.57
288.224	6.54
288.682	6.52
289.139	6.49
289.596	6.45
290.053	6.41
290.511	6.38
290.968	6.35
291.425	6.31
291.882	6.29
292.339	6.26
292.796	6.24
293.252	6.21
293.709	6.19
294.166	6.17
294.623	6.15
295.079	6.14
295.536	6.12
295.992	6.11
296.449	6.1
296.905	6.08
297.362	6.06
297.818	6.05
298.274	6.05
298.731	6.03
299.187	6.01
299.643	5.99
300.099	5.98
300.555	5.96
301.011	5.94
301.467	5.93
301.923	5.9
302.379	5.88
302.835	5.87
303.291	5.85
303.746	5.84
304.202	5.83
304.658	5.82
305.113	5.8
305.569	5.8
306.024	5.79
306.479	5.78
306.935	5.78
307.39	5.78
307.845	5.78
308.301	5.78
308.756	5.77
309.211	5.76
309.666	5.76
310.121	5.76
310.576	5.75
311.031	5.74
311.486	5.74
311.94	5.74
312.395	5.73
312.85	5.72
313.305	5.72
313.759	5.72
314.214	5.71
314.668	5.7
315.123	5.71
315.577	5.7
316.032	5.68
316.486	5.67
316.94	5.65
317.394	5.62
317.849	5.6
318.303	5.58
318.757	5.56
319.211	5.54
319.665	5.52
320.119	5.49
320.572	5.48
321.026	5.46
321.48	5.45
321.934	5.43
322.387	5.42
322.841	5.41
323.295	5.41
323.748	5.39
324.202	5.38
324.655	5.37
325.108	5.36
325.562	5.34
326.015	5.34
326.468	5.32
326.921	5.32
327.374	5.32
327.827	5.31
328.28	5.29
328.733	5.3
329.186	5.29
329.639	5.29
330.092	5.28
330.545	5.27
330.997	5.26
331.45	5.26
331.903	5.26
332.355	5.27
332.808	5.26
333.26	5.26
333.713	5.25
334.165	5.25
334.617	5.26
335.069	5.25
335.522	5.26
335.974	5.27
336.426	5.26
336.878	5.25
337.33	5.24
337.782	5.24
338.234	5.24
338.686	5.24
339.137	5.24
339.589	5.21
340.041	5.21
340.493	5.19
340.944	5.17
341.396	5.17
341.847	5.15
342.299	5.14
342.75	5.12
343.201	5.09
343.653	5.06
344.104	5.04
344.555	5.03
345.006	5.01
345.457	4.99
345.908	4.99
346.359	4.97
346.81	4.96
347.261	4.95
347.712	4.95
348.163	4.94
348.613	4.94
349.064	4.94
349.515	4.93
349.965	4.93
350.416	4.92
350.866	4.91
351.317	4.9
351.767	4.9
352.217	4.9
352.668	4.9
353.118	4.9
353.568	4.89
354.018	4.9
354.468	4.9
354.918	4.89
355.368	4.89
355.818	4.89
356.268	4.89
356.718	4.9
357.168	4.89
357.617	4.89
358.067	4.89
358.517	4.89
358.966	4.89
359.416	4.89
359.865	4.89
360.315	4.89
360.764	4.89
361.213	4.89
361.663	4.87
362.112	4.88
362.561	4.88
363.01	4.87
363.459	4.85
363.908	4.84
364.357	4.85
364.806	4.85
365.255	4.84
365.703	4.85
366.152	4.86
366.601	4.86
367.05	4.85
367.498	4.84
367.947	4.85
368.395	4.86
368.844	4.85
369.292	4.84
369.74	4.84
370.189	4.84
370.637	4.82
371.085	4.81
371.533	4.81
371.981	4.8
372.429	4.81
372.877	4.81
373.325	4.8
373.773	4.8
374.221	4.8
374.669	4.79
375.116	4.79
375.564	4.79
376.012	4.79
376.459	4.79
376.907	4.8
377.354	4.79
377.801	4.79
378.249	4.8
378.696	4.8
379.143	4.8
379.591	4.8
380.038	4.8
380.485	4.8
380.932	4.81
381.379	4.81
381.826	4.79
382.273	4.8
382.72	4.79
383.166	4.79
383.613	4.79
384.06	4.78
384.506	4.78
384.953	4.78
385.4	4.77
385.846	4.78
386.292	4.78
386.739	4.79
387.185	4.79
387.631	4.8
388.078	4.8
388.524	4.82
388.97	4.82
389.416	4.85
389.862	4.87
390.308	4.89
390.754	4.9
391.2	4.92
391.645	4.93
392.091	4.96
392.537	4.98
392.983	5
393.428	5.02
393.874	5.03
394.319	5.03
394.765	5.04
395.21	5.05
395.655	5.06
396.101	5.08
396.546	5.1
396.991	5.11
397.436	5.12
397.881	5.14
398.326	5.15
398.771	5.18
399.216	5.19
399.661	5.22
400.106	5.22
400.551	5.23
400.995	5.23
401.44	5.23
401.885	5.23
402.329	5.24
402.774	5.25
403.218	5.27
403.663	5.29
404.107	5.3
404.551	5.31
404.995	5.31
405.44	5.31
405.884	5.32
406.328	5.34
406.772	5.35
407.216	5.35
407.66	5.36
408.104	5.34
408.547	5.34
408.991	5.35
409.435	5.36
409.879	5.38
410.322	5.41
410.766	5.44
411.209	5.45
411.653	5.47
412.096	5.49
412.54	5.51
412.983	5.52
413.426	5.56
413.869	5.58
414.312	5.61
414.756	5.63
415.199	5.63
415.642	5.63
416.085	5.65
416.527	5.65
416.97	5.62
417.413	5.62
417.856	5.62
418.298	5.61
418.741	5.59
419.184	5.58
419.626	5.58
420.069	5.58
420.511	5.58
420.953	5.57
421.396	5.59
421.838	5.61
422.28	5.63
422.722	5.65
423.164	5.66
423.606	5.67
424.048	5.67
424.49	5.67
424.932	5.68
425.374	5.66
425.816	5.64
426.258	5.62
426.699	5.61
427.141	5.61
427.582	5.61
428.024	5.62
428.465	5.63
428.907	5.62
429.348	5.62
429.789	5.62
430.231	5.67
430.672	5.7
431.113	5.74
431.554	5.77
431.995	5.78
432.436	5.79
432.877	5.82
433.318	5.85
433.759	5.89
434.2	5.92
434.64	5.95
435.081	5.97
435.522	5.98
435.962	6.01
436.403	6.03
436.843	6.04
437.284	6.04
437.724	6.03
438.164	6.02
438.604	6.02
439.045	6.03
439.485	6.02
439.925	6.02
440.365	6.02
440.805	6.01
441.245	6.03
441.685	6.05
442.125	6.09
442.564	6.08
443.004	6.1
443.444	6.12
443.883	6.12
444.323	6.12
444.762	6.15
445.202	6.16
445.641	6.18
446.081	6.2
446.52	6.2
446.959	6.21
447.398	6.24
447.837	6.26
448.276	6.27
448.716	6.29
449.154	6.35
449.593	6.34
450.032	6.35
450.471	6.34
450.91	6.33
451.349	6.35
451.787	6.34
452.226	6.33
452.664	6.32
453.103	6.3
453.541	6.3
453.98	6.28
454.418	6.26
454.856	6.25
455.295	6.23
455.733	6.21
456.171	6.21
456.609	6.2
457.047	6.19
457.485	6.17
457.923	6.17
458.361	6.16
458.798	6.14
459.236	6.14
459.674	6.13
460.111	6.13
460.549	6.14
460.987	6.13
461.424	6.13
461.862	6.11
462.299	6.12
462.736	6.12
463.173	6.13
463.611	6.14
464.048	6.15
464.485	6.16
464.922	6.15
465.359	6.16
465.796	6.17
466.233	6.18
466.67	6.2
467.106	6.21
467.543	6.21
467.98	6.2
468.416	6.18
468.853	6.18
469.29	6.19
469.726	6.19
470.162	6.18
470.599	6.16
471.035	6.15
471.471	6.13
471.907	6.13
472.344	6.13
472.78	6.13
473.216	6.12
473.652	6.12
474.088	6.09
474.523	6.09
474.959	6.09
475.395	6.07
475.831	6.06
476.266	6.06
476.702	6.04
477.138	6.03
477.573	6.02
478.008	6.01
478.444	5.99
478.879	6
479.314	5.98
479.75	5.98
480.185	5.97
480.62	5.96
481.055	5.94
481.49	5.94
481.925	5.93
482.36	5.93
482.795	5.92
483.229	5.91
483.664	5.9
484.099	5.89
484.534	5.88
484.968	5.89
485.403	5.89
485.837	5.9
486.271	5.91
486.706	5.91
487.14	5.91
487.574	5.92
488.009	5.94
488.443	5.95
488.877	5.97
489.311	5.99
489.745	6.01
490.179	6.04
490.613	6.06
491.046	6.08
491.48	6.12
491.914	6.15
492.348	6.19
492.781	6.23
493.215	6.27
493.648	6.31
494.082	6.35
494.515	6.4
494.948	6.45
495.382	6.49
495.815	6.55
496.248	6.6
496.681	6.66
497.114	6.72
497.547	6.79
497.98	6.86
498.413	6.93
498.846	7.01
499.279	7.09
499.711	7.17
500.144	7.27
500.577	7.37
501.009	7.48
501.442	7.59
501.874	7.71
502.306	7.84
502.739	7.98
503.171	8.12
503.603	8.26
504.036	8.41
504.468	8.57
504.9	8.72
505.332	8.89
505.764	9.08
506.196	9.26
506.627	9.45
507.059	9.66
507.491	9.86
507.923	10.08
508.354	10.33
508.786	10.59
509.217	10.83
509.649	11.09
510.08	11.37
510.512	11.64
510.943	11.92
511.374	12.22
511.805	12.52
512.237	12.81
512.668	13.14
513.099	13.45
513.53	13.76
513.961	14.11
514.391	14.46
514.822	14.81
515.253	15.17
515.684	15.52
516.114	15.88
516.545	16.26
516.975	16.64
517.406	17.01
517.836	17.39
518.267	17.77
518.697	18.16
519.127	18.52
519.558	18.9
519.988	19.28
520.418	19.66
520.848	20.03
521.278	20.39
521.708	20.94
522.138	21.3
522.567	21.66
522.997	22.01
523.427	22.35
523.857	22.71
524.286	23.03
524.716	23.36
525.145	23.68
525.575	23.99
526.004	24.3
526.433	24.4
526.863	24.67
527.292	24.94
527.721	25.19
528.15	25.43
528.579	25.66
529.008	25.89
529.437	26.09
529.866	26.27
530.295	26.48
530.724	26.66
531.152	26.84
531.581	27.01
532.01	27.18
532.438	27.34
532.867	27.49
533.295	27.63
533.723	27.75
534.152	27.88
534.58	28.01
535.008	28.09
535.436	28.2
535.865	28.28
536.293	28.36
536.721	28.44
537.149	28.51
537.576	28.59
538.004	28.66
538.432	28.72
538.86	28.77
539.287	28.81
539.715	28.88
540.143	28.91
540.57	28.97
540.998	29.02
541.425	29.05
541.852	29.11
542.28	29.15
542.707	29.19
543.134	29.23
543.561	29.27
543.988	29.32
544.415	29.35
544.842	29.39
545.269	29.43
545.696	29.47
546.123	29.5
546.549	29.53
546.976	29.57
547.403	29.6
547.829	29.63
548.256	29.67
548.682	29.7
549.108	29.74
549.535	29.76
549.961	29.77
550.387	29.77
550.813	29.8
551.24	29.79
551.666	29.79
552.092	29.8
552.518	29.79
552.943	29.77
553.369	29.76
553.795	29.72
554.221	29.69
554.646	29.64
555.072	29.6
555.498	29.51
555.923	29.45
556.349	29.34
556.774	29.26
557.199	29.17
557.625	29.07
558.05	28.96
558.475	28.85
558.9	28.74
559.325	28.64
559.75	28.51
560.175	28.38
560.6	28.23
561.025	28.1
561.449	27.94
561.874	27.78
562.299	27.62
562.723	27.44
563.148	27.25
563.572	27.04
563.997	26.83
564.421	26.62
564.846	26.43
565.27	26.22
565.694	26.01
566.118	25.78
566.542	25.58
566.966	25.35
567.39	25.13
567.814	24.91
568.238	24.68
568.662	24.46
569.086	24.25
569.509	24.02
569.933	23.81
570.357	23.59
570.78	23.38
571.204	23.16
571.627	22.96
572.05	22.76
572.474	22.58
572.897	22.39
573.32	22.21
573.743	22.03
574.166	21.85
574.589	21.67
575.012	21.51
575.435	21.34
575.858	21.19
576.281	21.05
576.704	20.89
577.126	20.73
577.549	20.6
577.972	20.45
578.394	20.3
578.817	20.18
579.239	20.06
579.661	19.93
580.084	19.82
580.506	19.7
580.928	19.58
581.35	19.47
581.772	19.37
582.194	19.26
582.616	19.18
583.038	19.09
583.46	18.98
583.882	18.89
584.303	18.8
584.725	18.69
585.147	18.61
585.568	18.52
585.99	18.43
586.411	18.36
586.833	18.27
587.254	18.18
587.675	18.11
588.096	18.05
588.518	17.97
588.939	17.91
589.36	17.84
589.781	17.78
590.202	17.73
590.623	17.67
591.043	17.6
591.464	17.56
591.885	17.5
592.305	17.44
592.726	17.4
593.147	17.35
593.567	17.3
593.987	17.27
594.408	17.21
594.828	17.16
595.248	17.12
595.669	17.07
596.089	17.01
596.509	16.96
596.929	16.9
597.349	16.85
597.769	16.81
598.189	16.75
598.608	16.71
599.028	16.66
599.448	16.6
599.867	16.54
600.287	16.51
600.706	16.46
601.126	16.4
601.545	16.36
601.965	16.31
602.384	16.24
602.803	16.18
603.222	16.11
603.641	16.04
604.061	15.99
604.48	15.9
604.898	15.8
605.317	15.73
605.736	15.65
606.155	15.56
606.574	15.47
606.992	15.38
607.411	15.28
607.829	15.16
608.248	15.06
608.666	14.95
609.085	14.85
609.503	14.76
609.921	14.66
610.339	14.56
610.758	14.46
611.176	14.36
611.594	14.26
612.012	14.17
612.43	14.09
612.847	14
613.265	13.9
613.683	13.82
614.101	13.74
614.518	13.65
614.936	13.56
615.353	13.47
615.771	13.39
616.188	13.31
616.606	13.24
617.023	13.17
617.44	13.12
617.857	13.06
618.274	12.99
618.691	12.93
619.108	12.87
619.525	12.82
619.942	12.76
620.359	12.72
620.776	12.69
621.192	12.63
621.609	12.6
622.026	12.55
622.442	12.52
622.859	12.5
623.275	12.47
623.691	12.44
624.108	12.43
624.524	12.41
624.94	12.39
625.356	12.37
625.772	12.36
626.188	12.34
626.604	12.32
627.02	12.3
627.436	12.28
627.852	12.26
628.268	12.25
628.683	12.23
629.099	12.21
629.514	12.19
629.93	12.18
630.345	12.14
630.761	12.11
631.176	12.07
631.591	12.04
632.007	11.99
632.422	11.95
632.837	11.89
633.252	11.81
633.667	11.74
634.082	11.65
634.497	11.56
634.911	11.48
635.326	11.38
635.741	11.29
636.155	11.19
636.57	11.09
636.984	10.97
637.399	10.86
637.813	10.74
638.228	10.62
638.642	10.49
639.056	10.36
639.47	10.26
639.884	10.13
640.298	10
640.712	9.87
641.126	9.74
641.54	9.61
641.954	9.48
642.368	9.35
642.781	9.23
643.195	9.13
643.609	9.02
644.022	8.89
644.436	8.8
644.849	8.69
645.262	8.59
645.676	8.49
646.089	8.42
646.502	8.35
646.915	8.29
647.328	8.23
647.741	8.17
648.154	8.11
648.567	8.07
648.98	8.01
649.393	7.98
649.805	7.95
650.218	7.91
650.631	7.88
651.043	7.83
651.456	7.8
651.868	7.76
652.28	7.71
652.693	7.68
653.105	7.64
653.517	7.59
653.929	7.55
654.341	7.49
654.753	7.44
655.165	7.39
655.577	7.34
655.989	7.28
656.401	7.22
656.813	7.17
657.224	7.1
657.636	7.03
658.047	6.97
658.459	6.91
658.87	6.85
659.282	6.78
659.693	6.72
660.104	6.64
660.515	6.59
660.926	6.53
661.338	6.47
661.749	6.41
662.159	6.36
662.57	6.32
662.981	6.27
663.392	6.23
663.803	6.2
664.213	6.16
664.624	6.13
665.035	6.1
665.445	6.08
665.855	6.05
666.266	6.04
666.676	6.02
667.086	5.99
667.497	5.98
667.907	5.98
668.317	5.97
668.727	5.97
669.137	5.97
669.547	5.98
669.956	5.98
670.366	5.98
670.776	5.99
671.186	5.99
671.595	6.01
672.005	6.02
672.414	6.05
672.824	6.05
673.233	6.06
673.642	6.07
674.052	6.1
674.461	6.13
674.87	6.15
675.279	6.19
675.688	6.23
676.097	6.26
676.506	6.3
676.915	6.33
677.323	6.37
677.732	6.4
678.141	6.45
678.549	6.49
678.958	6.52
679.366	6.58
679.775	6.61
680.183	6.67
680.592	6.73
681	6.8
681.408	6.86
681.816	6.95
682.224	7.04
682.632	7.12
683.04	7.23
683.448	7.36
683.856	7.47
684.264	7.62
684.671	7.77
685.079	7.95
685.487	8.15
685.894	8.38
686.302	8.64
686.709	8.91
687.116	9.22
687.524	9.55
687.931	9.92
688.338	10.32
688.745	10.76
689.152	11.22
689.559	11.74
689.966	12.29
690.373	12.86
690.78	13.46
691.187	14.09
691.593	14.75
692	15.42
692.407	16.1
692.813	16.84
693.22	17.58
693.626	18.34
694.032	19.11
694.439	19.9
694.845	20.72
695.251	21.53
695.657	22.33
696.063	23.16
696.469	24.01
696.875	24.86
697.281	25.69
697.687	26.52
698.093	27.34
698.498	28.17
698.904	28.99
699.31	29.78
699.715	30.57
700.12	31.37
700.526	32.15
700.931	32.92
701.337	33.68
701.742	34.43
702.147	35.16
702.552	35.89
702.957	36.57
703.362	37.28
703.767	37.95
704.172	38.64
704.577	39.29
704.981	39.95
705.386	40.6
705.791	41.24
706.195	41.87
706.6	42.51
707.004	43.14
707.408	43.79
707.813	44.39
708.217	44.98
708.621	45.59
709.025	46.18
709.43	46.76
709.834	47.33
710.237	47.88
710.641	48.43
711.045	48.98
711.449	49.51
711.853	50.04
712.256	50.53
712.66	51.04
713.064	51.53
713.467	52.02
713.87	52.51
714.274	52.98
714.677	53.46
715.08	53.91
715.484	54.37
715.887	54.83
716.29	55.23
716.693	55.68
717.096	56.12
717.499	56.53
717.901	56.94
718.304	57.32
718.707	57.71
719.109	58.06
719.512	58.43
719.915	58.79
720.317	59.13
720.719	59.43
721.122	59.78
721.524	60.11
721.926	60.43
722.328	60.72
722.731	61.01
723.133	61.3
723.535	61.61
723.937	61.88
724.338	62.15
724.74	62.42
725.142	62.81
725.544	63.05
725.945	63.31
726.347	63.53
726.748	63.77
727.15	63.97
727.551	64.22
727.952	64.39
728.354	64.6
728.755	64.78
729.156	64.94
729.557	65.03
729.958	65.19
730.359	65.31
730.76	65.51
731.161	65.66
731.562	65.86
731.962	65.97
732.363	66.14
732.763	66.28
733.164	66.4
733.564	66.54
733.965	66.66
734.365	66.77
734.766	66.9
735.166	66.99
735.566	67.1
735.966	67.2
736.366	67.31
736.766	67.38
737.166	67.48
737.566	67.58
737.966	67.67
738.365	67.76
738.765	67.83
739.165	67.89
739.564	67.97
739.964	68.04
740.363	68.08
740.763	68.12
741.162	68.21
741.561	68.27
741.96	68.31
742.36	68.35
742.759	68.41
743.158	68.48
743.557	68.52
743.955	68.58
744.354	68.63
744.753	68.71
745.152	68.79
745.55	68.82
745.949	68.84
746.348	68.89
746.746	68.92
747.144	68.97
747.543	68.98
747.941	69.05
748.339	69.06
748.737	69.06
749.136	69.05
749.534	69.02
749.932	69.03
750.33	69.04
750.727	69.06
751.125	69.09
751.523	69.08
751.921	69.08
752.318	69.09
752.716	69.1
753.113	69.13
753.511	69.15
753.908	69.22
754.305	69.26
754.703	69.26
755.1	69.25
755.497	69.24
755.894	69.25
756.291	69.27
756.688	69.23
757.085	69.23
757.482	69.21
757.878	69.2
758.275	69.18
758.672	69.16
759.068	69.21
759.465	69.21
759.861	69.22
760.258	69.24
760.654	69.24
761.05	69.29
761.447	69.32
761.843	69.33
762.239	69.34
762.635	69.32
763.031	69.32
763.427	69.28
763.822	69.26
764.218	69.26
764.614	69.26
765.01	69.26
765.405	69.23
765.801	69.18
766.196	69.17
766.592	69.17
766.987	69.18
767.382	69.16
767.778	69.16
768.173	69.17
768.568	69.13
768.963	69.11
769.358	69.12
769.753	69.11
770.148	69.12
770.542	69.12
770.937	69.13
771.332	69.11
771.726	69.13
772.121	69.14
772.515	69.16
772.91	69.21
773.304	69.23
773.699	69.19
774.093	69.19
774.487	69.21
774.881	69.22
775.275	69.2
775.669	69.18
776.063	69.18
776.457	69.21
776.851	69.18
777.245	69.11
777.638	69.1
778.032	69.16
778.425	69.2
778.819	69.19
779.212	69.18
779.606	69.22
779.999	69.24
780.392	69.24
780.786	69.19
781.179	69.22
781.572	69.33
781.965	69.35
782.358	69.32
782.751	69.28
783.143	69.28
783.536	69.28
783.929	69.27
784.322	69.29
784.714	69.29
785.107	69.37
785.499	69.37
785.891	69.32
786.284	69.33
786.676	69.38
787.068	69.38
787.46	69.39
787.852	69.38
788.245	69.38
788.636	69.38
789.028	69.37
789.42	69.3
789.812	69.3
790.204	69.32
790.595	69.34
790.987	69.3
791.378	69.35
791.77	69.37
792.161	69.38
792.553	69.38
792.944	69.36
793.335	69.4
793.726	69.44
794.117	69.44
794.508	69.42
794.899	69.41
795.29	69.44
795.681	69.4
796.072	69.38
796.463	69.4
796.853	69.39
797.244	69.38
797.634	69.39
798.025	69.42
798.415	69.42
798.806	69.43
799.196	69.43
799.586	69.43
799.976	69.49
800.366	69.51
800.756	69.53
801.146	69.59
801.536	69.62
801.926	69.59
802.316	69.58
802.706	69.6
803.095	69.63
803.485	69.61
803.874	69.6
804.264	69.59
804.653	69.58
805.043	69.55
805.432	69.5
805.821	69.52
806.21	69.54
806.599	69.55
806.988	69.56
807.377	69.55
807.766	69.55
808.155	69.54
808.544	69.55
808.933	69.57
809.321	69.59
809.71	69.58
810.098	69.57
810.487	69.56
810.875	69.58
811.264	69.59
811.652	69.62
812.04	69.64
812.428	69.7
812.816	69.71
813.204	69.71
813.592	69.7
813.98	69.76
814.368	69.75
814.756	69.77
815.144	69.75
815.531	69.72
815.919	69.7
816.306	69.71
816.694	69.69
817.081	69.69
817.469	69.71
817.856	69.71
818.243	69.67
818.63	69.7
819.017	69.68
819.404	69.69
819.791	69.72
820.178	69.73
820.565	69.71
820.952	69.68
821.339	69.68
821.725	69.67
822.112	69.66
822.498	69.69
822.885	69.68
823.271	69.67
823.657	69.62
824.044	69.58
824.43	69.58
824.816	69.59
825.202	69.57
825.588	69.56
825.974	69.55
826.36	69.55
826.746	69.53
827.132	69.52
827.517	69.56
827.903	69.59
828.289	69.62
828.674	69.61
829.06	69.6
829.445	69.61
829.83	69.61
830.216	69.59
830.601	69.6
830.986	69.6
831.371	69.59
831.756	69.58
832.141	69.54
832.526	69.56
832.911	69.52
833.295	69.51
833.68	69.51
834.065	69.48
834.449	69.44
834.834	69.41
835.218	69.38
835.603	69.34
835.987	69.3
836.371	69.29
836.755	69.22
837.139	69.21
837.524	69.18
837.908	69.18
838.291	69.19
838.675	69.21
839.059	69.18
839.443	69.14
839.827	69.13
840.21	69.12
840.594	69.14
840.977	69.11
841.361	69.15
841.744	69.12
842.127	69.11
842.511	69.07
842.894	69.05
843.277	69.05
843.66	69.05
844.043	69.08
844.426	69.06
844.809	69.04
845.191	69.08
845.574	69.04
845.957	69.05
846.339	69.05
846.722	69.07
847.104	69.08
847.487	69.09
847.869	69.09
848.252	69.06
848.634	69.06
849.016	69.08
849.398	69.08
849.78	69.08
850.162	69.05
850.544	69.04
850.926	69.03
851.307	69.01
851.689	69.01
852.071	69.03
852.452	69.04
852.834	69.05
853.215	69.04
853.597	69.03
853.978	69.02
854.359	69.04
854.741	69.03
855.122	69.04
855.503	69.04
855.884	69.04
856.265	69.03
856.646	69.03
857.026	69.06
857.407	69.07
857.788	69.05
858.169	69.09
858.549	69.08
858.93	69.08
859.31	69.08
859.69	69.1
860.071	69.12
860.451	69.12
860.831	69.1
861.211	69.06
861.591	69.03
861.971	69.05
862.351	69.06
862.731	69.05
863.111	69.06
863.491	69.07
863.87	69.04
864.25	69
864.629	69.03
865.009	69.06
865.388	69.07
865.768	69.06
866.147	69.03
866.526	69.01
866.905	69.01
867.284	68.98
867.663	68.95
868.042	68.96
868.421	69
868.8	68.97
869.179	68.95
869.558	68.95
869.936	68.94
870.315	68.92
870.693	68.93
871.072	68.92
871.45	68.96
871.828	68.98
872.207	68.99
872.585	68.96
872.963	68.94
873.341	68.93
873.719	68.93
874.097	68.91
874.475	68.93
874.853	68.93
875.23	68.96
875.608	68.93
875.986	68.93
876.363	68.92
876.741	68.94
877.118	68.96
877.495	68.98
877.873	68.98
878.25	69.01
878.627	69.05
879.004	69.03
879.381	69.02
879.758	68.99
880.135	68.98
880.512	68.97
880.889	68.95
881.265	68.92
881.642	68.91
882.019	68.89
882.395	68.86
882.772	68.82
883.148	68.81
883.524	68.84
883.901	68.84
884.277	68.8
884.653	68.78
885.029	68.76
885.405	68.78
885.781	68.78
886.157	68.8
886.532	68.81
886.908	68.81
887.284	68.79
887.659	68.75
888.035	68.75
888.411	68.75
888.786	68.74
889.161	68.76
889.537	68.75
889.912	68.73
890.287	68.71
890.662	68.7
891.037	68.7
891.412	68.69
891.787	68.67
892.162	68.65
892.536	68.65
892.911	68.64
893.286	68.63
893.66	68.63
894.035	68.62
894.409	68.59
894.784	68.56
895.158	68.55
895.532	68.58
895.906	68.59
896.281	68.61
896.655	68.59
897.029	68.6
897.402	68.57
897.776	68.55
898.15	68.54
898.524	68.56
898.898	68.58
899.271	68.58
899.645	68.56
900.018	68.55
900.392	68.55
900.765	68.58
901.138	68.57
901.511	68.57
901.884	68.6
902.258	68.65
902.631	68.63
903.003	68.64
903.376	68.64
903.749	68.63
904.122	68.67
904.495	68.68
904.867	68.67
905.24	68.71
905.612	68.76
905.985	68.71
906.357	68.7
906.729	68.74
907.102	68.76
907.474	68.79
907.846	68.79
908.218	68.76
908.59	68.76
908.962	68.76
909.334	68.76
909.705	68.74
910.077	68.8
910.449	68.79
910.82	68.79
911.192	68.78
911.563	68.75
911.935	68.73
912.306	68.75
912.677	68.77
913.048	68.83
913.419	68.82
913.79	68.82
914.161	68.81
914.532	68.81
914.903	68.82
915.274	68.83
915.645	68.84
916.015	68.88
916.386	68.92
916.756	68.9
917.127	68.87
917.497	68.85
917.868	68.83
918.238	68.85
918.608	68.86
918.978	68.86
919.348	68.89
919.718	68.91
920.088	68.91
920.458	68.9
920.828	68.87
921.198	68.83
921.567	68.87
921.937	68.93
922.306	68.88
922.676	68.88
923.045	68.86
923.415	68.84
923.784	68.83
924.153	68.84
924.522	68.82
924.891	68.81
925.26	68.86
925.629	68.86
925.998	68.81
926.367	68.84
926.736	68.86
927.104	68.89
927.473	68.86
927.842	68.83
928.21	68.81
928.578	68.79
928.947	68.8
929.315	68.75
929.683	68.73
930.051	68.7
930.42	68.67
930.788	68.64
931.156	68.58
931.523	68.54
931.891	68.58
932.259	68.6
932.627	68.59
932.994	68.61
933.362	68.59
933.729	68.57
934.097	68.54
934.464	68.52
934.831	68.47
935.199	68.47
935.566	68.45
935.933	68.33
936.3	68.24
936.667	68.2
937.034	68.17
937.401	68.19
937.767	68.16
938.134	68.17
938.501	68.15
938.867	68.22
939.234	68.19
939.6	68.21
939.967	68.32
940.333	68.34
940.699	68.42
941.065	68.39
941.431	68.34
941.798	68.29
942.163	68.29
942.529	68.32
942.895	68.27
943.261	68.28
943.627	68.24
943.992	68.14
944.358	68.08
944.723	68.03
945.089	67.98
945.454	68.05
945.82	68.1
946.185	68.06
946.55	67.95
946.915	67.91
947.28	67.86
947.645	67.91
948.01	67.95
948.375	67.97
948.74	67.95
949.104	68
949.469	67.94
949.834	67.89
950.198	67.92
950.562	68
950.927	67.99
951.291	67.93
951.655	67.87
952.02	67.87
952.384	67.86
952.748	67.86
953.112	67.83
953.476	67.8
953.839	67.79
954.203	67.78
954.567	67.72
954.931	67.71
955.294	67.69
955.658	67.77
956.021	67.71
956.385	67.63
956.748	67.57
957.111	67.5
957.474	67.51
957.837	67.46
958.2	67.41
958.563	67.39
958.926	67.41
959.289	67.43
959.652	67.34
960.015	67.34
960.377	67.38
960.74	67.38
961.102	67.44
961.465	67.44
961.827	67.5
962.189	67.54
962.552	67.54
962.914	67.51
963.276	67.59
963.638	67.63
964	67.59
964.362	67.62
964.724	67.67
965.085	67.62
965.447	67.62
965.809	67.58
966.17	67.52
966.532	67.54
966.893	67.51
967.255	67.46
967.616	67.47
967.977	67.56
968.338	67.5
968.699	67.51
969.061	67.53
969.421	67.54
969.782	67.6
970.143	67.65
970.504	67.69
970.865	67.76
971.225	67.78
971.586	67.69
971.946	67.69
972.307	67.73
972.667	67.69
973.027	67.68
973.388	67.7
973.748	67.69
974.108	67.69
974.468	67.65
974.828	67.69
975.188	67.69
975.548	67.74
975.907	67.78
976.267	67.76
976.627	67.77
976.986	67.75
977.346	67.72
977.705	67.71
978.064	67.7
978.424	67.68
978.783	67.56
979.142	67.54
979.501	67.55
979.86	67.57
980.219	67.63
980.578	67.68
980.937	67.76
981.296	67.67
981.654	67.68
982.013	67.71
982.371	67.75
982.73	67.78
983.088	67.75
983.447	67.77
983.805	67.68
984.163	67.58
984.521	67.51
984.879	67.39
985.237	67.47
985.595	67.57
985.953	67.55
986.311	67.52
986.669	67.54
987.026	67.54
987.384	67.48
987.741	67.39
988.099	67.5
988.456	67.52
988.814	67.59
989.171	67.57
989.528	67.46
989.885	67.49
990.242	67.46
990.599	67.51
990.956	67.6
991.313	67.64
991.67	67.74
992.027	67.82
992.383	67.81
992.74	67.87
993.096	67.88
993.453	67.87
993.809	67.82
994.165	67.98
994.522	68.05
994.878	68.09
995.234	68.11
995.59	68.02
995.946	68.03
996.302	68.05
996.658	68.14
997.013	68.18
997.369	68.27
997.725	68.41
998.08	68.34
998.436	68.35
998.791	68.36
999.147	68.3
999.502	68.47
999.857	68.38
1000.212	68.42
1000.567	68.25
1000.922	68.21
1001.277	68.24
1001.632	68.15
1001.987	68.1
1002.342	68.04
1002.696	67.95
1003.051	68.13
1003.406	68.16
1003.76	68.2
1004.114	68.13
1004.469	68.19
1004.823	68.53
1005.177	68.48
1005.531	68.56
1005.885	68.65
1006.239	68.58
1006.593	68.77
1006.947	68.8
1007.301	68.68
1007.655	68.61
1008.008	68.74
1008.362	68.79
1008.715	68.62
1009.069	68.71
1009.422	68.67
1009.776	68.68
1010.129	68.77
1010.482	68.71
1010.835	68.68
1011.188	68.78
1011.541	68.86
1011.894	68.86
1012.247	68.98
1012.6	68.99
1012.952	68.91
1013.305	68.93
1013.657	68.89
1014.01	68.96
1014.362	68.91
1014.715	68.91
1015.067	69.04
1015.419	69.09
1015.771	69.04
1016.123	69.02
1016.475	68.95
1016.827	68.91
1017.179	68.73
1017.531	68.85
1017.883	68.98
1018.234	69.21
1018.586	69.33
1018.938	69.29
1019.289	69.11
1019.64	69.19
1019.992	69.05
1020.343	68.93
1020.694	69.01
1021.045	69.18
1021.396	69.09
1021.747	69.06
1022.098	68.79
1022.449	68.58
1022.8	68.63
1023.151	68.92
1023.501	68.88
1023.852	68.71
1024.202	68.76
1024.553	68.83
1024.903	68.79
1025.253	69.21
1025.604	69.04
1025.954	68.77
1026.304	68.82
1026.654	68.62
1027.004	68.5
1027.354	68.38
1027.703	68.57
1028.053	68.64
1028.403	68.57
1028.753	68.56
1029.102	68.36
1029.452	68.48
1029.801	68.97
1030.15	68.99
1030.499	69.05
897.758	1622.81
901.051	1633.52
904.343	1632.44
907.636	1657.79
910.928	1613.62
914.22	1609.14
917.511	1584.84
920.803	1515.31
924.094	1510.86
927.384	1476.42
930.675	1413.43
933.965	1405.24
937.255	1324.49
940.544	1269.18
943.834	1209.5
947.123	1199.11
950.411	1132.31
953.7	1109.06
956.988	1052.53
960.276	1006.84
963.563	993.27
966.851	958.53
970.138	950.78
973.424	919.67
976.711	925.4
979.997	878.82
983.283	875.74
986.568	856.81
989.853	829.33
993.138	815.86
996.423	785.7
999.708	763.12
1002.992	756.33
1006.275	722.36
1009.559	714.65
1012.842	690.4
1016.125	673.52
1019.408	660.98
1022.69	652.62
1025.972	641.27
1029.254	625.48
1032.536	615.59
1035.817	602.81
1039.098	594.6
1042.379	582.5
1045.659	576.52
1048.939	563.11
1052.219	550.32
1055.498	541.87
1058.778	531.01
1062.057	517.5
1065.335	512.19
1068.614	505.99
1071.892	501.58
1075.17	485.17
1078.447	476.85
1081.724	473.95
1085.001	469.07
1088.278	460.91
1091.554	452.43
1094.83	451.37
1098.106	449.88
1101.382	445.55
1104.657	442.65
1107.932	435.33
1111.206	438.89
1114.481	427.52
1117.755	423.7
1121.029	420.78
1124.302	420.85
1127.575	412.56
1130.848	407.72
1134.121	402.77
1137.393	401.37
1140.665	393.26
1143.937	390.86
1147.208	387.46
1150.48	387.82
1153.75	382.45
1157.021	376.45
1160.291	376.81
1163.561	372.81
1166.831	372.53
1170.101	371.2
1173.37	368.62
1176.639	369.76
1179.907	365.59
1183.176	362.66
1186.444	362.04
1189.711	362.39
1192.979	361.19
1196.246	357.7
1199.513	360.17
1202.78	357.64
1206.046	357.04
1209.312	354.98
1212.578	355.29
1215.843	358.45
1219.108	355.21
1222.373	362.5
1225.638	364.79
1228.902	371.07
1232.166	370.79
1235.43	372.87
1238.693	378.36
1241.956	379.71
1245.219	385.95
1248.482	385.48
1251.744	385.76
1255.006	386.82
1258.268	377.6
1261.529	373.66
1264.79	370.27
1268.051	369.35
1271.312	365.63
1274.572	360.07
1277.832	357.86
1281.092	351.66
1284.351	349.28
1287.61	348.85
1290.869	343.82
1294.128	341.59
1297.386	341.63
1300.644	337.69
1303.902	339.05
1307.159	336.53
1310.416	338.05
1313.673	336.7
1316.93	339.99
1320.186	340.38
1323.442	341.72
1326.697	348.12
1329.953	348.68
1333.208	350.69
1336.463	355.02
1339.717	355.52
1342.972	359.53
1346.226	361.9
1349.479	362.49
1352.733	364.32
1355.986	365.78
1359.238	365.26
1362.491	367.74
1365.743	371.15
1368.995	370.4
1372.247	368.41
1375.498	369
1378.749	372.23
1382	367.33
1385.251	369.84
1388.501	367.35
1391.751	369.67
1395	366.93
1398.25	363.78
1401.499	362.19
1404.748	362.01
1407.996	358.58
1411.244	356.65
1414.492	355.11
1417.74	352.44
1420.987	346.37
1424.234	346.74
1427.481	340.32
1430.728	341.91
1433.974	337.54
1437.22	334.27
1440.465	333.15
1443.711	332.04
1446.956	330.42
1450.201	324.71
1453.445	322.54
1456.689	321.84
1459.933	315.58
1463.177	314.71
1466.42	309.12
1469.663	306.81
1472.906	305.52
1476.148	297.53
1479.391	293.92
1482.633	290.82
1485.874	287.87
1489.115	286.32
1492.356	281.88
1495.597	281.99
1498.838	277.17
1502.078	275.63
1505.318	274.06
1508.557	274.2
1511.797	274.46
1515.036	273.36
1518.274	272.29
1521.513	269.88
1524.751	269.16
1527.989	269.29
1531.227	267.8
1534.464	269.75
1537.701	267.85
1540.938	266.98
1544.174	263.1
1547.41	262.86
1550.646	261.4
1553.882	261.97
1557.117	258.82
1560.352	256.93
1563.587	256.48
1566.821	254.96
1570.055	251.35
1573.289	249.86
1576.523	249.62
1579.756	248.49
1582.989	246.97
1586.222	246.64
1589.454	245.24
1592.686	247
1595.918	246.27
1599.15	245.23
1602.381	245.14
1605.612	245.4
1608.843	246.77
1612.073	246.32
1615.303	247.33
1618.533	247.98
1621.762	246.85
1624.992	247.14
1628.221	246.92
1631.449	247.22
1634.678	246.53
1637.906	247.91
1641.134	247.76
1644.361	246.74
1647.588	248.06
1650.815	246.75
1654.042	245
1657.269	247.27
1660.495	247.06
1663.72	245.45
1666.946	245.71
1670.171	246.35
1673.396	245.91
1676.621	245.85
1679.845	246.22
1683.069	246.01
1686.293	247.65
1689.517	249.34
1692.74	248.68
1695.963	249.99
1699.185	253.11
1702.408	253.64
1705.63	254.36
1708.852	255.2
1712.073	256
1715.294	256.18
1718.515	257.25
1721.736	257.19
1724.956	257.46
1728.176	257.5
1731.396	259.36
1734.616	258.07
1737.835	259.01
1741.054	257.08
1744.272	257.79
1747.491	259.87
1750.709	260.73
1753.927	260.41
1757.144	259.36
1760.361	261.37
1763.578	261.3
1766.795	260.47
1770.011	262.2
1773.227	262.27
1776.443	265.95
1779.658	267.19
1782.874	265.98
1786.089	267.35
1789.303	267.92
1792.518	271.1
1795.732	270.1
1798.945	273.68
1802.159	273.25
1805.372	274.72
1808.585	279.4
1811.797	280.24
1815.01	279.52
1818.222	282.41
1821.434	283.62
1824.645	285.14
1827.856	289.79
1831.067	292.54
1834.278	289.79
1837.488	292.67
1840.698	294.61
1843.908	291.4
1847.117	293.09
1850.326	295.56
1853.535	293.78
1856.744	298.23
1859.952	297.6
1863.16	295.99
1866.368	293.25
1869.575	298.65
1872.782	293.52
1875.989	290.87
1879.196	289.56
1882.402	287.3
1885.608	287.81
1888.814	288.73
1892.019	286.4
1895.224	284.98
1898.429	283.3
1901.634	284.68
1904.838	282.75
1908.042	285.56
1911.246	287.54
1914.449	288.83
1917.652	287.84
1920.855	287.8
1924.058	287.57
1927.26	286.16
1930.462	287.71
1933.664	290.44
1936.865	288.66
1940.066	289.09
1943.267	287.4
1946.467	286.67
1949.668	288.86
1952.868	292.97
1956.067	292.66
1959.267	293.08
1962.466	294.36
1965.665	292.74
1968.863	293.72
1972.061	297.61
1975.259	300.37
1978.457	302.73
1981.654	304.43
1984.852	304.98
1988.048	304.21
1991.245	307.37
1994.441	310.98
1997.637	313.12
2000.833	319.75
2004.028	323.27
2007.223	325.39
2010.418	328.9
2013.613	334.53
2016.807	339.34
2020.001	342.34
2023.194	347.23
2026.388	354.67
2029.581	361.67
2032.774	365.6
2035.966	372.16
2039.158	373.55
2042.35	380.64
2045.542	381.82
2048.733	387.51
2051.924	393.09
2055.115	398.08
2058.306	398.93
2061.496	403.62
2064.686	404.33
2067.875	411.51
2071.065	412.44
2074.254	410.32
2077.442	415.13
2080.631	417.37
2083.819	421.19
2087.007	420.82
2090.195	427.22
2093.382	430.32
2096.569	426.75
2099.756	434.52
2102.942	434.29
2106.128	439.52
2109.314	449.64
2112.5	447.68
2115.685	457.79
2118.87	458.21
2122.055	467.78
2125.239	470.84
2128.424	478.17
2131.608	481.61
2134.791	486.82
2137.974	489.3
2141.157	490.23
2144.34	491.18
2147.523	498.37
2150.705	495.07
2153.887	498.65
2157.068	499.4
2160.25	494.87
2163.431	495.29
2166.611	501.25
2169.792	511.2
2172.972	515.33
2176.152	519.16
2179.331	526.86
2182.511	535.5
2185.69	541.51
2188.868	553.61
2192.047	554.87
2195.225	570.28
2198.403	586.1
2201.58	596.68
2204.758	607.38
2207.935	620.9
2211.111	631.73
2214.288	637.89
2217.464	640.42
2220.64	649.66
2223.815	658.34
2226.991	685.26
2230.166	687.25
2233.34	698.53
2236.515	708.49
2239.689	710.58
2242.863	715.08
2246.036	735.26
2249.209	726.2
2252.382	739.04
2255.555	759.79
2258.727	762.26
2261.9	765.08
2265.071	772.19
2268.243	783.85
2271.414	792.2
2274.585	808.65
2277.756	815.88
2280.926	820.18
2284.096	841.87
2287.266	858.49
2290.436	866.07
2293.605	885.72
2296.774	914.06
2299.942	942.11
2303.111	948.67
2306.279	972.16
2309.447	984.2
2312.614	1008.32
2315.781	1038.31
2318.948	1088.36
2322.115	1070.3
2325.281	1128.52
2328.447	1105.37
2331.613	1148.48
2334.779	1135.38
2337.944	1181.24
2341.109	1192.99
2344.274	1222.79
2347.438	1270.28
2350.602	1268.53
2353.766	1301
2356.929	1323.22
2360.092	1312.96
2363.255	1409.61
2366.418	1403.79
2369.58	1434.77
2372.742	1525.16
2375.904	1561.23
2379.066	1553.5
2382.227	1518.72
2385.388	1646.84
2388.548	1651.55
2391.709	1672.75
2394.869	1859.99
2398.029	1774.45
2401.188	1826.1
2404.347	1814.16
2407.506	1783.51
2410.665	1839.11
2413.823	1948.92
2416.981	2065.99
2420.139	1997.13
2423.296	1976.85
2426.453	2066.71
2429.61	1989.47
2432.767	2087.93
2435.923	2070.2
2439.079	2257.64
2442.235	2286.3
2445.391	2257.12
2448.546	2245.92
2451.701	2181.82
2454.855	2181.51
2458.009	2306.76
2461.163	2401.25
2464.317	2488.87
2467.471	2550.94
2470.624	2547.05
2473.777	2486.93
2476.929	2418.33
2480.082	2355.38
2483.234	2322.67
2486.385	2434.83
2489.537	2447.06
2492.688	2552
2495.839	2461.34
2498.989	2412.61
2502.14	2425.24
2505.29	2454.44
2508.439	2487.15
2511.589	2486.42
2514.738	2705.84
2517.887	2650.91
2521.035	2799.1
2524.183	2829.4
2527.331	2845.61
2530.479	2849.6
2533.627	2865.61
