Data from N_3_HIR_IL_4N_Splice17_14-29-19-881.txt Node
Date: Sat Mar 07 14:29:19 EST 2020
User: sa697716
Spectrometer: NQ5500242
Trigger mode: 0
Integration Time (sec): 1.450000E-1
Scans to average: 20
Nonlinearity correction enabled: false
Boxcar width: 5
Storing dark spectrum: false
XAxis mode: Wavelengths
Number of Pixels in Spectrum: 512
>>>>>Begin Spectral Data<<<<<
187.83	191.36
188.298	203.8
188.766	166.73
189.233	141.09
189.701	147.82
190.169	167.64
190.636	182.28
191.104	241.97
191.571	375.14
192.039	297.85
192.506	470.87
192.974	84.81
193.441	313.86
193.908	119.23
194.375	115.25
194.842	58.32
195.31	93.9
195.777	138.98
196.244	65.99
196.711	66.43
197.177	66.33
197.644	66.08
198.111	66.26
198.578	65.63
199.045	65.93
199.511	65.6
199.978	65.92
200.445	66.05
200.911	66.33
201.378	66.4
201.844	66.42
202.31	66.24
202.777	65.85
203.243	65.63
203.709	65.25
204.176	64.8
204.642	64.44
205.108	64.38
205.574	63.84
206.04	63.01
206.506	62.48
206.972	62.07
207.438	61.55
207.903	60.95
208.369	59.71
208.835	58.47
209.301	56.99
209.766	55.49
210.232	53.67
210.697	52.36
211.163	51.01
211.628	49.74
212.094	48.4
212.559	47.18
213.024	46.02
213.49	44.91
213.955	43.98
214.42	43.12
214.885	41.86
215.35	40.35
215.815	38.09
216.28	35.44
216.745	32.5
217.21	29.62
217.675	26.84
218.14	24.43
218.604	22.32
219.069	20.47
219.534	18.96
219.998	17.76
220.463	16.77
220.927	15.85
221.392	15.2
221.856	14.57
222.32	14.09
222.785	13.67
223.249	13.3
223.713	12.97
224.177	12.7
224.642	12.43
225.106	12.14
225.57	11.86
226.034	11.67
226.497	11.44
226.961	11.25
227.425	11.03
227.889	10.85
228.353	10.67
228.816	10.48
229.28	10.31
229.744	10.15
230.207	10
230.671	9.84
231.134	9.68
231.597	9.54
232.061	9.41
232.524	9.29
232.987	9.17
233.45	9.07
233.914	8.97
234.377	8.86
234.84	8.75
235.303	8.67
235.766	8.6
236.229	8.53
236.691	8.45
237.154	8.38
237.617	8.31
238.08	8.24
238.542	8.15
239.005	8.08
239.468	8.01
239.93	7.95
240.393	7.88
240.855	7.8
241.317	7.73
241.78	7.65
242.242	7.57
242.704	7.5
243.166	7.43
243.629	7.38
244.091	7.3
244.553	7.23
245.015	7.16
245.477	7.09
245.939	7.03
246.4	6.97
246.862	6.91
247.324	6.86
247.786	6.79
248.247	6.73
248.709	6.66
249.17	6.6
249.632	6.56
250.093	6.5
250.555	6.45
251.016	6.4
251.477	6.33
251.939	6.29
252.4	6.25
252.861	6.2
253.322	6.15
253.783	6.12
254.244	6.09
254.705	6.04
255.166	6
255.627	5.94
256.088	5.91
256.549	5.88
257.009	5.84
257.47	5.79
257.931	5.75
258.391	5.71
258.852	5.66
259.312	5.61
259.773	5.57
260.233	5.53
260.694	5.49
261.154	5.45
261.614	5.41
262.074	5.37
262.534	5.34
262.994	5.31
263.455	5.28
263.915	5.25
264.374	5.22
264.834	5.19
265.294	5.16
265.754	5.14
266.214	5.12
266.673	5.1
267.133	5.08
267.593	5.06
268.052	5.04
268.512	5.03
268.971	5.01
269.431	5
269.89	4.98
270.349	4.97
270.809	4.95
271.268	4.94
271.727	4.92
272.186	4.91
272.645	4.9
273.104	4.88
273.563	4.87
274.022	4.86
274.481	4.85
274.94	4.84
275.399	4.82
275.857	4.81
276.316	4.8
276.775	4.79
277.233	4.78
277.692	4.76
278.15	4.75
278.609	4.73
279.067	4.72
279.525	4.72
279.984	4.7
280.442	4.69
280.9	4.69
281.358	4.68
281.816	4.68
282.274	4.67
282.732	4.66
283.19	4.65
283.648	4.65
284.106	4.64
284.564	4.62
285.021	4.62
285.479	4.61
285.937	4.59
286.394	4.59
286.852	4.57
287.309	4.56
287.767	4.54
288.224	4.53
288.682	4.52
289.139	4.5
289.596	4.48
290.053	4.46
290.511	4.44
290.968	4.42
291.425	4.39
291.882	4.38
292.339	4.37
292.796	4.35
293.252	4.34
293.709	4.32
294.166	4.31
294.623	4.3
295.079	4.29
295.536	4.28
295.992	4.26
296.449	4.26
296.905	4.25
297.362	4.23
297.818	4.22
298.274	4.21
298.731	4.2
299.187	4.19
299.643	4.17
300.099	4.17
300.555	4.16
301.011	4.15
301.467	4.14
301.923	4.13
302.379	4.12
302.835	4.12
303.291	4.12
303.746	4.11
304.202	4.11
304.658	4.11
305.113	4.1
305.569	4.1
306.024	4.09
306.479	4.08
306.935	4.08
307.39	4.09
307.845	4.08
308.301	4.08
308.756	4.09
309.211	4.09
309.666	4.1
310.121	4.1
310.576	4.11
311.031	4.11
311.486	4.12
311.94	4.12
312.395	4.11
312.85	4.11
313.305	4.11
313.759	4.11
314.214	4.11
314.668	4.1
315.123	4.09
315.577	4.09
316.032	4.09
316.486	4.08
316.94	4.09
317.394	4.08
317.849	4.07
318.303	4.07
318.757	4.05
319.211	4.04
319.665	4.03
320.119	4.02
320.572	4
321.026	4
321.48	3.98
321.934	3.97
322.387	3.96
322.841	3.95
323.295	3.94
323.748	3.94
324.202	3.95
324.655	3.94
325.108	3.94
325.562	3.94
326.015	3.93
326.468	3.94
326.921	3.93
327.374	3.93
327.827	3.93
328.28	3.92
328.733	3.92
329.186	3.92
329.639	3.92
330.092	3.93
330.545	3.93
330.997	3.93
331.45	3.95
331.903	3.96
332.355	3.97
332.808	3.97
333.26	3.98
333.713	3.98
334.165	3.98
334.617	3.99
335.069	3.98
335.522	3.99
335.974	4
336.426	4
336.878	3.99
337.33	3.98
337.782	3.98
338.234	3.98
338.686	3.99
339.137	3.99
339.589	3.98
340.041	3.98
340.493	3.97
340.944	3.95
341.396	3.94
341.847	3.93
342.299	3.92
342.75	3.91
343.201	3.9
343.653	3.89
344.104	3.87
344.555	3.86
345.006	3.85
345.457	3.84
345.908	3.84
346.359	3.84
346.81	3.83
347.261	3.82
347.712	3.82
348.163	3.81
348.613	3.82
349.064	3.82
349.515	3.81
349.965	3.81
350.416	3.82
350.866	3.82
351.317	3.81
351.767	3.81
352.217	3.81
352.668	3.81
353.118	3.81
353.568	3.8
354.018	3.81
354.468	3.82
354.918	3.81
355.368	3.81
355.818	3.82
356.268	3.81
356.718	3.81
357.168	3.81
357.617	3.81
358.067	3.8
358.517	3.82
358.966	3.82
359.416	3.83
359.865	3.84
360.315	3.84
360.764	3.84
361.213	3.83
361.663	3.83
362.112	3.84
362.561	3.84
363.01	3.85
363.459	3.83
363.908	3.82
364.357	3.82
364.806	3.82
365.255	3.82
365.703	3.83
366.152	3.84
366.601	3.84
367.05	3.85
367.498	3.85
367.947	3.85
368.395	3.86
368.844	3.87
369.292	3.86
369.74	3.87
370.189	3.87
370.637	3.86
371.085	3.84
371.533	3.84
371.981	3.84
372.429	3.84
372.877	3.84
373.325	3.84
373.773	3.84
374.221	3.84
374.669	3.84
375.116	3.84
375.564	3.85
376.012	3.87
376.459	3.87
376.907	3.87
377.354	3.88
377.801	3.89
378.249	3.89
378.696	3.9
379.143	3.91
379.591	3.91
380.038	3.92
380.485	3.93
380.932	3.94
381.379	3.95
381.826	3.96
382.273	3.98
382.72	3.98
383.166	3.99
383.613	4
384.06	4.01
384.506	4.02
384.953	4.03
385.4	4.05
385.846	4.06
386.292	4.07
386.739	4.08
387.185	4.09
387.631	4.12
388.078	4.13
388.524	4.16
388.97	4.17
389.416	4.19
389.862	4.21
390.308	4.24
390.754	4.27
391.2	4.29
391.645	4.31
392.091	4.34
392.537	4.37
392.983	4.4
393.428	4.42
393.874	4.45
394.319	4.48
394.765	4.5
395.21	4.52
395.655	4.55
396.101	4.58
396.546	4.61
396.991	4.63
397.436	4.65
397.881	4.69
398.326	4.73
398.771	4.76
399.216	4.79
399.661	4.84
400.106	4.87
400.551	4.9
400.995	4.91
401.44	4.93
401.885	4.96
402.329	4.99
402.774	5.01
403.218	5.04
403.663	5.08
404.107	5.11
404.551	5.13
404.995	5.15
405.44	5.17
405.884	5.21
406.328	5.24
406.772	5.25
407.216	5.28
407.66	5.3
408.104	5.31
408.547	5.33
408.991	5.35
409.435	5.36
409.879	5.39
410.322	5.42
410.766	5.45
411.209	5.48
411.653	5.51
412.096	5.54
412.54	5.57
412.983	5.59
413.426	5.63
413.869	5.67
414.312	5.7
414.756	5.72
415.199	5.75
415.642	5.77
416.085	5.8
416.527	5.81
416.97	5.82
417.413	5.84
417.856	5.86
418.298	5.85
418.741	5.85
419.184	5.86
419.626	5.87
420.069	5.89
420.511	5.89
420.953	5.89
421.396	5.91
421.838	5.93
422.28	5.94
422.722	5.97
423.164	5.98
423.606	6
424.048	6.02
424.49	6.03
424.932	6.03
425.374	6.04
425.816	6.02
426.258	6.01
426.699	5.99
427.141	5.99
427.582	5.98
428.024	5.99
428.465	6
428.907	6
429.348	5.97
429.789	5.97
430.231	5.98
430.672	6.02
431.113	6.05
431.554	6.08
431.995	6.11
432.436	6.12
432.877	6.12
433.318	6.16
433.759	6.19
434.2	6.23
434.64	6.27
435.081	6.29
435.522	6.31
435.962	6.33
436.403	6.36
436.843	6.39
437.284	6.4
437.724	6.43
438.164	6.41
438.604	6.44
439.045	6.45
439.485	6.45
439.925	6.45
440.365	6.47
440.805	6.46
441.245	6.48
441.685	6.5
442.125	6.54
442.564	6.56
443.004	6.58
443.444	6.58
443.883	6.62
444.323	6.63
444.762	6.66
445.202	6.68
445.641	6.71
446.081	6.74
446.52	6.74
446.959	6.76
447.398	6.8
447.837	6.84
448.276	6.85
448.716	6.87
449.154	6.9
449.593	6.93
450.032	6.94
450.471	6.95
450.91	6.94
451.349	6.96
451.787	6.95
452.226	6.94
452.664	6.93
453.103	6.93
453.541	6.93
453.98	6.92
454.418	6.91
454.856	6.89
455.295	6.88
455.733	6.87
456.171	6.86
456.609	6.85
457.047	6.83
457.485	6.82
457.923	6.81
458.361	6.79
458.798	6.79
459.236	6.77
459.674	6.76
460.111	6.75
460.549	6.76
460.987	6.75
461.424	6.76
461.862	6.77
462.299	6.77
462.736	6.77
463.173	6.78
463.611	6.78
464.048	6.79
464.485	6.79
464.922	6.79
465.359	6.79
465.796	6.8
466.233	6.8
466.67	6.79
467.106	6.8
467.543	6.8
467.98	6.8
468.416	6.8
468.853	6.81
469.29	6.83
469.726	6.84
470.162	6.86
470.599	6.86
471.035	6.86
471.471	6.86
471.907	6.86
472.344	6.87
472.78	6.88
473.216	6.88
473.652	6.87
474.088	6.85
474.523	6.86
474.959	6.86
475.395	6.85
475.831	6.85
476.266	6.86
476.702	6.85
477.138	6.85
477.573	6.85
478.008	6.85
478.444	6.84
478.879	6.85
479.314	6.84
479.75	6.83
480.185	6.82
480.62	6.82
481.055	6.81
481.49	6.81
481.925	6.82
482.36	6.82
482.795	6.81
483.229	6.82
483.664	6.83
484.099	6.81
484.534	6.81
484.968	6.83
485.403	6.83
485.837	6.84
486.271	6.85
486.706	6.85
487.14	6.86
487.574	6.87
488.009	6.89
488.443	6.9
488.877	6.93
489.311	6.96
489.745	6.97
490.179	7.01
490.613	7.04
491.046	7.07
491.48	7.1
491.914	7.14
492.348	7.18
492.781	7.21
493.215	7.26
493.648	7.3
494.082	7.35
494.515	7.4
494.948	7.45
495.382	7.5
495.815	7.56
496.248	7.62
496.681	7.69
497.114	7.75
497.547	7.83
497.98	7.9
498.413	7.97
498.846	8.04
499.279	8.13
499.711	8.2
500.144	8.3
500.577	8.4
501.009	8.48
501.442	8.58
501.874	8.68
502.306	8.78
502.739	8.9
503.171	9.03
503.603	9.14
504.036	9.26
504.468	9.4
504.9	9.52
505.332	9.65
505.764	9.81
506.196	9.96
506.627	10.11
507.059	10.27
507.491	10.42
507.923	10.59
508.354	10.77
508.786	10.94
509.217	11.12
509.649	11.3
510.08	11.48
510.512	11.66
510.943	11.84
511.374	12.03
511.805	12.24
512.237	12.43
512.668	12.62
513.099	12.82
513.53	13.03
513.961	13.24
514.391	13.45
514.822	13.67
515.253	13.89
515.684	14.11
516.114	14.32
516.545	14.53
516.975	14.75
517.406	14.97
517.836	15.18
518.267	15.4
518.697	15.61
519.127	15.8
519.558	16
519.988	16.21
520.418	16.41
520.848	16.62
521.278	16.82
521.708	17.12
522.138	17.31
522.567	17.49
522.997	17.67
523.427	17.85
523.857	18.03
524.286	18.2
524.716	18.37
525.145	18.52
525.575	18.67
526.004	18.83
526.433	18.86
526.863	19
527.292	19.15
527.721	19.26
528.15	19.38
528.579	19.5
529.008	19.62
529.437	19.72
529.866	19.83
530.295	19.93
530.724	20.03
531.152	20.13
531.581	20.23
532.01	20.31
532.438	20.41
532.867	20.49
533.295	20.56
533.723	20.61
534.152	20.68
534.58	20.74
535.008	20.78
535.436	20.83
535.865	20.86
536.293	20.88
536.721	20.91
537.149	20.95
537.576	20.98
538.004	21.03
538.432	21.05
538.86	21.08
539.287	21.11
539.715	21.15
540.143	21.18
540.57	21.2
540.998	21.22
541.425	21.26
541.852	21.27
542.28	21.3
542.707	21.32
543.134	21.35
543.561	21.38
543.988	21.4
544.415	21.43
544.842	21.44
545.269	21.49
545.696	21.53
546.123	21.55
546.549	21.58
546.976	21.61
547.403	21.64
547.829	21.68
548.256	21.71
548.682	21.73
549.108	21.76
549.535	21.78
549.961	21.78
550.387	21.78
550.813	21.81
551.24	21.83
551.666	21.82
552.092	21.81
552.518	21.81
552.943	21.8
553.369	21.79
553.795	21.78
554.221	21.77
554.646	21.75
555.072	21.74
555.498	21.72
555.923	21.68
556.349	21.66
556.774	21.63
557.199	21.6
557.625	21.57
558.05	21.54
558.475	21.49
558.9	21.45
559.325	21.41
559.75	21.36
560.175	21.31
560.6	21.25
561.025	21.19
561.449	21.13
561.874	21.04
562.299	20.98
562.723	20.89
563.148	20.8
563.572	20.7
563.997	20.61
564.421	20.51
564.846	20.41
565.27	20.31
565.694	20.21
566.118	20.1
566.542	20
566.966	19.87
567.39	19.77
567.814	19.66
568.238	19.55
568.662	19.44
569.086	19.32
569.509	19.22
569.933	19.11
570.357	19
570.78	18.89
571.204	18.79
571.627	18.7
572.05	18.6
572.474	18.52
572.897	18.43
573.32	18.33
573.743	18.25
574.166	18.15
574.589	18.06
575.012	17.99
575.435	17.92
575.858	17.85
576.281	17.78
576.704	17.71
577.126	17.64
577.549	17.56
577.972	17.52
578.394	17.46
578.817	17.41
579.239	17.36
579.661	17.31
580.084	17.25
580.506	17.19
580.928	17.14
581.35	17.09
581.772	17.03
582.194	17
582.616	16.93
583.038	16.88
583.46	16.85
583.882	16.81
584.303	16.75
584.725	16.7
585.147	16.66
585.568	16.61
585.99	16.56
586.411	16.51
586.833	16.47
587.254	16.42
587.675	16.39
588.096	16.34
588.518	16.29
588.939	16.27
589.36	16.24
589.781	16.21
590.202	16.18
590.623	16.16
591.043	16.13
591.464	16.1
591.885	16.08
592.305	16.05
592.726	16.04
593.147	16.01
593.567	15.98
593.987	15.96
594.408	15.93
594.828	15.92
595.248	15.89
595.669	15.87
596.089	15.85
596.509	15.83
596.929	15.79
597.349	15.75
597.769	15.72
598.189	15.69
598.608	15.67
599.028	15.64
599.448	15.6
599.867	15.57
600.287	15.54
600.706	15.51
601.126	15.47
601.545	15.43
601.965	15.4
602.384	15.37
602.803	15.33
603.222	15.28
603.641	15.24
604.061	15.2
604.48	15.15
604.898	15.1
605.317	15.04
605.736	14.99
606.155	14.95
606.574	14.89
606.992	14.82
607.411	14.77
607.829	14.68
608.248	14.61
608.666	14.55
609.085	14.49
609.503	14.43
609.921	14.37
610.339	14.31
610.758	14.24
611.176	14.18
611.594	14.13
612.012	14.06
612.43	14.03
612.847	13.97
613.265	13.9
613.683	13.86
614.101	13.82
614.518	13.77
614.936	13.72
615.353	13.66
615.771	13.63
616.188	13.58
616.606	13.54
617.023	13.49
617.44	13.46
617.857	13.44
618.274	13.39
618.691	13.34
619.108	13.29
619.525	13.26
619.942	13.23
620.359	13.19
620.776	13.17
621.192	13.14
621.609	13.12
622.026	13.08
622.442	13.05
622.859	13.04
623.275	13.02
623.691	13.01
624.108	13
624.524	12.98
624.94	12.97
625.356	12.96
625.772	12.94
626.188	12.92
626.604	12.91
627.02	12.9
627.436	12.88
627.852	12.86
628.268	12.84
628.683	12.83
629.099	12.82
629.514	12.8
629.93	12.79
630.345	12.78
630.761	12.76
631.176	12.75
631.591	12.72
632.007	12.7
632.422	12.67
632.837	12.63
633.252	12.59
633.667	12.53
634.082	12.48
634.497	12.42
634.911	12.35
635.326	12.29
635.741	12.23
636.155	12.15
636.57	12.08
636.984	12.01
637.399	11.93
637.813	11.85
638.228	11.77
638.642	11.67
639.056	11.58
639.47	11.5
639.884	11.41
640.298	11.31
640.712	11.21
641.126	11.12
641.54	11.03
641.954	10.92
642.368	10.82
642.781	10.73
643.195	10.65
643.609	10.56
644.022	10.47
644.436	10.39
644.849	10.31
645.262	10.23
645.676	10.15
646.089	10.09
646.502	10.03
646.915	9.98
647.328	9.92
647.741	9.85
648.154	9.81
648.567	9.76
648.98	9.72
649.393	9.67
649.805	9.65
650.218	9.62
650.631	9.59
651.043	9.55
651.456	9.52
651.868	9.47
652.28	9.44
652.693	9.41
653.105	9.38
653.517	9.34
653.929	9.3
654.341	9.24
654.753	9.18
655.165	9.12
655.577	9.07
655.989	9.01
656.401	8.96
656.813	8.89
657.224	8.81
657.636	8.74
658.047	8.68
658.459	8.59
658.87	8.52
659.282	8.44
659.693	8.37
660.104	8.28
660.515	8.21
660.926	8.12
661.338	8.05
661.749	7.99
662.159	7.9
662.57	7.84
662.981	7.78
663.392	7.72
663.803	7.67
664.213	7.61
664.624	7.56
665.035	7.51
665.445	7.48
665.855	7.43
666.266	7.38
666.676	7.37
667.086	7.33
667.497	7.3
667.907	7.28
668.317	7.25
668.727	7.23
669.137	7.21
669.547	7.2
669.956	7.18
670.366	7.19
670.776	7.19
671.186	7.18
671.595	7.18
672.005	7.18
672.414	7.18
672.824	7.19
673.233	7.2
673.642	7.21
674.052	7.23
674.461	7.24
674.87	7.25
675.279	7.26
675.688	7.28
676.097	7.3
676.506	7.34
676.915	7.36
677.323	7.4
677.732	7.43
678.141	7.47
678.549	7.5
678.958	7.55
679.366	7.6
679.775	7.66
680.183	7.72
680.592	7.8
681	7.88
681.408	7.96
681.816	8.05
682.224	8.16
682.632	8.27
683.04	8.39
683.448	8.53
683.856	8.69
684.264	8.84
684.671	9.01
685.079	9.2
685.487	9.41
685.894	9.64
686.302	9.9
686.709	10.17
687.116	10.44
687.524	10.74
687.931	11.05
688.338	11.38
688.745	11.72
689.152	12.08
689.559	12.46
689.966	12.84
690.373	13.22
690.78	13.61
691.187	14.01
691.593	14.43
692	14.84
692.407	15.24
692.813	15.67
693.22	16.08
693.626	16.51
694.032	16.92
694.439	17.34
694.845	17.76
695.251	18.18
695.657	18.58
696.063	18.99
696.469	19.38
696.875	19.79
697.281	20.18
697.687	20.56
698.093	20.93
698.498	21.29
698.904	21.66
699.31	22.01
699.715	22.34
700.12	22.68
700.526	23.02
700.931	23.37
701.337	23.69
701.742	24
702.147	24.31
702.552	24.61
702.957	24.89
703.362	25.17
703.767	25.45
704.172	25.73
704.577	26.01
704.981	26.25
705.386	26.49
705.791	26.74
706.195	26.98
706.6	27.22
707.004	27.45
707.408	27.71
707.813	27.93
708.217	28.14
708.621	28.36
709.025	28.57
709.43	28.77
709.834	28.98
710.237	29.18
710.641	29.36
711.045	29.55
711.449	29.76
711.853	29.95
712.256	30.12
712.66	30.31
713.064	30.47
713.467	30.64
713.87	30.81
714.274	30.97
714.677	31.13
715.08	31.3
715.484	31.46
715.887	31.59
716.29	31.72
716.693	31.89
717.096	32.03
717.499	32.18
717.901	32.33
718.304	32.48
718.707	32.6
719.109	32.72
719.512	32.85
719.915	32.98
720.317	33.1
720.719	33.19
721.122	33.27
721.524	33.38
721.926	33.48
722.328	33.56
722.731	33.64
723.133	33.75
723.535	33.86
723.937	33.94
724.338	34.02
724.74	34.1
725.142	34.23
725.544	34.32
725.945	34.42
726.347	34.48
726.748	34.57
727.15	34.62
727.551	34.69
727.952	34.74
728.354	34.8
728.755	34.86
729.156	34.93
729.557	34.96
729.958	35.01
730.359	35.03
730.76	35.12
731.161	35.14
731.562	35.21
731.962	35.24
732.363	35.29
732.763	35.36
733.164	35.38
733.564	35.42
733.965	35.44
734.365	35.49
734.766	35.52
735.166	35.54
735.566	35.58
735.966	35.63
736.366	35.64
736.766	35.67
737.166	35.67
737.566	35.71
737.966	35.73
738.365	35.76
738.765	35.77
739.165	35.78
739.564	35.8
739.964	35.83
740.363	35.82
740.763	35.87
741.162	35.86
741.561	35.87
741.96	35.87
742.36	35.9
742.759	35.92
743.158	35.96
743.557	35.98
743.955	35.99
744.354	36.01
744.753	36.03
745.152	36.04
745.55	36.08
745.949	36.11
746.348	36.17
746.746	36.19
747.144	36.21
747.543	36.22
747.941	36.27
748.339	36.28
748.737	36.28
749.136	36.29
749.534	36.28
749.932	36.29
750.33	36.29
750.727	36.27
751.125	36.27
751.523	36.24
751.921	36.23
752.318	36.21
752.716	36.2
753.113	36.22
753.511	36.22
753.908	36.24
754.305	36.25
754.703	36.22
755.1	36.21
755.497	36.21
755.894	36.19
756.291	36.19
756.688	36.18
757.085	36.17
757.482	36.16
757.878	36.12
758.275	36.1
758.672	36.09
759.068	36.11
759.465	36.11
759.861	36.1
760.258	36.11
760.654	36.1
761.05	36.09
761.447	36.08
761.843	36.06
762.239	36.07
762.635	36.06
763.031	36.07
763.427	36.06
763.822	36.05
764.218	36.07
764.614	36.09
765.01	36.07
765.405	36.08
765.801	36.09
766.196	36.1
766.592	36.11
766.987	36.1
767.382	36.1
767.778	36.11
768.173	36.12
768.568	36.1
768.963	36.11
769.358	36.13
769.753	36.13
770.148	36.13
770.542	36.15
770.937	36.16
771.332	36.15
771.726	36.13
772.121	36.12
772.515	36.13
772.91	36.13
773.304	36.12
773.699	36.11
774.093	36.1
774.487	36.1
774.881	36.1
775.275	36.08
775.669	36.08
776.063	36.08
776.457	36.09
776.851	36.08
777.245	36.06
777.638	36.05
778.032	36.07
778.425	36.09
778.819	36.08
779.212	36.1
779.606	36.11
779.999	36.13
780.392	36.13
780.786	36.15
781.179	36.15
781.572	36.18
781.965	36.2
782.358	36.21
782.751	36.23
783.143	36.26
783.536	36.25
783.929	36.25
784.322	36.26
784.714	36.26
785.107	36.26
785.499	36.26
785.891	36.25
786.284	36.24
786.676	36.23
787.068	36.21
787.46	36.18
787.852	36.2
788.245	36.21
788.636	36.21
789.028	36.22
789.42	36.2
789.812	36.2
790.204	36.22
790.595	36.24
790.987	36.24
791.378	36.24
791.77	36.26
792.161	36.26
792.553	36.26
792.944	36.26
793.335	36.29
793.726	36.29
794.117	36.3
794.508	36.27
794.899	36.26
795.29	36.26
795.681	36.26
796.072	36.29
796.463	36.28
796.853	36.27
797.244	36.27
797.634	36.26
798.025	36.31
798.415	36.31
798.806	36.33
799.196	36.32
799.586	36.33
799.976	36.34
800.366	36.32
800.756	36.33
801.146	36.35
801.536	36.38
801.926	36.39
802.316	36.38
802.706	36.41
803.095	36.41
803.485	36.43
803.874	36.43
804.264	36.43
804.653	36.44
805.043	36.44
805.432	36.45
805.821	36.44
806.21	36.43
806.599	36.44
806.988	36.44
807.377	36.45
807.766	36.45
808.155	36.46
808.544	36.47
808.933	36.49
809.321	36.5
809.71	36.49
810.098	36.49
810.487	36.48
810.875	36.5
811.264	36.52
811.652	36.53
812.04	36.55
812.428	36.59
812.816	36.59
813.204	36.59
813.592	36.62
813.98	36.63
814.368	36.65
814.756	36.67
815.144	36.66
815.531	36.64
815.919	36.64
816.306	36.63
816.694	36.59
817.081	36.59
817.469	36.6
817.856	36.58
818.243	36.56
818.63	36.55
819.017	36.54
819.404	36.54
819.791	36.55
820.178	36.54
820.565	36.52
820.952	36.52
821.339	36.52
821.725	36.52
822.112	36.54
822.498	36.56
822.885	36.58
823.271	36.56
823.657	36.53
824.044	36.52
824.43	36.52
824.816	36.51
825.202	36.52
825.588	36.5
825.974	36.48
826.36	36.44
826.746	36.4
827.132	36.38
827.517	36.38
827.903	36.4
828.289	36.41
828.674	36.39
829.06	36.36
829.445	36.32
829.83	36.3
830.216	36.29
830.601	36.28
830.986	36.28
831.371	36.25
831.756	36.25
832.141	36.2
832.526	36.19
832.911	36.17
833.295	36.16
833.68	36.16
834.065	36.14
834.449	36.12
834.834	36.11
835.218	36.11
835.603	36.1
835.987	36.07
836.371	36.06
836.755	36.01
837.139	36.01
837.524	36
837.908	36
838.291	36.01
838.675	36
839.059	35.99
839.443	35.94
839.827	35.93
840.21	35.91
840.594	35.91
840.977	35.9
841.361	35.88
841.744	35.84
842.127	35.81
842.511	35.79
842.894	35.78
843.277	35.76
843.66	35.76
844.043	35.77
844.426	35.76
844.809	35.76
845.191	35.78
845.574	35.78
845.957	35.8
846.339	35.82
846.722	35.82
847.104	35.82
847.487	35.81
847.869	35.81
848.252	35.82
848.634	35.82
849.016	35.84
849.398	35.84
849.78	35.83
850.162	35.81
850.544	35.8
850.926	35.81
851.307	35.8
851.689	35.83
852.071	35.83
852.452	35.82
852.834	35.82
853.215	35.8
853.597	35.8
853.978	35.81
854.359	35.83
854.741	35.83
855.122	35.83
855.503	35.83
855.884	35.81
856.265	35.81
856.646	35.8
857.026	35.82
857.407	35.81
857.788	35.8
858.169	35.82
858.549	35.78
858.93	35.78
859.31	35.78
859.69	35.79
860.071	35.81
860.451	35.81
860.831	35.83
861.211	35.8
861.591	35.8
861.971	35.8
862.351	35.8
862.731	35.82
863.111	35.8
863.491	35.8
863.87	35.78
864.25	35.78
864.629	35.78
865.009	35.77
865.388	35.78
865.768	35.79
866.147	35.79
866.526	35.78
866.905	35.79
867.284	35.82
867.663	35.8
868.042	35.8
868.421	35.81
868.8	35.82
869.179	35.83
869.558	35.84
869.936	35.83
870.315	35.82
870.693	35.82
871.072	35.83
871.45	35.83
871.828	35.85
872.207	35.86
872.585	35.86
872.963	35.86
873.341	35.87
873.719	35.86
874.097	35.85
874.475	35.88
874.853	35.88
875.23	35.88
875.608	35.89
875.986	35.9
876.363	35.91
876.741	35.92
877.118	35.91
877.495	35.89
877.873	35.92
878.25	35.94
878.627	35.94
879.004	35.94
879.381	35.94
879.758	35.92
880.135	35.9
880.512	35.89
880.889	35.88
881.265	35.88
881.642	35.89
882.019	35.88
882.395	35.86
882.772	35.86
883.148	35.83
883.524	35.82
883.901	35.82
884.277	35.82
884.653	35.78
885.029	35.76
885.405	35.75
885.781	35.72
886.157	35.71
886.532	35.71
886.908	35.7
887.284	35.7
887.659	35.68
888.035	35.66
888.411	35.64
888.786	35.65
889.161	35.65
889.537	35.63
889.912	35.62
890.287	35.59
890.662	35.57
891.037	35.56
891.412	35.53
891.787	35.5
892.162	35.49
892.536	35.47
892.911	35.44
893.286	35.41
893.66	35.41
894.035	35.4
894.409	35.4
894.784	35.39
895.158	35.38
895.532	35.4
895.906	35.41
896.281	35.42
896.655	35.42
897.029	35.42
897.402	35.44
897.776	35.45
898.15	35.47
898.524	35.49
898.898	35.5
899.271	35.52
899.645	35.54
900.018	35.58
900.392	35.58
900.765	35.61
901.138	35.63
901.511	35.64
901.884	35.65
902.258	35.67
902.631	35.66
903.003	35.69
903.376	35.68
903.749	35.67
904.122	35.66
904.495	35.69
904.867	35.71
905.24	35.74
905.612	35.75
905.985	35.74
906.357	35.73
906.729	35.76
907.102	35.73
907.474	35.75
907.846	35.76
908.218	35.76
908.59	35.75
908.962	35.74
909.334	35.72
909.705	35.73
910.077	35.76
910.449	35.76
910.82	35.75
911.192	35.75
911.563	35.73
911.935	35.73
912.306	35.74
912.677	35.76
913.048	35.76
913.419	35.77
913.79	35.77
914.161	35.75
914.532	35.73
914.903	35.73
915.274	35.76
915.645	35.78
916.015	35.79
916.386	35.77
916.756	35.76
917.127	35.79
917.497	35.8
917.868	35.8
918.238	35.79
918.608	35.82
918.978	35.82
919.348	35.84
919.718	35.82
920.088	35.83
920.458	35.86
920.828	35.86
921.198	35.85
921.567	35.86
921.937	35.88
922.306	35.9
922.676	35.91
923.045	35.9
923.415	35.88
923.784	35.91
924.153	35.93
924.522	35.94
924.891	35.94
925.26	35.95
925.629	35.98
925.998	35.97
926.367	36
926.736	36.01
927.104	36.04
927.473	36.02
927.842	35.99
928.21	36.01
928.578	36.02
928.947	36.04
929.315	36.02
929.683	35.99
930.051	35.95
930.42	35.96
930.788	35.95
931.156	35.94
931.523	35.94
931.891	35.99
932.259	35.98
932.627	35.99
932.994	35.99
933.362	36.02
933.729	36.04
934.097	36.08
934.464	36.06
934.831	36.1
935.199	36.14
935.566	36.17
935.933	36.19
936.3	36.18
936.667	36.15
937.034	36.17
937.401	36.19
937.767	36.21
938.134	36.24
938.501	36.3
938.867	36.33
939.234	36.33
939.6	36.38
939.967	36.4
940.333	36.47
940.699	36.58
941.065	36.56
941.431	36.62
941.798	36.62
942.163	36.64
942.529	36.61
942.895	36.62
943.261	36.64
943.627	36.63
943.992	36.61
944.358	36.59
944.723	36.52
945.089	36.51
945.454	36.5
945.82	36.52
946.185	36.52
946.55	36.48
946.915	36.46
947.28	36.45
947.645	36.47
948.01	36.47
948.375	36.44
948.74	36.41
949.104	36.4
949.469	36.36
949.834	36.34
950.198	36.29
950.562	36.28
950.927	36.26
951.291	36.21
951.655	36.13
952.02	36.05
952.384	35.99
952.748	35.97
953.112	35.96
953.476	35.9
953.839	35.84
954.203	35.79
954.567	35.73
954.931	35.67
955.294	35.68
955.658	35.74
956.021	35.73
956.385	35.73
956.748	35.73
957.111	35.67
957.474	35.71
957.837	35.68
958.2	35.72
958.563	35.76
958.926	35.78
959.289	35.78
959.652	35.68
960.015	35.67
960.377	35.69
960.74	35.7
961.102	35.75
961.465	35.76
961.827	35.78
962.189	35.78
962.552	35.73
962.914	35.75
963.276	35.75
963.638	35.77
964	35.76
964.362	35.78
964.724	35.73
965.085	35.66
965.447	35.62
965.809	35.62
966.17	35.61
966.532	35.68
966.893	35.68
967.255	35.68
967.616	35.7
967.977	35.72
968.338	35.7
968.699	35.72
969.061	35.73
969.421	35.74
969.782	35.77
970.143	35.75
970.504	35.74
970.865	35.75
971.225	35.71
971.586	35.68
971.946	35.66
972.307	35.66
972.667	35.67
973.027	35.73
973.388	35.74
973.748	35.73
974.108	35.82
974.468	35.84
974.828	35.86
975.188	35.9
975.548	35.95
975.907	36
976.267	36
976.627	36.02
976.986	36.03
977.346	36.04
977.705	36.08
978.064	36.09
978.424	36.12
978.783	36.07
979.142	36.06
979.501	36.09
979.86	36.09
980.219	36.07
980.578	36.1
980.937	36.15
981.296	36.12
981.654	36.09
982.013	36.08
982.371	36.09
982.73	36.09
983.088	36.11
983.447	36.09
983.805	36.12
984.163	36.15
984.521	36.17
984.879	36.06
985.237	36.18
985.595	36.28
985.953	36.24
986.311	36.21
986.669	36.23
987.026	36.27
987.384	36.33
987.741	36.37
988.099	36.41
988.456	36.41
988.814	36.56
989.171	36.57
989.528	36.57
989.885	36.69
990.242	36.67
990.599	36.76
990.956	36.82
991.313	36.8
991.67	36.77
992.027	36.87
992.383	36.97
992.74	37
993.096	37.02
993.453	37
993.809	36.93
994.165	37.03
994.522	37.07
994.878	37.12
995.234	37.23
995.59	37.29
995.946	37.3
996.302	37.28
996.658	37.42
997.013	37.47
997.369	37.5
997.725	37.62
998.08	37.67
998.436	37.64
998.791	37.68
999.147	37.55
999.502	37.65
999.857	37.58
1000.212	37.6
1000.567	37.5
1000.922	37.59
1001.277	37.65
1001.632	37.64
1001.987	37.71
1002.342	37.73
1002.696	37.73
1003.051	38.07
1003.406	38.22
1003.76	38.32
1004.114	38.42
1004.469	38.59
1004.823	38.85
1005.177	38.85
1005.531	38.95
1005.885	38.94
1006.239	39.03
1006.593	39.16
1006.947	39.12
1007.301	39.02
1007.655	39.06
1008.008	39.17
1008.362	39.17
1008.715	38.97
1009.069	39.07
1009.422	39.13
1009.776	39.26
1010.129	39.41
1010.482	39.36
1010.835	39.34
1011.188	39.48
1011.541	39.57
1011.894	39.52
1012.247	39.6
1012.6	39.75
1012.952	39.78
1013.305	39.91
1013.657	40.12
1014.01	40.3
1014.362	40.44
1014.715	40.61
1015.067	40.69
1015.419	40.73
1015.771	41.05
1016.123	40.97
1016.475	41.06
1016.827	41.25
1017.179	41.29
1017.531	41.37
1017.883	41.2
1018.234	41.27
1018.586	41.28
1018.938	41.41
1019.289	41.55
1019.64	41.41
1019.992	41.57
1020.343	41.35
1020.694	41.48
1021.045	41.45
1021.396	41.31
1021.747	41.58
1022.098	41.86
1022.449	42
1022.8	41.97
1023.151	41.95
1023.501	42.15
1023.852	42.28
1024.202	42.46
1024.553	42.36
1024.903	42.69
1025.253	42.81
1025.604	42.88
1025.954	42.59
1026.304	42.58
1026.654	42.74
1027.004	42.98
1027.354	42.91
1027.703	42.84
1028.053	43.13
1028.403	43.28
1028.753	43.07
1029.102	43.35
1029.452	43.53
1029.801	44
1030.15	44.12
1030.499	44.16
897.758	1066.41
901.051	1072.01
904.343	1067.03
907.636	1085.71
910.928	1056.94
914.22	1054.21
917.511	1040.57
920.803	992.2
924.094	989.58
927.384	964.84
930.675	931.37
933.965	924.63
937.255	866.58
940.544	834.35
943.834	795.7
947.123	788.92
950.411	742.06
953.7	727.15
956.988	689.4
960.276	660.26
963.563	649.7
966.851	623.82
970.138	618.84
973.424	601.62
976.711	603.01
979.997	573.36
983.283	568.14
986.568	557.41
989.853	540.8
993.138	529.91
996.423	511.98
999.708	497.91
1002.992	491.35
1006.275	468.84
1009.559	465.96
1012.842	449.19
1016.125	436.54
1019.408	428.68
1022.69	424.8
1025.972	415.11
1029.254	405.51
1032.536	396.44
1035.817	390.14
1039.098	385.52
1042.379	377.71
1045.659	372.5
1048.939	363.97
1052.219	356.36
1055.498	350.97
1058.778	341.59
1062.057	335.19
1065.335	331.64
1068.614	328.32
1071.892	324.02
1075.17	314.09
1078.447	308.35
1081.724	305.33
1085.001	303.15
1088.278	297.03
1091.554	291.65
1094.83	292.31
1098.106	289.71
1101.382	286.57
1104.657	284.35
1107.932	278.99
1111.206	281.02
1114.481	274.45
1117.755	272.93
1121.029	269.89
1124.302	269.93
1127.575	265.75
1130.848	262
1134.121	259
1137.393	257.94
1140.665	253.18
1143.937	251.05
1147.208	248.78
1150.48	248.06
1153.75	243.82
1157.021	240.35
1160.291	240.4
1163.561	236.65
1166.831	236.54
1170.101	234.48
1173.37	234.14
1176.639	233.84
1179.907	232.54
1183.176	229.39
1186.444	229.48
1189.711	229.13
1192.979	228.89
1196.246	227.31
1199.513	228.64
1202.78	227.33
1206.046	227.12
1209.312	225.25
1212.578	225.98
1215.843	227.46
1219.108	226.53
1222.373	230.47
1225.638	232.13
1228.902	235.52
1232.166	235.24
1235.43	237.05
1238.693	240.2
1241.956	241.91
1245.219	245.64
1248.482	245.65
1251.744	246.11
1255.006	246.68
1258.268	241.42
1261.529	239.58
1264.79	237.79
1268.051	235.99
1271.312	232.78
1274.572	230.13
1277.832	228.09
1281.092	223.8
1284.351	221.85
1287.61	221.79
1290.869	218.4
1294.128	216.68
1297.386	216.26
1300.644	214.54
1303.902	216.01
1307.159	215.33
1310.416	214.53
1313.673	213.62
1316.93	216.01
1320.186	215.46
1323.442	215.86
1326.697	219.56
1329.953	220.69
1333.208	221.7
1336.463	223.8
1339.717	223.36
1342.972	226.46
1346.226	229.38
1349.479	230.28
1352.733	231.35
1355.986	233.36
1359.238	232.89
1362.491	233.72
1365.743	235.85
1368.995	236.31
1372.247	236.51
1375.498	236.76
1378.749	238.06
1382	235.38
1385.251	236.28
1388.501	235.05
1391.751	235.53
1395	234.41
1398.25	232.91
1401.499	231.32
1404.748	230.7
1407.996	228.75
1411.244	227.94
1414.492	226.32
1417.74	223.97
1420.987	220.68
1424.234	220.43
1427.481	217.45
1430.728	218.2
1433.974	215.9
1437.22	214.15
1440.465	213.49
1443.711	210.94
1446.956	209.42
1450.201	207.38
1453.445	205.65
1456.689	204.66
1459.933	200.89
1463.177	199.34
1466.42	196.38
1469.663	194.1
1472.906	192.74
1476.148	187.72
1479.391	185.77
1482.633	184.38
1485.874	181.61
1489.115	180.38
1492.356	178
1495.597	177.1
1498.838	175.06
1502.078	173.52
1505.318	173.04
1508.557	172.68
1511.797	172.52
1515.036	170.92
1518.274	170.89
1521.513	169.45
1524.751	168.95
1527.989	168.45
1531.227	168.29
1534.464	168
1537.701	167.26
1540.938	166.52
1544.174	164.24
1547.41	164.28
1550.646	163.5
1553.882	162.79
1557.117	160.85
1560.352	159.58
1563.587	159.87
1566.821	158.68
1570.055	157.44
1573.289	155.89
1576.523	155.76
1579.756	154.99
1582.989	153.77
1586.222	153.48
1589.454	153.19
1592.686	154.09
1595.918	153.74
1599.15	152.62
1602.381	153.26
1605.612	152.72
1608.843	152.57
1612.073	153.17
1615.303	153.7
1618.533	153.91
1621.762	153.28
1624.992	153.52
1628.221	153.05
1631.449	152.57
1634.678	152.97
1637.906	153.35
1641.134	153.27
1644.361	153.49
1647.588	153.62
1650.815	153.2
1654.042	153.01
1657.269	154.27
1660.495	153.81
1663.72	153.2
1666.946	154.37
1670.171	154.56
1673.396	154.52
1676.621	154.1
1679.845	154.99
1683.069	154.39
1686.293	155.61
1689.517	156.2
1692.74	156.06
1695.963	156.31
1699.185	158.14
1702.408	158.05
1705.63	158.27
1708.852	158.72
1712.073	159.54
1715.294	159.29
1718.515	161.44
1721.736	160.8
1724.956	160.96
1728.176	161.14
1731.396	162.44
1734.616	161.52
1737.835	162.23
1741.054	161.6
1744.272	161.45
1747.491	163.33
1750.709	163.52
1753.927	162.35
1757.144	162.37
1760.361	163.05
1763.578	163.61
1766.795	163.13
1770.011	165.07
1773.227	164.76
1776.443	166.63
1779.658	167.55
1782.874	167.4
1786.089	167.79
1789.303	168.37
1792.518	170.34
1795.732	170.08
1798.945	171.35
1802.159	171.44
1805.372	171.4
1808.585	173.95
1811.797	174.19
1815.01	174.5
1818.222	175.21
1821.434	178.19
1824.645	178.1
1827.856	180.91
1831.067	182.5
1834.278	182.78
1837.488	184.3
1840.698	185.75
1843.908	184.65
1847.117	185.63
1850.326	186.94
1853.535	186.31
1856.744	187.7
1859.952	188.69
1863.16	187.3
1866.368	186.28
1869.575	187.92
1872.782	185.08
1875.989	185.16
1879.196	185.35
1882.402	184.45
1885.608	184.96
1888.814	185.49
1892.019	184.96
1895.224	184.31
1898.429	183.33
1901.634	184.67
1904.838	184.6
1908.042	187.03
1911.246	186.59
1914.449	186.65
1917.652	187.37
1920.855	187.36
1924.058	187.1
1927.26	186.52
1930.462	187.2
1933.664	189.08
1936.865	187.19
1940.066	186.55
1943.267	185.53
1946.467	186.74
1949.668	187.07
1952.868	189.26
1956.067	189.01
1959.267	190.16
1962.466	190.33
1965.665	189.82
1968.863	190.09
1972.061	193.93
1975.259	195.97
1978.457	196.7
1981.654	198.08
1984.852	199.29
1988.048	198
1991.245	200.13
1994.441	201.44
1997.637	204.39
2000.833	207.46
2004.028	210.7
2007.223	211.07
2010.418	212.74
2013.613	217.72
2016.807	219.12
2020.001	220.99
2023.194	225.36
2026.388	230.39
2029.581	235.55
2032.774	235.86
2035.966	240.33
2039.158	240.8
2042.35	245.15
2045.542	246.78
2048.733	250.2
2051.924	254.33
2055.115	257.89
2058.306	257.89
2061.496	259.88
2064.686	259.53
2067.875	264.57
2071.065	266.14
2074.254	264.93
2077.442	268.57
2080.631	270.27
2083.819	272.32
2087.007	271.73
2090.195	276.3
2093.382	278.42
2096.569	276.75
2099.756	281.98
2102.942	282.7
2106.128	284.02
2109.314	290.22
2112.5	288.81
2115.685	294.91
2118.87	296.2
2122.055	301.65
2125.239	302.61
2128.424	306.02
2131.608	309.13
2134.791	313.39
2137.974	314.87
2141.157	316.98
2144.34	317.72
2147.523	323.34
2150.705	320.89
2153.887	324.89
2157.068	326.34
2160.25	323.07
2163.431	324.74
2166.611	329.02
2169.792	333.84
2172.972	337.44
2176.152	339.84
2179.331	344.4
2182.511	348.97
2185.69	353.03
2188.868	358.61
2192.047	358.59
2195.225	369.57
2198.403	378.8
2201.58	384.56
2204.758	393.79
2207.935	400.03
2211.111	408.88
2214.288	413.38
2217.464	414.49
2220.64	421.13
2223.815	425.21
2226.991	443.68
2230.166	444.78
2233.34	451.23
2236.515	457.93
2239.689	457.86
2242.863	461.93
2246.036	471.78
2249.209	469.09
2252.382	479.3
2255.555	492.03
2258.727	495.98
2261.9	499
2265.071	503.9
2268.243	514.5
2271.414	521.63
2274.585	531.17
2277.756	535.2
2280.926	541.09
2284.096	555.31
2287.266	564.75
2290.436	571.98
2293.605	581.78
2296.774	598.94
2299.942	618.12
2303.111	620.27
2306.279	632.67
2309.447	643.7
2312.614	662.1
2315.781	680.13
2318.948	706.62
2322.115	697.32
2325.281	735.79
2328.447	726.52
2331.613	752.9
2334.779	744.06
2337.944	778.32
2341.109	785.99
2344.274	807.01
2347.438	834.6
2350.602	834.57
2353.766	864.22
2356.929	876.8
2360.092	868.76
2363.255	928.8
2366.418	929.82
2369.58	945.65
2372.742	1006.23
2375.904	1031.93
2379.066	1024.66
2382.227	1004.25
2385.388	1091.11
2388.548	1088.23
2391.709	1100.93
2394.869	1228.59
2398.029	1177.72
2401.188	1212.57
2404.347	1206.58
2407.506	1182.23
2410.665	1216.3
2413.823	1288.11
2416.981	1365.36
2420.139	1322.77
2423.296	1306.49
2426.453	1371.2
2429.61	1309.94
2432.767	1367.62
2435.923	1351.96
2439.079	1486.69
2442.235	1510.32
2445.391	1493.36
2448.546	1483.22
2451.701	1443.59
2454.855	1437.33
2458.009	1538.55
2461.163	1592.8
2464.317	1657.43
2467.471	1699.09
2470.624	1695.79
2473.777	1646.06
2476.929	1594.23
2480.082	1549.82
2483.234	1533.52
2486.385	1608.19
2489.537	1616.82
2492.688	1667.87
2495.839	1622.2
2498.989	1587.4
2502.14	1591.73
2505.29	1610.49
2508.439	1632.62
2511.589	1630.57
2514.738	1789.16
2517.887	1748.44
2521.035	1841.85
2524.183	1860.4
2527.331	1870.18
2530.479	1860.4
2533.627	1874.61
