Data from N_3_DEC_ON_6N_Splice17_14-26-09-894.txt Node
Date: Sat Mar 07 14:26:09 EST 2020
User: sa697716
Spectrometer: NQ5500242
Trigger mode: 0
Integration Time (sec): 1.450000E-1
Scans to average: 20
Nonlinearity correction enabled: false
Boxcar width: 5
Storing dark spectrum: false
XAxis mode: Wavelengths
Number of Pixels in Spectrum: 512
>>>>>Begin Spectral Data<<<<<
187.83	159.27
188.298	149.47
188.766	138.1
189.233	126.9
189.701	133.22
190.169	151.6
190.636	194.3
191.104	297.41
191.571	301.24
192.039	258.56
192.506	86.83
192.974	151.23
193.441	132.23
193.908	60.97
194.375	102.17
194.842	43.03
195.31	81.53
195.777	295.95
196.244	70.39
196.711	65.51
197.177	67.73
197.644	66.31
198.111	65.98
198.578	65.78
199.045	66.62
199.511	66.36
199.978	66.83
200.445	66.77
200.911	66.89
201.378	67.43
201.844	67.33
202.31	66.92
202.777	66.89
203.243	66.71
203.709	66.55
204.176	65.76
204.642	65.31
205.108	64.9
205.574	64.55
206.04	63.7
206.506	62.79
206.972	62.62
207.438	61.58
207.903	60.84
208.369	59.54
208.835	58.38
209.301	56.99
209.766	55.24
210.232	53.45
210.697	51.91
211.163	50.62
211.628	49.13
212.094	47.63
212.559	46.53
213.024	45.15
213.49	44.04
213.955	42.9
214.42	41.95
214.885	40.7
215.35	39.27
215.815	37.05
216.28	34.24
216.745	31.39
217.21	28.43
217.675	25.74
218.14	23.43
218.604	21.3
219.069	19.47
219.534	17.96
219.998	16.76
220.463	15.66
220.927	14.76
221.392	14.09
221.856	13.52
222.32	13.04
222.785	12.59
223.249	12.21
223.713	11.91
224.177	11.61
224.642	11.34
225.106	11.05
225.57	10.83
226.034	10.6
226.497	10.38
226.961	10.17
227.425	9.97
227.889	9.8
228.353	9.62
228.816	9.43
229.28	9.28
229.744	9.12
230.207	8.98
230.671	8.83
231.134	8.7
231.597	8.59
232.061	8.48
232.524	8.37
232.987	8.26
233.45	8.18
233.914	8.08
234.377	7.98
234.84	7.9
235.303	7.83
235.766	7.76
236.229	7.69
236.691	7.61
237.154	7.54
237.617	7.47
238.08	7.4
238.542	7.31
239.005	7.27
239.468	7.2
239.93	7.15
240.393	7.1
240.855	7.03
241.317	6.97
241.78	6.91
242.242	6.85
242.704	6.8
243.166	6.75
243.629	6.71
244.091	6.64
244.553	6.58
245.015	6.53
245.477	6.46
245.939	6.42
246.4	6.37
246.862	6.32
247.324	6.28
247.786	6.22
248.247	6.17
248.709	6.11
249.17	6.07
249.632	6.04
250.093	5.99
250.555	5.95
251.016	5.91
251.477	5.87
251.939	5.84
252.4	5.81
252.861	5.78
253.322	5.75
253.783	5.72
254.244	5.7
254.705	5.66
255.166	5.64
255.627	5.61
256.088	5.58
256.549	5.56
257.009	5.53
257.47	5.5
257.931	5.46
258.391	5.42
258.852	5.39
259.312	5.37
259.773	5.34
260.233	5.32
260.694	5.29
261.154	5.25
261.614	5.22
262.074	5.19
262.534	5.16
262.994	5.14
263.455	5.12
263.915	5.11
264.374	5.08
264.834	5.07
265.294	5.04
265.754	5.03
266.214	5.02
266.673	5.01
267.133	5
267.593	4.99
268.052	4.98
268.512	4.97
268.971	4.96
269.431	4.94
269.89	4.93
270.349	4.93
270.809	4.91
271.268	4.91
271.727	4.9
272.186	4.89
272.645	4.89
273.104	4.88
273.563	4.87
274.022	4.86
274.481	4.86
274.94	4.86
275.399	4.85
275.857	4.84
276.316	4.83
276.775	4.82
277.233	4.83
277.692	4.82
278.15	4.82
278.609	4.82
279.067	4.81
279.525	4.8
279.984	4.79
280.442	4.79
280.9	4.79
281.358	4.79
281.816	4.79
282.274	4.78
282.732	4.78
283.19	4.77
283.648	4.77
284.106	4.77
284.564	4.78
285.021	4.78
285.479	4.78
285.937	4.79
286.394	4.8
286.852	4.79
287.309	4.79
287.767	4.78
288.224	4.77
288.682	4.76
289.139	4.75
289.596	4.73
290.053	4.71
290.511	4.69
290.968	4.67
291.425	4.65
291.882	4.63
292.339	4.62
292.796	4.61
293.252	4.6
293.709	4.59
294.166	4.59
294.623	4.58
295.079	4.58
295.536	4.58
295.992	4.57
296.449	4.57
296.905	4.57
297.362	4.56
297.818	4.56
298.274	4.55
298.731	4.55
299.187	4.54
299.643	4.53
300.099	4.53
300.555	4.52
301.011	4.52
301.467	4.52
301.923	4.51
302.379	4.51
302.835	4.51
303.291	4.51
303.746	4.51
304.202	4.52
304.658	4.52
305.113	4.52
305.569	4.52
306.024	4.53
306.479	4.53
306.935	4.53
307.39	4.53
307.845	4.53
308.301	4.53
308.756	4.53
309.211	4.53
309.666	4.54
310.121	4.55
310.576	4.55
311.031	4.55
311.486	4.56
311.94	4.57
312.395	4.58
312.85	4.59
313.305	4.6
313.759	4.61
314.214	4.61
314.668	4.6
315.123	4.6
315.577	4.6
316.032	4.6
316.486	4.6
316.94	4.6
317.394	4.59
317.849	4.57
318.303	4.56
318.757	4.54
319.211	4.54
319.665	4.53
320.119	4.52
320.572	4.51
321.026	4.5
321.48	4.49
321.934	4.48
322.387	4.47
322.841	4.48
323.295	4.47
323.748	4.48
324.202	4.47
324.655	4.47
325.108	4.47
325.562	4.48
326.015	4.49
326.468	4.48
326.921	4.48
327.374	4.48
327.827	4.47
328.28	4.47
328.733	4.46
329.186	4.46
329.639	4.46
330.092	4.46
330.545	4.46
330.997	4.46
331.45	4.47
331.903	4.48
332.355	4.5
332.808	4.5
333.26	4.52
333.713	4.52
334.165	4.52
334.617	4.53
335.069	4.53
335.522	4.54
335.974	4.55
336.426	4.54
336.878	4.54
337.33	4.53
337.782	4.53
338.234	4.54
338.686	4.54
339.137	4.54
339.589	4.53
340.041	4.53
340.493	4.53
340.944	4.51
341.396	4.51
341.847	4.5
342.299	4.49
342.75	4.47
343.201	4.45
343.653	4.44
344.104	4.42
344.555	4.42
345.006	4.41
345.457	4.39
345.908	4.38
346.359	4.38
346.81	4.38
347.261	4.38
347.712	4.37
348.163	4.37
348.613	4.38
349.064	4.38
349.515	4.37
349.965	4.37
350.416	4.37
350.866	4.37
351.317	4.37
351.767	4.37
352.217	4.37
352.668	4.38
353.118	4.39
353.568	4.39
354.018	4.39
354.468	4.4
354.918	4.4
355.368	4.41
355.818	4.42
356.268	4.42
356.718	4.43
357.168	4.42
357.617	4.42
358.067	4.43
358.517	4.44
358.966	4.44
359.416	4.45
359.865	4.46
360.315	4.47
360.764	4.47
361.213	4.48
361.663	4.48
362.112	4.49
362.561	4.5
363.01	4.5
363.459	4.48
363.908	4.49
364.357	4.49
364.806	4.48
365.255	4.49
365.703	4.5
366.152	4.52
366.601	4.53
367.05	4.54
367.498	4.55
367.947	4.56
368.395	4.58
368.844	4.6
369.292	4.62
369.74	4.65
370.189	4.66
370.637	4.67
371.085	4.68
371.533	4.69
371.981	4.71
372.429	4.74
372.877	4.76
373.325	4.78
373.773	4.8
374.221	4.83
374.669	4.85
375.116	4.88
375.564	4.9
376.012	4.93
376.459	4.97
376.907	5.02
377.354	5.05
377.801	5.09
378.249	5.14
378.696	5.17
379.143	5.21
379.591	5.25
380.038	5.29
380.485	5.33
380.932	5.37
381.379	5.42
381.826	5.45
382.273	5.48
382.72	5.52
383.166	5.55
383.613	5.6
384.06	5.62
384.506	5.67
384.953	5.71
385.4	5.75
385.846	5.8
386.292	5.85
386.739	5.89
387.185	5.93
387.631	5.98
388.078	6.03
388.524	6.07
388.97	6.12
389.416	6.16
389.862	6.2
390.308	6.24
390.754	6.28
391.2	6.31
391.645	6.35
392.091	6.39
392.537	6.43
392.983	6.46
393.428	6.49
393.874	6.52
394.319	6.54
394.765	6.55
395.21	6.57
395.655	6.6
396.101	6.62
396.546	6.64
396.991	6.66
397.436	6.68
397.881	6.71
398.326	6.74
398.771	6.75
399.216	6.79
399.661	6.82
400.106	6.83
400.551	6.84
400.995	6.84
401.44	6.84
401.885	6.84
402.329	6.83
402.774	6.81
403.218	6.82
403.663	6.83
404.107	6.84
404.551	6.84
404.995	6.83
405.44	6.82
405.884	6.82
406.328	6.82
406.772	6.81
407.216	6.82
407.66	6.83
408.104	6.81
408.547	6.8
408.991	6.79
409.435	6.78
409.879	6.79
410.322	6.8
410.766	6.81
411.209	6.82
411.653	6.82
412.096	6.83
412.54	6.84
412.983	6.84
413.426	6.86
413.869	6.88
414.312	6.9
414.756	6.91
415.199	6.91
415.642	6.91
416.085	6.91
416.527	6.91
416.97	6.91
417.413	6.9
417.856	6.88
418.298	6.87
418.741	6.85
419.184	6.84
419.626	6.82
420.069	6.83
420.511	6.81
420.953	6.81
421.396	6.82
421.838	6.81
422.28	6.8
422.722	6.82
423.164	6.83
423.606	6.83
424.048	6.83
424.49	6.83
424.932	6.82
425.374	6.79
425.816	6.76
426.258	6.72
426.699	6.69
427.141	6.68
427.582	6.67
428.024	6.65
428.465	6.64
428.907	6.63
429.348	6.62
429.789	6.62
430.231	6.63
430.672	6.65
431.113	6.67
431.554	6.68
431.995	6.69
432.436	6.67
432.877	6.68
433.318	6.7
433.759	6.71
434.2	6.72
434.64	6.73
435.081	6.72
435.522	6.73
435.962	6.75
436.403	6.79
436.843	6.8
437.284	6.83
437.724	6.84
438.164	6.83
438.604	6.86
439.045	6.88
439.485	6.89
439.925	6.91
440.365	6.93
440.805	6.93
441.245	6.94
441.685	6.96
442.125	6.98
442.564	7
443.004	7.02
443.444	7.04
443.883	7.06
444.323	7.08
444.762	7.11
445.202	7.14
445.641	7.17
446.081	7.2
446.52	7.23
446.959	7.28
447.398	7.31
447.837	7.34
448.276	7.37
448.716	7.39
449.154	7.44
449.593	7.46
450.032	7.48
450.471	7.48
450.91	7.48
451.349	7.49
451.787	7.48
452.226	7.46
452.664	7.47
453.103	7.45
453.541	7.44
453.98	7.43
454.418	7.4
454.856	7.39
455.295	7.38
455.733	7.36
456.171	7.34
456.609	7.33
457.047	7.34
457.485	7.31
457.923	7.31
458.361	7.3
458.798	7.29
459.236	7.29
459.674	7.28
460.111	7.28
460.549	7.28
460.987	7.28
461.424	7.27
461.862	7.27
462.299	7.26
462.736	7.25
463.173	7.26
463.611	7.26
464.048	7.26
464.485	7.26
464.922	7.25
465.359	7.25
465.796	7.25
466.233	7.26
466.67	7.26
467.106	7.27
467.543	7.27
467.98	7.26
468.416	7.25
468.853	7.26
469.29	7.27
469.726	7.27
470.162	7.28
470.599	7.29
471.035	7.28
471.471	7.29
471.907	7.29
472.344	7.29
472.78	7.3
473.216	7.3
473.652	7.31
474.088	7.3
474.523	7.32
474.959	7.31
475.395	7.3
475.831	7.3
476.266	7.3
476.702	7.29
477.138	7.28
477.573	7.28
478.008	7.29
478.444	7.28
478.879	7.28
479.314	7.26
479.75	7.25
480.185	7.25
480.62	7.24
481.055	7.24
481.49	7.23
481.925	7.23
482.36	7.23
482.795	7.22
483.229	7.21
483.664	7.22
484.099	7.22
484.534	7.22
484.968	7.23
485.403	7.24
485.837	7.26
486.271	7.28
486.706	7.3
487.14	7.32
487.574	7.35
488.009	7.38
488.443	7.41
488.877	7.45
489.311	7.5
489.745	7.54
490.179	7.59
490.613	7.62
491.046	7.67
491.48	7.72
491.914	7.78
492.348	7.84
492.781	7.91
493.215	7.97
493.648	8.04
494.082	8.1
494.515	8.17
494.948	8.24
495.382	8.33
495.815	8.42
496.248	8.51
496.681	8.6
497.114	8.69
497.547	8.78
497.98	8.89
498.413	8.98
498.846	9.09
499.279	9.2
499.711	9.31
500.144	9.43
500.577	9.56
501.009	9.67
501.442	9.8
501.874	9.94
502.306	10.08
502.739	10.23
503.171	10.38
503.603	10.53
504.036	10.69
504.468	10.85
504.9	11
505.332	11.17
505.764	11.35
506.196	11.53
506.627	11.71
507.059	11.9
507.491	12.08
507.923	12.28
508.354	12.49
508.786	12.7
509.217	12.92
509.649	13.14
510.08	13.36
510.512	13.59
510.943	13.81
511.374	14.04
511.805	14.27
512.237	14.51
512.668	14.75
513.099	14.98
513.53	15.2
513.961	15.44
514.391	15.68
514.822	15.92
515.253	16.14
515.684	16.37
516.114	16.61
516.545	16.86
516.975	17.09
517.406	17.33
517.836	17.55
518.267	17.79
518.697	18.01
519.127	18.22
519.558	18.44
519.988	18.67
520.418	18.89
520.848	19.09
521.278	19.29
521.708	19.58
522.138	19.76
522.567	19.97
522.997	20.14
523.427	20.33
523.857	20.52
524.286	20.69
524.716	20.85
525.145	21.02
525.575	21.19
526.004	21.35
526.433	21.4
526.863	21.54
527.292	21.68
527.721	21.81
528.15	21.92
528.579	22.03
529.008	22.14
529.437	22.25
529.866	22.36
530.295	22.45
530.724	22.53
531.152	22.63
531.581	22.73
532.01	22.8
532.438	22.89
532.867	22.99
533.295	23.07
533.723	23.13
534.152	23.18
534.58	23.23
535.008	23.26
535.436	23.31
535.865	23.34
536.293	23.37
536.721	23.41
537.149	23.44
537.576	23.46
538.004	23.48
538.432	23.5
538.86	23.52
539.287	23.55
539.715	23.59
540.143	23.61
540.57	23.63
540.998	23.65
541.425	23.67
541.852	23.69
542.28	23.72
542.707	23.74
543.134	23.77
543.561	23.81
543.988	23.84
544.415	23.86
544.842	23.88
545.269	23.89
545.696	23.91
546.123	23.93
546.549	23.96
546.976	23.97
547.403	24
547.829	24.01
548.256	24.04
548.682	24.05
549.108	24.09
549.535	24.12
549.961	24.15
550.387	24.17
550.813	24.18
551.24	24.2
551.666	24.21
552.092	24.22
552.518	24.22
552.943	24.22
553.369	24.23
553.795	24.2
554.221	24.19
554.646	24.17
555.072	24.15
555.498	24.13
555.923	24.1
556.349	24.06
556.774	24.02
557.199	23.98
557.625	23.93
558.05	23.88
558.475	23.84
558.9	23.78
559.325	23.73
559.75	23.68
560.175	23.62
560.6	23.55
561.025	23.49
561.449	23.43
561.874	23.34
562.299	23.26
562.723	23.18
563.148	23.09
563.572	22.99
563.997	22.89
564.421	22.77
564.846	22.66
565.27	22.56
565.694	22.46
566.118	22.33
566.542	22.23
566.966	22.12
567.39	21.99
567.814	21.87
568.238	21.75
568.662	21.62
569.086	21.52
569.509	21.39
569.933	21.27
570.357	21.15
570.78	21.03
571.204	20.9
571.627	20.79
572.05	20.69
572.474	20.58
572.897	20.49
573.32	20.39
573.743	20.3
574.166	20.21
574.589	20.13
575.012	20.05
575.435	19.98
575.858	19.91
576.281	19.84
576.704	19.75
577.126	19.69
577.549	19.62
577.972	19.55
578.394	19.48
578.817	19.42
579.239	19.35
579.661	19.29
580.084	19.23
580.506	19.17
580.928	19.1
581.35	19.06
581.772	19.01
582.194	18.96
582.616	18.92
583.038	18.87
583.46	18.82
583.882	18.77
584.303	18.7
584.725	18.65
585.147	18.59
585.568	18.54
585.99	18.49
586.411	18.44
586.833	18.38
587.254	18.31
587.675	18.26
588.096	18.2
588.518	18.16
588.939	18.13
589.36	18.1
589.781	18.05
590.202	18.02
590.623	17.99
591.043	17.94
591.464	17.92
591.885	17.89
592.305	17.87
592.726	17.85
593.147	17.82
593.567	17.79
593.987	17.75
594.408	17.71
594.828	17.67
595.248	17.65
595.669	17.62
596.089	17.58
596.509	17.54
596.929	17.5
597.349	17.47
597.769	17.43
598.189	17.38
598.608	17.36
599.028	17.33
599.448	17.3
599.867	17.24
600.287	17.21
600.706	17.18
601.126	17.14
601.545	17.1
601.965	17.07
602.384	17.04
602.803	16.99
603.222	16.95
603.641	16.9
604.061	16.86
604.48	16.82
604.898	16.77
605.317	16.71
605.736	16.67
606.155	16.62
606.574	16.56
606.992	16.5
607.411	16.46
607.829	16.37
608.248	16.31
608.666	16.25
609.085	16.2
609.503	16.14
609.921	16.07
610.339	16.01
610.758	15.94
611.176	15.88
611.594	15.82
612.012	15.76
612.43	15.72
612.847	15.66
613.265	15.61
613.683	15.55
614.101	15.5
614.518	15.45
614.936	15.38
615.353	15.32
615.771	15.27
616.188	15.21
616.606	15.16
617.023	15.11
617.44	15.07
617.857	15.01
618.274	14.96
618.691	14.9
619.108	14.86
619.525	14.83
619.942	14.8
620.359	14.77
620.776	14.74
621.192	14.71
621.609	14.69
622.026	14.66
622.442	14.64
622.859	14.63
623.275	14.61
623.691	14.59
624.108	14.57
624.524	14.56
624.94	14.55
625.356	14.53
625.772	14.51
626.188	14.5
626.604	14.47
627.02	14.45
627.436	14.45
627.852	14.43
628.268	14.44
628.683	14.43
629.099	14.41
629.514	14.4
629.93	14.39
630.345	14.37
630.761	14.33
631.176	14.31
631.591	14.27
632.007	14.22
632.422	14.17
632.837	14.11
633.252	14.05
633.667	13.99
634.082	13.9
634.497	13.83
634.911	13.74
635.326	13.66
635.741	13.57
636.155	13.49
636.57	13.4
636.984	13.3
637.399	13.2
637.813	13.08
638.228	12.96
638.642	12.85
639.056	12.73
639.47	12.61
639.884	12.5
640.298	12.36
640.712	12.23
641.126	12.09
641.54	11.95
641.954	11.82
642.368	11.7
642.781	11.58
643.195	11.46
643.609	11.35
644.022	11.23
644.436	11.12
644.849	11.02
645.262	10.93
645.676	10.84
646.089	10.77
646.502	10.69
646.915	10.62
647.328	10.55
647.741	10.49
648.154	10.43
648.567	10.38
648.98	10.32
649.393	10.28
649.805	10.24
650.218	10.2
650.631	10.17
651.043	10.14
651.456	10.11
651.868	10.06
652.28	10.02
652.693	9.99
653.105	9.95
653.517	9.91
653.929	9.86
654.341	9.81
654.753	9.75
655.165	9.69
655.577	9.64
655.989	9.57
656.401	9.51
656.813	9.44
657.224	9.36
657.636	9.27
658.047	9.19
658.459	9.1
658.87	9.01
659.282	8.92
659.693	8.83
660.104	8.72
660.515	8.63
660.926	8.55
661.338	8.45
661.749	8.36
662.159	8.27
662.57	8.19
662.981	8.12
663.392	8.05
663.803	7.97
664.213	7.9
664.624	7.83
665.035	7.76
665.445	7.69
665.855	7.64
666.266	7.59
666.676	7.54
667.086	7.49
667.497	7.44
667.907	7.39
668.317	7.36
668.727	7.32
669.137	7.3
669.547	7.27
669.956	7.25
670.366	7.23
670.776	7.21
671.186	7.21
671.595	7.2
672.005	7.19
672.414	7.2
672.824	7.21
673.233	7.21
673.642	7.22
674.052	7.23
674.461	7.24
674.87	7.27
675.279	7.3
675.688	7.32
676.097	7.35
676.506	7.38
676.915	7.41
677.323	7.45
677.732	7.5
678.141	7.56
678.549	7.63
678.958	7.69
679.366	7.77
679.775	7.84
680.183	7.93
680.592	8.04
681	8.17
681.408	8.3
681.816	8.45
682.224	8.6
682.632	8.77
683.04	8.94
683.448	9.15
683.856	9.36
684.264	9.6
684.671	9.86
685.079	10.12
685.487	10.41
685.894	10.73
686.302	11.06
686.709	11.41
687.116	11.77
687.524	12.16
687.931	12.55
688.338	12.97
688.745	13.4
689.152	13.82
689.559	14.28
689.966	14.75
690.373	15.2
690.78	15.68
691.187	16.16
691.593	16.65
692	17.13
692.407	17.6
692.813	18.09
693.22	18.56
693.626	19.06
694.032	19.51
694.439	19.97
694.845	20.44
695.251	20.89
695.657	21.32
696.063	21.75
696.469	22.19
696.875	22.64
697.281	23.06
697.687	23.48
698.093	23.89
698.498	24.29
698.904	24.69
699.31	25.06
699.715	25.44
700.12	25.82
700.526	26.18
700.931	26.53
701.337	26.86
701.742	27.2
702.147	27.52
702.552	27.82
702.957	28.11
703.362	28.39
703.767	28.66
704.172	28.92
704.577	29.18
704.981	29.45
705.386	29.7
705.791	29.95
706.195	30.19
706.6	30.43
707.004	30.65
707.408	30.9
707.813	31.14
708.217	31.36
708.621	31.61
709.025	31.81
709.43	32.01
709.834	32.21
710.237	32.4
710.641	32.6
711.045	32.77
711.449	32.98
711.853	33.17
712.256	33.34
712.66	33.51
713.064	33.67
713.467	33.87
713.87	34.04
714.274	34.19
714.677	34.36
715.08	34.5
715.484	34.68
715.887	34.83
716.29	34.94
716.693	35.08
717.096	35.25
717.499	35.4
717.901	35.53
718.304	35.65
718.707	35.8
719.109	35.93
719.512	36.06
719.915	36.19
720.317	36.3
720.719	36.41
721.122	36.54
721.524	36.63
721.926	36.73
722.328	36.83
722.731	36.92
723.133	37.02
723.535	37.11
723.937	37.21
724.338	37.27
724.74	37.37
725.142	37.51
725.544	37.58
725.945	37.65
726.347	37.71
726.748	37.78
727.15	37.84
727.551	37.9
727.952	37.96
728.354	38.04
728.755	38.1
729.156	38.13
729.557	38.14
729.958	38.18
730.359	38.24
730.76	38.3
731.161	38.33
731.562	38.4
731.962	38.44
732.363	38.49
732.763	38.53
733.164	38.56
733.564	38.61
733.965	38.64
734.365	38.68
734.766	38.71
735.166	38.75
735.566	38.81
735.966	38.83
736.366	38.88
736.766	38.88
737.166	38.9
737.566	38.92
737.966	38.93
738.365	38.95
738.765	38.98
739.165	38.98
739.564	39.01
739.964	39.01
740.363	39.01
740.763	39.02
741.162	39.02
741.561	39.02
741.96	39.03
742.36	39.06
742.759	39.1
743.158	39.11
743.557	39.14
743.955	39.16
744.354	39.2
744.753	39.2
745.152	39.24
745.55	39.27
745.949	39.3
746.348	39.36
746.746	39.36
747.144	39.38
747.543	39.4
747.941	39.43
748.339	39.42
748.737	39.42
749.136	39.43
749.534	39.43
749.932	39.44
750.33	39.44
750.727	39.44
751.125	39.47
751.523	39.46
751.921	39.44
752.318	39.42
752.716	39.42
753.113	39.43
753.511	39.43
753.908	39.44
754.305	39.43
754.703	39.4
755.1	39.39
755.497	39.37
755.894	39.36
756.291	39.34
756.688	39.32
757.085	39.31
757.482	39.27
757.878	39.25
758.275	39.24
758.672	39.22
759.068	39.23
759.465	39.21
759.861	39.21
760.258	39.19
760.654	39.19
761.05	39.2
761.447	39.2
761.843	39.21
762.239	39.2
762.635	39.17
763.031	39.2
763.427	39.17
763.822	39.18
764.218	39.18
764.614	39.19
765.01	39.19
765.405	39.19
765.801	39.2
766.196	39.2
766.592	39.19
766.987	39.2
767.382	39.19
767.778	39.21
768.173	39.2
768.568	39.2
768.963	39.2
769.358	39.22
769.753	39.21
770.148	39.2
770.542	39.21
770.937	39.25
771.332	39.27
771.726	39.27
772.121	39.25
772.515	39.24
772.91	39.23
773.304	39.26
773.699	39.24
774.093	39.25
774.487	39.26
774.881	39.28
775.275	39.26
775.669	39.23
776.063	39.22
776.457	39.25
776.851	39.27
777.245	39.26
777.638	39.2
778.032	39.23
778.425	39.25
778.819	39.24
779.212	39.25
779.606	39.25
779.999	39.26
780.392	39.28
780.786	39.26
781.179	39.25
781.572	39.27
781.965	39.33
782.358	39.34
782.751	39.36
783.143	39.4
783.536	39.41
783.929	39.44
784.322	39.49
784.714	39.51
785.107	39.53
785.499	39.54
785.891	39.57
786.284	39.58
786.676	39.58
787.068	39.53
787.46	39.53
787.852	39.52
788.245	39.51
788.636	39.49
789.028	39.49
789.42	39.51
789.812	39.53
790.204	39.53
790.595	39.49
790.987	39.5
791.378	39.55
791.77	39.55
792.161	39.56
792.553	39.59
792.944	39.58
793.335	39.59
793.726	39.57
794.117	39.56
794.508	39.54
794.899	39.55
795.29	39.56
795.681	39.53
796.072	39.54
796.463	39.53
796.853	39.52
797.244	39.55
797.634	39.56
798.025	39.61
798.415	39.62
798.806	39.63
799.196	39.63
799.586	39.64
799.976	39.67
800.366	39.68
800.756	39.73
801.146	39.74
801.536	39.77
801.926	39.75
802.316	39.74
802.706	39.77
803.095	39.79
803.485	39.84
803.874	39.84
804.264	39.86
804.653	39.86
805.043	39.86
805.432	39.88
805.821	39.9
806.21	39.89
806.599	39.9
806.988	39.91
807.377	39.93
807.766	39.92
808.155	39.9
808.544	39.92
808.933	39.93
809.321	39.91
809.71	39.92
810.098	39.91
810.487	39.96
810.875	39.95
811.264	39.95
811.652	39.95
812.04	39.97
812.428	40.04
812.816	40.03
813.204	40.04
813.592	40.07
813.98	40.08
814.368	40.09
814.756	40.08
815.144	40.06
815.531	40.05
815.919	40.06
816.306	40.04
816.694	40.03
817.081	40.04
817.469	40.06
817.856	40.06
818.243	40.06
818.63	40.05
819.017	40.06
819.404	40.1
819.791	40.1
820.178	40.11
820.565	40.11
820.952	40.09
821.339	40.08
821.725	40.07
822.112	40.08
822.498	40.09
822.885	40.1
823.271	40.08
823.657	40.05
824.044	40.06
824.43	40.08
824.816	40.07
825.202	40.05
825.588	40.07
825.974	40.04
826.36	40.02
826.746	40
827.132	40
827.517	40.01
827.903	40.03
828.289	40.02
828.674	40
829.06	39.99
829.445	39.98
829.83	39.96
830.216	39.95
830.601	39.94
830.986	39.93
831.371	39.9
831.756	39.88
832.141	39.86
832.526	39.85
832.911	39.83
833.295	39.82
833.68	39.83
834.065	39.81
834.449	39.79
834.834	39.77
835.218	39.76
835.603	39.76
835.987	39.75
836.371	39.74
836.755	39.7
837.139	39.69
837.524	39.69
837.908	39.7
838.291	39.73
838.675	39.72
839.059	39.72
839.443	39.69
839.827	39.69
840.21	39.66
840.594	39.66
840.977	39.68
841.361	39.7
841.744	39.66
842.127	39.6
842.511	39.58
842.894	39.57
843.277	39.55
843.66	39.55
844.043	39.56
844.426	39.56
844.809	39.55
845.191	39.54
845.574	39.51
845.957	39.55
846.339	39.56
846.722	39.57
847.104	39.58
847.487	39.59
847.869	39.6
848.252	39.59
848.634	39.6
849.016	39.61
849.398	39.61
849.78	39.62
850.162	39.6
850.544	39.63
850.926	39.64
851.307	39.65
851.689	39.65
852.071	39.65
852.452	39.64
852.834	39.66
853.215	39.66
853.597	39.64
853.978	39.66
854.359	39.66
854.741	39.65
855.122	39.64
855.503	39.63
855.884	39.64
856.265	39.63
856.646	39.65
857.026	39.67
857.407	39.69
857.788	39.69
858.169	39.7
858.549	39.71
858.93	39.72
859.31	39.72
859.69	39.74
860.071	39.75
860.451	39.78
860.831	39.77
861.211	39.74
861.591	39.74
861.971	39.77
862.351	39.79
862.731	39.8
863.111	39.79
863.491	39.81
863.87	39.81
864.25	39.79
864.629	39.77
865.009	39.78
865.388	39.76
865.768	39.77
866.147	39.75
866.526	39.72
866.905	39.73
867.284	39.73
867.663	39.72
868.042	39.72
868.421	39.74
868.8	39.75
869.179	39.74
869.558	39.77
869.936	39.75
870.315	39.76
870.693	39.78
871.072	39.77
871.45	39.78
871.828	39.79
872.207	39.78
872.585	39.77
872.963	39.76
873.341	39.76
873.719	39.76
874.097	39.76
874.475	39.77
874.853	39.76
875.23	39.78
875.608	39.76
875.986	39.8
876.363	39.81
876.741	39.82
877.118	39.84
877.495	39.84
877.873	39.85
878.25	39.88
878.627	39.9
879.004	39.9
879.381	39.89
879.758	39.88
880.135	39.84
880.512	39.82
880.889	39.82
881.265	39.79
881.642	39.8
882.019	39.8
882.395	39.78
882.772	39.73
883.148	39.71
883.524	39.69
883.901	39.71
884.277	39.7
884.653	39.69
885.029	39.67
885.405	39.67
885.781	39.65
886.157	39.66
886.532	39.67
886.908	39.69
887.284	39.71
887.659	39.69
888.035	39.66
888.411	39.66
888.786	39.67
889.161	39.67
889.537	39.68
889.912	39.69
890.287	39.65
890.662	39.62
891.037	39.61
891.412	39.55
891.787	39.55
892.162	39.55
892.536	39.54
892.911	39.51
893.286	39.5
893.66	39.45
894.035	39.43
894.409	39.42
894.784	39.42
895.158	39.41
895.532	39.43
895.906	39.42
896.281	39.41
896.655	39.38
897.029	39.39
897.402	39.38
897.776	39.4
898.15	39.41
898.524	39.43
898.898	39.43
899.271	39.43
899.645	39.46
900.018	39.47
900.392	39.48
900.765	39.51
901.138	39.52
901.511	39.55
901.884	39.58
902.258	39.57
902.631	39.56
903.003	39.57
903.376	39.58
903.749	39.56
904.122	39.59
904.495	39.6
904.867	39.62
905.24	39.63
905.612	39.64
905.985	39.63
906.357	39.64
906.729	39.65
907.102	39.67
907.474	39.66
907.846	39.68
908.218	39.68
908.59	39.7
908.962	39.69
909.334	39.69
909.705	39.67
910.077	39.66
910.449	39.69
910.82	39.7
911.192	39.69
911.563	39.7
911.935	39.69
912.306	39.71
912.677	39.71
913.048	39.72
913.419	39.68
913.79	39.7
914.161	39.71
914.532	39.66
914.903	39.64
915.274	39.63
915.645	39.65
916.015	39.64
916.386	39.62
916.756	39.62
917.127	39.61
917.497	39.62
917.868	39.6
918.238	39.6
918.608	39.69
918.978	39.73
919.348	39.74
919.718	39.75
920.088	39.77
920.458	39.76
920.828	39.73
921.198	39.7
921.567	39.72
921.937	39.74
922.306	39.75
922.676	39.71
923.045	39.68
923.415	39.67
923.784	39.66
924.153	39.68
924.522	39.69
924.891	39.72
925.26	39.75
925.629	39.77
925.998	39.76
926.367	39.77
926.736	39.77
927.104	39.76
927.473	39.76
927.842	39.73
928.21	39.73
928.578	39.73
928.947	39.75
929.315	39.74
929.683	39.74
930.051	39.72
930.42	39.72
930.788	39.71
931.156	39.66
931.523	39.65
931.891	39.67
932.259	39.65
932.627	39.62
932.994	39.57
933.362	39.53
933.729	39.49
934.097	39.49
934.464	39.47
934.831	39.47
935.199	39.52
935.566	39.51
935.933	39.53
936.3	39.5
936.667	39.48
937.034	39.53
937.401	39.57
937.767	39.54
938.134	39.56
938.501	39.59
938.867	39.65
939.234	39.66
939.6	39.7
939.967	39.69
940.333	39.76
940.699	39.87
941.065	39.89
941.431	39.97
941.798	40.07
942.163	40.12
942.529	40.14
942.895	40.16
943.261	40.21
943.627	40.24
943.992	40.29
944.358	40.3
944.723	40.25
945.089	40.23
945.454	40.21
945.82	40.2
946.185	40.19
946.55	40.21
946.915	40.19
947.28	40.12
947.645	40.13
948.01	40.05
948.375	40
948.74	40.01
949.104	40.06
949.469	39.99
949.834	39.99
950.198	39.97
950.562	39.93
950.927	39.91
951.291	39.87
951.655	39.79
952.02	39.8
952.384	39.79
952.748	39.78
953.112	39.7
953.476	39.71
953.839	39.68
954.203	39.61
954.567	39.53
954.931	39.45
955.294	39.45
955.658	39.51
956.021	39.46
956.385	39.4
956.748	39.33
957.111	39.3
957.474	39.28
957.837	39.24
958.2	39.23
958.563	39.23
958.926	39.23
959.289	39.23
959.652	39.17
960.015	39.16
960.377	39.17
960.74	39.19
961.102	39.17
961.465	39.18
961.827	39.21
962.189	39.21
962.552	39.17
962.914	39.18
963.276	39.15
963.638	39.12
964	39.11
964.362	39.09
964.724	39.01
965.085	39.02
965.447	38.94
965.809	38.91
966.17	38.89
966.532	38.91
966.893	38.93
967.255	38.9
967.616	38.93
967.977	38.91
968.338	38.92
968.699	38.89
969.061	38.89
969.421	38.89
969.782	38.89
970.143	38.87
970.504	38.89
970.865	38.89
971.225	38.91
971.586	38.86
971.946	38.89
972.307	38.88
972.667	38.93
973.027	38.93
973.388	38.99
973.748	38.97
974.108	39.03
974.468	39
974.828	38.97
975.188	38.97
975.548	39.03
975.907	39.04
976.267	39
976.627	39.02
976.986	39.02
977.346	38.99
977.705	39
978.064	38.95
978.424	38.99
978.783	38.98
979.142	39
979.501	39
979.86	39.06
980.219	39.12
980.578	39.12
980.937	39.19
981.296	39.19
981.654	39.24
982.013	39.31
982.371	39.29
982.73	39.32
983.088	39.34
983.447	39.29
983.805	39.22
984.163	39.19
984.521	39.23
984.879	39.16
985.237	39.2
985.595	39.22
985.953	39.2
986.311	39.17
986.669	39.18
987.026	39.19
987.384	39.26
987.741	39.22
988.099	39.34
988.456	39.3
988.814	39.34
989.171	39.32
989.528	39.32
989.885	39.35
990.242	39.43
990.599	39.44
990.956	39.49
991.313	39.52
991.67	39.64
992.027	39.68
992.383	39.76
992.74	39.87
993.096	39.87
993.453	39.9
993.809	39.96
994.165	40.05
994.522	40.1
994.878	40.1
995.234	40.16
995.59	40.16
995.946	40.16
996.302	40.2
996.658	40.23
997.013	40.36
997.369	40.43
997.725	40.46
998.08	40.52
998.436	40.56
998.791	40.68
999.147	40.59
999.502	40.67
999.857	40.75
1000.212	40.7
1000.567	40.77
1000.922	40.77
1001.277	40.74
1001.632	40.65
1001.987	40.59
1002.342	40.55
1002.696	40.48
1003.051	40.75
1003.406	40.84
1003.76	40.67
1004.114	40.71
1004.469	40.77
1004.823	40.97
1005.177	41.1
1005.531	41.19
1005.885	41.22
1006.239	41.23
1006.593	41.4
1006.947	41.37
1007.301	41.28
1007.655	41.41
1008.008	41.51
1008.362	41.53
1008.715	41.4
1009.069	41.57
1009.422	41.66
1009.776	41.74
1010.129	41.97
1010.482	41.92
1010.835	41.98
1011.188	42.14
1011.541	42.27
1011.894	42.38
1012.247	42.42
1012.6	42.53
1012.952	42.26
1013.305	42.27
1013.657	42.37
1014.01	42.31
1014.362	42.29
1014.715	42.3
1015.067	42.24
1015.419	42.4
1015.771	42.42
1016.123	42.45
1016.475	42.53
1016.827	42.71
1017.179	42.87
1017.531	43.11
1017.883	43.29
1018.234	43.41
1018.586	43.54
1018.938	43.77
1019.289	43.66
1019.64	43.84
1019.992	43.89
1020.343	43.97
1020.694	44.01
1021.045	44.12
1021.396	43.97
1021.747	44.07
1022.098	44.27
1022.449	44.31
1022.8	44.38
1023.151	44.41
1023.501	44.61
1023.852	44.85
1024.202	44.79
1024.553	45.01
1024.903	45.09
1025.253	45.65
1025.604	45.81
1025.954	45.89
1026.304	46.07
1026.654	46.11
1027.004	46.31
1027.354	46.06
1027.703	45.96
1028.053	46.16
1028.403	46.42
1028.753	46.27
1029.102	46.25
1029.452	46.36
1029.801	46.6
1030.15	46.66
1030.499	46.76
897.758	964.83
901.051	970.68
904.343	968.76
907.636	986.38
910.928	958.34
914.22	952.62
917.511	939.98
920.803	901
924.094	898.06
927.384	877.91
930.675	846.11
933.965	839.32
937.255	787.17
940.544	755.62
943.834	722.72
947.123	716.72
950.411	678.67
953.7	664.66
956.988	627.52
960.276	601.56
963.563	593.11
966.851	568.02
970.138	564.42
973.424	549.54
976.711	551.37
979.997	521.59
983.283	518.76
986.568	507.41
989.853	491.88
993.138	482.61
996.423	465.97
999.708	451.2
1002.992	446.25
1006.275	427.15
1009.559	423.23
1012.842	407.35
1016.125	397.63
1019.408	389.74
1022.69	386.22
1025.972	377.27
1029.254	367.89
1032.536	360.52
1035.817	356.1
1039.098	351.88
1042.379	344.23
1045.659	340.55
1048.939	333.5
1052.219	325.53
1055.498	322.25
1058.778	313.32
1062.057	307.96
1065.335	305.58
1068.614	301.04
1071.892	296.71
1075.17	287.78
1078.447	282.82
1081.724	280.28
1085.001	277.08
1088.278	272.24
1091.554	267.15
1094.83	267.98
1098.106	265.14
1101.382	262.72
1104.657	261.24
1107.932	256.89
1111.206	258.57
1114.481	251.62
1117.755	250.5
1121.029	248.46
1124.302	247.45
1127.575	242.89
1130.848	239.76
1134.121	238.09
1137.393	236.39
1140.665	232.44
1143.937	230.29
1147.208	228.73
1150.48	228.85
1153.75	224.42
1157.021	221.48
1160.291	222.15
1163.561	218.72
1166.831	218.88
1170.101	216.89
1173.37	216.43
1176.639	216.65
1179.907	215.31
1183.176	212.42
1186.444	212.29
1189.711	212.29
1192.979	212.24
1196.246	210.94
1199.513	211.76
1202.78	210.16
1206.046	209.75
1209.312	207.78
1212.578	207.74
1215.843	208.85
1219.108	208.62
1222.373	212.29
1225.638	213.4
1228.902	216.25
1232.166	216.23
1235.43	217.6
1238.693	220.93
1241.956	222.16
1245.219	225.3
1248.482	226.24
1251.744	226.64
1255.006	226.62
1258.268	221.08
1261.529	219.43
1264.79	218.74
1268.051	216.72
1271.312	214.98
1274.572	211.82
1277.832	209.98
1281.092	206.86
1284.351	204.71
1287.61	204.4
1290.869	201.48
1294.128	200.64
1297.386	199.95
1300.644	197.67
1303.902	198.78
1307.159	198.11
1310.416	198.3
1313.673	197.89
1316.93	199.87
1320.186	199.12
1323.442	199.74
1326.697	202.68
1329.953	203.47
1333.208	204.35
1336.463	206.7
1339.717	207
1342.972	209.56
1346.226	210.4
1349.479	211.19
1352.733	212.25
1355.986	213.75
1359.238	213.76
1362.491	214.49
1365.743	216.43
1368.995	217.9
1372.247	215.97
1375.498	215.74
1378.749	215.82
1382	214.81
1385.251	215.07
1388.501	214.11
1391.751	214.05
1395	213.08
1398.25	211.29
1401.499	209.82
1404.748	208.65
1407.996	207.02
1411.244	206.49
1414.492	204.94
1417.74	202.07
1420.987	199.9
1424.234	198.81
1427.481	197.37
1430.728	197.38
1433.974	195.82
1437.22	193.51
1440.465	192.96
1443.711	191.52
1446.956	190.01
1450.201	188.35
1453.445	187.39
1456.689	185.91
1459.933	182.67
1463.177	180.87
1466.42	177.95
1469.663	175.82
1472.906	175.33
1476.148	170.53
1479.391	168.79
1482.633	167.61
1485.874	165.11
1489.115	163.8
1492.356	161.69
1495.597	161.4
1498.838	158.78
1502.078	157.84
1505.318	157.18
1508.557	156.6
1511.797	156.27
1515.036	154.8
1518.274	154.16
1521.513	153.17
1524.751	152.94
1527.989	152.75
1531.227	152.23
1534.464	152.47
1537.701	152.15
1540.938	151.38
1544.174	149.48
1547.41	150.29
1550.646	149.4
1553.882	148.92
1557.117	147.32
1560.352	146.44
1563.587	146.41
1566.821	145.36
1570.055	144.51
1573.289	142.6
1576.523	143.26
1579.756	142.33
1582.989	140.97
1586.222	141.39
1589.454	141.49
1592.686	141.89
1595.918	141.32
1599.15	140.66
1602.381	141.02
1605.612	140.73
1608.843	141.14
1612.073	140.59
1615.303	141.66
1618.533	141.52
1621.762	140.98
1624.992	141.26
1628.221	141.28
1631.449	140.8
1634.678	140.8
1637.906	141.61
1641.134	141.06
1644.361	141.08
1647.588	141.36
1650.815	140.86
1654.042	140.71
1657.269	141.8
1660.495	141.5
1663.72	141.17
1666.946	142.14
1670.171	142.56
1673.396	142.27
1676.621	141.96
1679.845	142.51
1683.069	142.85
1686.293	143.61
1689.517	144.54
1692.74	144.27
1695.963	144.32
1699.185	145.82
1702.408	146.13
1705.63	146.09
1708.852	146.58
1712.073	147.16
1715.294	147.3
1718.515	148.68
1721.736	148.36
1724.956	148.54
1728.176	148.67
1731.396	149.84
1734.616	149.03
1737.835	149.13
1741.054	148.76
1744.272	148.84
1747.491	150.93
1750.709	151.14
1753.927	150.22
1757.144	149.98
1760.361	149.88
1763.578	150.8
1766.795	150.4
1770.011	151.76
1773.227	151.31
1776.443	153.18
1779.658	153.55
1782.874	153.24
1786.089	153.05
1789.303	153.42
1792.518	156.16
1795.732	155.83
1798.945	156.25
1802.159	156.53
1805.372	156.53
1808.585	159.54
1811.797	159.5
1815.01	159.75
1818.222	160.9
1821.434	163.99
1824.645	163.73
1827.856	165.44
1831.067	167.39
1834.278	167.72
1837.488	168.81
1840.698	170.28
1843.908	168.92
1847.117	169.56
1850.326	171.08
1853.535	169.6
1856.744	171.12
1859.952	171.8
1863.16	170.42
1866.368	169.08
1869.575	170.25
1872.782	168.54
1875.989	167.85
1879.196	167.72
1882.402	166.95
1885.608	166.72
1888.814	167.51
1892.019	166.58
1895.224	166.23
1898.429	165.82
1901.634	166.94
1904.838	166.81
1908.042	167.89
1911.246	167.91
1914.449	168.45
1917.652	168.89
1920.855	169.01
1924.058	169.1
1927.26	167.91
1930.462	168.3
1933.664	169.37
1936.865	168.19
1940.066	168.04
1943.267	167.27
1946.467	167.51
1949.668	167.76
1952.868	170.17
1956.067	170.5
1959.267	170.81
1962.466	171.5
1965.665	170.52
1968.863	171.38
1972.061	174.55
1975.259	175.68
1978.457	177.25
1981.654	178.79
1984.852	179.04
1988.048	177.93
1991.245	179.93
1994.441	181.24
1997.637	182.84
2000.833	187.2
2004.028	189.04
2007.223	188.68
2010.418	190.8
2013.613	194.42
2016.807	196.29
2020.001	198.39
2023.194	201.49
2026.388	205.84
2029.581	210.73
2032.774	212.56
2035.966	215.17
2039.158	216.39
2042.35	221.16
2045.542	221.98
2048.733	225.11
2051.924	229.01
2055.115	232.69
2058.306	233.2
2061.496	234.48
2064.686	234.49
2067.875	239.8
2071.065	240.13
2074.254	238.83
2077.442	242.78
2080.631	244.63
2083.819	246.47
2087.007	246.25
2090.195	250.02
2093.382	252.65
2096.569	251.37
2099.756	256.11
2102.942	255.93
2106.128	258.41
2109.314	265.33
2112.5	263.3
2115.685	268.77
2118.87	270.04
2122.055	274.06
2125.239	275.88
2128.424	278.02
2131.608	280.5
2134.791	284.23
2137.974	284.87
2141.157	287.45
2144.34	286.82
2147.523	292.73
2150.705	291.13
2153.887	292.1
2157.068	294.06
2160.25	290.9
2163.431	293.55
2166.611	296.8
2169.792	300.15
2172.972	303.5
2176.152	307.48
2179.331	311.12
2182.511	314.13
2185.69	317.58
2188.868	325.95
2192.047	325.81
2195.225	336.29
2198.403	343.1
2201.58	349.87
2204.758	359.71
2207.935	365.25
2211.111	370.46
2214.288	374.77
2217.464	376.28
2220.64	384.25
2223.815	387.01
2226.991	404.81
2230.166	405.04
2233.34	410.09
2236.515	417.42
2239.689	417.49
2242.863	420.61
2246.036	430.67
2249.209	428.45
2252.382	436.38
2255.555	447.62
2258.727	451.23
2261.9	450.85
2265.071	455.06
2268.243	465.64
2271.414	470.91
2274.585	477.75
2277.756	484.85
2280.926	489.2
2284.096	501.91
2287.266	512.11
2290.436	514.55
2293.605	524.44
2296.774	542.6
2299.942	560.51
2303.111	562.63
2306.279	573.48
2309.447	583.76
2312.614	599.34
2315.781	613.41
2318.948	640.98
2322.115	631.83
2325.281	668.98
2328.447	658.2
2331.613	681.7
2334.779	672.89
2337.944	705.16
2341.109	710.86
2344.274	730.4
2347.438	753.7
2350.602	758.15
2353.766	780.31
2356.929	793.09
2360.092	786.22
2363.255	840.37
2366.418	840.52
2369.58	857.07
2372.742	908.25
2375.904	933.6
2379.066	927.25
2382.227	906.93
2385.388	980.73
2388.548	978.1
2391.709	992
2394.869	1104.57
2398.029	1062.94
2401.188	1092.39
2404.347	1083.88
2407.506	1062.94
2410.665	1094.75
2413.823	1159.58
2416.981	1230.66
2420.139	1193.48
2423.296	1182.66
2426.453	1235.27
2429.61	1186.64
2432.767	1237.01
2435.923	1223.71
2439.079	1350.51
2442.235	1373.21
2445.391	1359.84
2448.546	1347.57
2451.701	1311.17
2454.855	1307.06
2458.009	1393.27
2461.163	1439.78
2464.317	1497.42
2467.471	1533.77
2470.624	1536.58
2473.777	1485.99
2476.929	1438.57
2480.082	1395.32
2483.234	1386.46
2486.385	1456.3
2489.537	1466.14
2492.688	1514.24
2495.839	1482.66
2498.989	1443.76
2502.14	1448.97
2505.29	1461.23
2508.439	1482.64
2511.589	1483.37
2514.738	1620.7
2517.887	1585.29
2521.035	1668.55
2524.183	1687.4
2527.331	1694.21
2530.479	1679.71
2533.627	1694.36
