Data from N_3_DEC_CT_2N_Splice17_13-56-36-345.txt Node
Date: Sat Mar 07 13:56:36 EST 2020
User: sa697716
Spectrometer: NQ5500242
Trigger mode: 0
Integration Time (sec): 1.450000E-1
Scans to average: 20
Nonlinearity correction enabled: false
Boxcar width: 5
Storing dark spectrum: false
XAxis mode: Wavelengths
Number of Pixels in Spectrum: 512
>>>>>Begin Spectral Data<<<<<
187.83	170.49
188.298	190.59
188.766	166.92
189.233	144.05
189.701	158.46
190.169	187.38
190.636	191.18
191.104	258.53
191.571	-1.18
192.039	-34.77
192.506	232.32
192.974	-3.81
193.441	165.52
193.908	20
194.375	92.61
194.842	73.18
195.31	141.65
195.777	386.07
196.244	78.57
196.711	59.86
197.177	60.97
197.644	59.71
198.111	59.57
198.578	59.09
199.045	59.9
199.511	59.53
199.978	59.92
200.445	60.12
200.911	59.9
201.378	59.76
201.844	59.6
202.31	59.12
202.777	59.32
203.243	59.27
203.709	59.04
204.176	58.37
204.642	58.08
205.108	57.83
205.574	57.15
206.04	56.62
206.506	56.55
206.972	56.59
207.438	56.25
207.903	55.9
208.369	54.98
208.835	54.16
209.301	53.31
209.766	51.85
210.232	50.43
210.697	49.48
211.163	48.34
211.628	47.26
212.094	46.29
212.559	45.36
213.024	44.06
213.49	43.23
213.955	42.38
214.42	41.61
214.885	40.84
215.35	39.77
215.815	38.3
216.28	36.27
216.745	33.98
217.21	31.72
217.675	29.73
218.14	28.03
218.604	26.43
219.069	25.03
219.534	23.87
219.998	22.94
220.463	22.12
220.927	21.31
221.392	20.72
221.856	20.26
222.32	19.81
222.785	19.41
223.249	19.05
223.713	18.73
224.177	18.46
224.642	18.17
225.106	17.86
225.57	17.58
226.034	17.34
226.497	17.1
226.961	16.83
227.425	16.61
227.889	16.36
228.353	16.13
228.816	15.9
229.28	15.64
229.744	15.42
230.207	15.19
230.671	14.97
231.134	14.77
231.597	14.6
232.061	14.4
232.524	14.22
232.987	14.04
233.45	13.86
233.914	13.7
234.377	13.54
234.84	13.39
235.303	13.26
235.766	13.11
236.229	12.96
236.691	12.8
237.154	12.68
237.617	12.55
238.08	12.43
238.542	12.3
239.005	12.18
239.468	12.05
239.93	11.92
240.393	11.8
240.855	11.66
241.317	11.55
241.78	11.43
242.242	11.31
242.704	11.2
243.166	11.09
243.629	10.99
244.091	10.86
244.553	10.77
245.015	10.67
245.477	10.57
245.939	10.48
246.4	10.38
246.862	10.28
247.324	10.19
247.786	10.08
248.247	9.98
248.709	9.87
249.17	9.79
249.632	9.7
250.093	9.6
250.555	9.51
251.016	9.43
251.477	9.34
251.939	9.27
252.4	9.19
252.861	9.11
253.322	9.05
253.783	8.98
254.244	8.93
254.705	8.86
255.166	8.8
255.627	8.75
256.088	8.69
256.549	8.64
257.009	8.58
257.47	8.52
257.931	8.46
258.391	8.39
258.852	8.32
259.312	8.25
259.773	8.19
260.233	8.13
260.694	8.07
261.154	8
261.614	7.95
262.074	7.89
262.534	7.83
262.994	7.79
263.455	7.75
263.915	7.71
264.374	7.67
264.834	7.63
265.294	7.59
265.754	7.56
266.214	7.53
266.673	7.5
267.133	7.48
267.593	7.45
268.052	7.42
268.512	7.39
268.971	7.37
269.431	7.34
269.89	7.31
270.349	7.29
270.809	7.26
271.268	7.24
271.727	7.22
272.186	7.19
272.645	7.18
273.104	7.15
273.563	7.14
274.022	7.11
274.481	7.1
274.94	7.07
275.399	7.04
275.857	7.02
276.316	6.99
276.775	6.97
277.233	6.95
277.692	6.93
278.15	6.91
278.609	6.89
279.067	6.87
279.525	6.85
279.984	6.83
280.442	6.82
280.9	6.81
281.358	6.8
281.816	6.79
282.274	6.77
282.732	6.76
283.19	6.74
283.648	6.72
284.106	6.7
284.564	6.68
285.021	6.68
285.479	6.67
285.937	6.65
286.394	6.63
286.852	6.61
287.309	6.58
287.767	6.56
288.224	6.54
288.682	6.52
289.139	6.49
289.596	6.46
290.053	6.42
290.511	6.38
290.968	6.34
291.425	6.31
291.882	6.29
292.339	6.26
292.796	6.23
293.252	6.2
293.709	6.18
294.166	6.16
294.623	6.14
295.079	6.13
295.536	6.11
295.992	6.1
296.449	6.09
296.905	6.07
297.362	6.06
297.818	6.04
298.274	6.03
298.731	6.01
299.187	5.99
299.643	5.97
300.099	5.95
300.555	5.94
301.011	5.92
301.467	5.9
301.923	5.88
302.379	5.86
302.835	5.85
303.291	5.83
303.746	5.83
304.202	5.82
304.658	5.81
305.113	5.81
305.569	5.8
306.024	5.79
306.479	5.79
306.935	5.78
307.39	5.78
307.845	5.77
308.301	5.77
308.756	5.75
309.211	5.74
309.666	5.74
310.121	5.73
310.576	5.73
311.031	5.72
311.486	5.71
311.94	5.7
312.395	5.7
312.85	5.69
313.305	5.68
313.759	5.68
314.214	5.68
314.668	5.67
315.123	5.66
315.577	5.66
316.032	5.65
316.486	5.65
316.94	5.64
317.394	5.62
317.849	5.6
318.303	5.57
318.757	5.55
319.211	5.54
319.665	5.51
320.119	5.49
320.572	5.47
321.026	5.45
321.48	5.43
321.934	5.4
322.387	5.39
322.841	5.38
323.295	5.38
323.748	5.36
324.202	5.35
324.655	5.35
325.108	5.34
325.562	5.33
326.015	5.32
326.468	5.31
326.921	5.31
327.374	5.29
327.827	5.29
328.28	5.27
328.733	5.28
329.186	5.27
329.639	5.26
330.092	5.26
330.545	5.25
330.997	5.25
331.45	5.26
331.903	5.26
332.355	5.26
332.808	5.26
333.26	5.25
333.713	5.25
334.165	5.24
334.617	5.25
335.069	5.25
335.522	5.25
335.974	5.25
336.426	5.24
336.878	5.23
337.33	5.23
337.782	5.24
338.234	5.24
338.686	5.24
339.137	5.25
339.589	5.23
340.041	5.22
340.493	5.21
340.944	5.19
341.396	5.18
341.847	5.17
342.299	5.15
342.75	5.13
343.201	5.1
343.653	5.08
344.104	5.05
344.555	5.03
345.006	5.01
345.457	4.99
345.908	4.99
346.359	4.98
346.81	4.97
347.261	4.95
347.712	4.94
348.163	4.94
348.613	4.93
349.064	4.93
349.515	4.92
349.965	4.92
350.416	4.91
350.866	4.9
351.317	4.89
351.767	4.89
352.217	4.89
352.668	4.89
353.118	4.88
353.568	4.88
354.018	4.89
354.468	4.89
354.918	4.9
355.368	4.9
355.818	4.9
356.268	4.89
356.718	4.88
357.168	4.86
357.617	4.86
358.067	4.86
358.517	4.87
358.966	4.87
359.416	4.86
359.865	4.85
360.315	4.85
360.764	4.86
361.213	4.86
361.663	4.86
362.112	4.87
362.561	4.88
363.01	4.88
363.459	4.85
363.908	4.84
364.357	4.84
364.806	4.83
365.255	4.84
365.703	4.84
366.152	4.84
366.601	4.84
367.05	4.84
367.498	4.82
367.947	4.82
368.395	4.83
368.844	4.83
369.292	4.82
369.74	4.83
370.189	4.81
370.637	4.8
371.085	4.79
371.533	4.78
371.981	4.78
372.429	4.78
372.877	4.78
373.325	4.78
373.773	4.77
374.221	4.77
374.669	4.77
375.116	4.77
375.564	4.78
376.012	4.78
376.459	4.78
376.907	4.78
377.354	4.78
377.801	4.79
378.249	4.78
378.696	4.78
379.143	4.78
379.591	4.78
380.038	4.78
380.485	4.78
380.932	4.78
381.379	4.78
381.826	4.79
382.273	4.78
382.72	4.76
383.166	4.76
383.613	4.76
384.06	4.75
384.506	4.76
384.953	4.77
385.4	4.77
385.846	4.78
386.292	4.78
386.739	4.78
387.185	4.78
387.631	4.8
388.078	4.81
388.524	4.82
388.97	4.83
389.416	4.83
389.862	4.84
390.308	4.85
390.754	4.87
391.2	4.88
391.645	4.9
392.091	4.93
392.537	4.94
392.983	4.95
393.428	4.98
393.874	4.99
394.319	5.02
394.765	5.03
395.21	5.03
395.655	5.05
396.101	5.07
396.546	5.08
396.991	5.08
397.436	5.1
397.881	5.13
398.326	5.14
398.771	5.17
399.216	5.18
399.661	5.2
400.106	5.22
400.551	5.23
400.995	5.23
401.44	5.24
401.885	5.25
402.329	5.26
402.774	5.26
403.218	5.29
403.663	5.3
404.107	5.31
404.551	5.31
404.995	5.32
405.44	5.32
405.884	5.33
406.328	5.34
406.772	5.35
407.216	5.37
407.66	5.38
408.104	5.36
408.547	5.37
408.991	5.37
409.435	5.39
409.879	5.4
410.322	5.43
410.766	5.45
411.209	5.46
411.653	5.49
412.096	5.5
412.54	5.52
412.983	5.54
413.426	5.57
413.869	5.59
414.312	5.62
414.756	5.63
415.199	5.63
415.642	5.64
416.085	5.65
416.527	5.63
416.97	5.62
417.413	5.61
417.856	5.6
418.298	5.58
418.741	5.57
419.184	5.56
419.626	5.56
420.069	5.57
420.511	5.57
420.953	5.57
421.396	5.58
421.838	5.6
422.28	5.61
422.722	5.63
423.164	5.65
423.606	5.66
424.048	5.67
424.49	5.66
424.932	5.65
425.374	5.64
425.816	5.62
426.258	5.61
426.699	5.61
427.141	5.61
427.582	5.6
428.024	5.61
428.465	5.62
428.907	5.61
429.348	5.62
429.789	5.63
430.231	5.66
430.672	5.69
431.113	5.73
431.554	5.76
431.995	5.78
432.436	5.8
432.877	5.81
433.318	5.84
433.759	5.89
434.2	5.92
434.64	5.95
435.081	5.96
435.522	5.98
435.962	6
436.403	6.02
436.843	6.03
437.284	6.03
437.724	6.03
438.164	6.01
438.604	6
439.045	6.01
439.485	6.01
439.925	6.01
440.365	6.01
440.805	6
441.245	6.02
441.685	6.05
442.125	6.07
442.564	6.08
443.004	6.1
443.444	6.13
443.883	6.15
444.323	6.15
444.762	6.17
445.202	6.2
445.641	6.23
446.081	6.24
446.52	6.23
446.959	6.25
447.398	6.26
447.837	6.28
448.276	6.28
448.716	6.29
449.154	6.33
449.593	6.34
450.032	6.34
450.471	6.34
450.91	6.35
451.349	6.36
451.787	6.36
452.226	6.35
452.664	6.35
453.103	6.34
453.541	6.33
453.98	6.31
454.418	6.29
454.856	6.27
455.295	6.24
455.733	6.21
456.171	6.2
456.609	6.18
457.047	6.17
457.485	6.16
457.923	6.16
458.361	6.13
458.798	6.13
459.236	6.13
459.674	6.13
460.111	6.14
460.549	6.15
460.987	6.14
461.424	6.14
461.862	6.15
462.299	6.16
462.736	6.15
463.173	6.16
463.611	6.16
464.048	6.18
464.485	6.18
464.922	6.17
465.359	6.17
465.796	6.19
466.233	6.2
466.67	6.21
467.106	6.21
467.543	6.21
467.98	6.21
468.416	6.2
468.853	6.2
469.29	6.21
469.726	6.21
470.162	6.21
470.599	6.2
471.035	6.2
471.471	6.18
471.907	6.17
472.344	6.17
472.78	6.17
473.216	6.16
473.652	6.14
474.088	6.12
474.523	6.12
474.959	6.11
475.395	6.09
475.831	6.09
476.266	6.08
476.702	6.07
477.138	6.07
477.573	6.07
478.008	6.06
478.444	6.06
478.879	6.06
479.314	6.04
479.75	6.03
480.185	6.02
480.62	6
481.055	5.98
481.49	5.97
481.925	5.96
482.36	5.96
482.795	5.95
483.229	5.94
483.664	5.94
484.099	5.93
484.534	5.92
484.968	5.93
485.403	5.94
485.837	5.94
486.271	5.94
486.706	5.95
487.14	5.94
487.574	5.95
488.009	5.96
488.443	5.97
488.877	5.99
489.311	6.01
489.745	6.02
490.179	6.05
490.613	6.08
491.046	6.1
491.48	6.13
491.914	6.16
492.348	6.2
492.781	6.24
493.215	6.28
493.648	6.31
494.082	6.35
494.515	6.39
494.948	6.44
495.382	6.48
495.815	6.54
496.248	6.61
496.681	6.67
497.114	6.73
497.547	6.79
497.98	6.86
498.413	6.94
498.846	7.02
499.279	7.11
499.711	7.19
500.144	7.3
500.577	7.4
501.009	7.49
501.442	7.6
501.874	7.72
502.306	7.84
502.739	7.98
503.171	8.12
503.603	8.27
504.036	8.42
504.468	8.58
504.9	8.73
505.332	8.9
505.764	9.08
506.196	9.28
506.627	9.48
507.059	9.68
507.491	9.89
507.923	10.1
508.354	10.34
508.786	10.59
509.217	10.85
509.649	11.12
510.08	11.39
510.512	11.68
510.943	11.96
511.374	12.25
511.805	12.56
512.237	12.86
512.668	13.19
513.099	13.51
513.53	13.84
513.961	14.19
514.391	14.52
514.822	14.89
515.253	15.24
515.684	15.61
516.114	15.98
516.545	16.36
516.975	16.75
517.406	17.13
517.836	17.51
518.267	17.91
518.697	18.27
519.127	18.64
519.558	19.03
519.988	19.41
520.418	19.77
520.848	20.14
521.278	20.49
521.708	21.03
522.138	21.41
522.567	21.76
522.997	22.11
523.427	22.46
523.857	22.8
524.286	23.12
524.716	23.43
525.145	23.76
525.575	24.06
526.004	24.39
526.433	24.5
526.863	24.77
527.292	25.04
527.721	25.27
528.15	25.51
528.579	25.74
529.008	25.95
529.437	26.16
529.866	26.35
530.295	26.55
530.724	26.73
531.152	26.9
531.581	27.08
532.01	27.24
532.438	27.41
532.867	27.56
533.295	27.7
533.723	27.85
534.152	27.98
534.58	28.09
535.008	28.17
535.436	28.26
535.865	28.35
536.293	28.42
536.721	28.48
537.149	28.55
537.576	28.61
538.004	28.69
538.432	28.74
538.86	28.79
539.287	28.84
539.715	28.91
540.143	28.95
540.57	28.98
540.998	29.03
541.425	29.08
541.852	29.12
542.28	29.17
542.707	29.2
543.134	29.23
543.561	29.28
543.988	29.33
544.415	29.35
544.842	29.39
545.269	29.45
545.696	29.49
546.123	29.51
546.549	29.55
546.976	29.59
547.403	29.62
547.829	29.67
548.256	29.69
548.682	29.73
549.108	29.79
549.535	29.83
549.961	29.84
550.387	29.86
550.813	29.88
551.24	29.88
551.666	29.87
552.092	29.86
552.518	29.85
552.943	29.83
553.369	29.8
553.795	29.75
554.221	29.71
554.646	29.65
555.072	29.61
555.498	29.54
555.923	29.47
556.349	29.39
556.774	29.31
557.199	29.2
557.625	29.09
558.05	28.99
558.475	28.87
558.9	28.77
559.325	28.65
559.75	28.51
560.175	28.38
560.6	28.24
561.025	28.1
561.449	27.95
561.874	27.78
562.299	27.64
562.723	27.47
563.148	27.28
563.572	27.07
563.997	26.87
564.421	26.67
564.846	26.46
565.27	26.25
565.694	26.03
566.118	25.8
566.542	25.59
566.966	25.36
567.39	25.14
567.814	24.91
568.238	24.7
568.662	24.49
569.086	24.27
569.509	24.05
569.933	23.85
570.357	23.65
570.78	23.43
571.204	23.24
571.627	23.03
572.05	22.82
572.474	22.65
572.897	22.45
573.32	22.27
573.743	22.09
574.166	21.91
574.589	21.73
575.012	21.55
575.435	21.39
575.858	21.22
576.281	21.06
576.704	20.92
577.126	20.76
577.549	20.61
577.972	20.46
578.394	20.32
578.817	20.19
579.239	20.07
579.661	19.94
580.084	19.83
580.506	19.73
580.928	19.62
581.35	19.51
581.772	19.39
582.194	19.29
582.616	19.2
583.038	19.1
583.46	19
583.882	18.91
584.303	18.82
584.725	18.73
585.147	18.65
585.568	18.58
585.99	18.49
586.411	18.41
586.833	18.32
587.254	18.23
587.675	18.14
588.096	18.06
588.518	17.98
588.939	17.91
589.36	17.85
589.781	17.78
590.202	17.71
590.623	17.65
591.043	17.6
591.464	17.55
591.885	17.51
592.305	17.46
592.726	17.44
593.147	17.4
593.567	17.35
593.987	17.3
594.408	17.23
594.828	17.17
595.248	17.13
595.669	17.09
596.089	17.04
596.509	17
596.929	16.96
597.349	16.89
597.769	16.84
598.189	16.8
598.608	16.76
599.028	16.73
599.448	16.68
599.867	16.63
600.287	16.57
600.706	16.52
601.126	16.47
601.545	16.41
601.965	16.36
602.384	16.29
602.803	16.21
603.222	16.14
603.641	16.05
604.061	15.99
604.48	15.89
604.898	15.81
605.317	15.74
605.736	15.64
606.155	15.56
606.574	15.47
606.992	15.38
607.411	15.3
607.829	15.17
608.248	15.07
608.666	14.97
609.085	14.89
609.503	14.79
609.921	14.69
610.339	14.6
610.758	14.48
611.176	14.37
611.594	14.26
612.012	14.17
612.43	14.1
612.847	14.01
613.265	13.91
613.683	13.82
614.101	13.73
614.518	13.63
614.936	13.54
615.353	13.47
615.771	13.4
616.188	13.32
616.606	13.25
617.023	13.18
617.44	13.12
617.857	13.06
618.274	13.01
618.691	12.94
619.108	12.9
619.525	12.85
619.942	12.79
620.359	12.74
620.776	12.69
621.192	12.66
621.609	12.62
622.026	12.58
622.442	12.55
622.859	12.51
623.275	12.48
623.691	12.45
624.108	12.43
624.524	12.41
624.94	12.39
625.356	12.37
625.772	12.35
626.188	12.33
626.604	12.32
627.02	12.3
627.436	12.3
627.852	12.29
628.268	12.27
628.683	12.26
629.099	12.24
629.514	12.2
629.93	12.18
630.345	12.15
630.761	12.11
631.176	12.07
631.591	12.02
632.007	11.96
632.422	11.91
632.837	11.85
633.252	11.79
633.667	11.71
634.082	11.64
634.497	11.56
634.911	11.48
635.326	11.38
635.741	11.29
636.155	11.18
636.57	11.08
636.984	10.97
637.399	10.86
637.813	10.74
638.228	10.61
638.642	10.49
639.056	10.35
639.47	10.24
639.884	10.12
640.298	9.99
640.712	9.86
641.126	9.73
641.54	9.6
641.954	9.47
642.368	9.36
642.781	9.26
643.195	9.14
643.609	9.03
644.022	8.91
644.436	8.82
644.849	8.72
645.262	8.63
645.676	8.54
646.089	8.46
646.502	8.38
646.915	8.32
647.328	8.24
647.741	8.19
648.154	8.13
648.567	8.09
648.98	8.04
649.393	8
649.805	7.96
650.218	7.92
650.631	7.88
651.043	7.85
651.456	7.82
651.868	7.77
652.28	7.73
652.693	7.69
653.105	7.65
653.517	7.61
653.929	7.57
654.341	7.51
654.753	7.47
655.165	7.41
655.577	7.36
655.989	7.3
656.401	7.24
656.813	7.19
657.224	7.12
657.636	7.05
658.047	6.99
658.459	6.92
658.87	6.85
659.282	6.79
659.693	6.73
660.104	6.67
660.515	6.6
660.926	6.54
661.338	6.47
661.749	6.43
662.159	6.38
662.57	6.33
662.981	6.29
663.392	6.25
663.803	6.22
664.213	6.19
664.624	6.15
665.035	6.13
665.445	6.11
665.855	6.08
666.266	6.06
666.676	6.04
667.086	6.02
667.497	6.01
667.907	6
668.317	5.99
668.727	5.98
669.137	5.99
669.547	5.99
669.956	5.99
670.366	6
670.776	6.01
671.186	6.02
671.595	6.02
672.005	6.02
672.414	6.04
672.824	6.06
673.233	6.07
673.642	6.08
674.052	6.09
674.461	6.12
674.87	6.15
675.279	6.18
675.688	6.21
676.097	6.25
676.506	6.29
676.915	6.32
677.323	6.36
677.732	6.4
678.141	6.45
678.549	6.49
678.958	6.54
679.366	6.59
679.775	6.63
680.183	6.69
680.592	6.75
681	6.82
681.408	6.9
681.816	6.97
682.224	7.05
682.632	7.14
683.04	7.24
683.448	7.35
683.856	7.47
684.264	7.61
684.671	7.77
685.079	7.94
685.487	8.14
685.894	8.37
686.302	8.62
686.709	8.91
687.116	9.22
687.524	9.57
687.931	9.94
688.338	10.36
688.745	10.8
689.152	11.26
689.559	11.78
689.966	12.31
690.373	12.87
690.78	13.48
691.187	14.11
691.593	14.76
692	15.44
692.407	16.14
692.813	16.87
693.22	17.61
693.626	18.38
694.032	19.15
694.439	19.93
694.845	20.74
695.251	21.55
695.657	22.36
696.063	23.17
696.469	24
696.875	24.86
697.281	25.68
697.687	26.52
698.093	27.35
698.498	28.15
698.904	28.99
699.31	29.77
699.715	30.59
700.12	31.38
700.526	32.17
700.931	32.95
701.337	33.71
701.742	34.46
702.147	35.2
702.552	35.95
702.957	36.68
703.362	37.37
703.767	38.06
704.172	38.74
704.577	39.41
704.981	40.07
705.386	40.73
705.791	41.37
706.195	42.01
706.6	42.65
707.004	43.25
707.408	43.86
707.813	44.48
708.217	45.09
708.621	45.7
709.025	46.28
709.43	46.83
709.834	47.4
710.237	47.94
710.641	48.48
711.045	49.01
711.449	49.54
711.853	50.08
712.256	50.58
712.66	51.07
713.064	51.55
713.467	52.03
713.87	52.54
714.274	52.99
714.677	53.49
715.08	53.93
715.484	54.38
715.887	54.87
716.29	55.29
716.693	55.72
717.096	56.16
717.499	56.58
717.901	57
718.304	57.4
718.707	57.82
719.109	58.17
719.512	58.56
719.915	58.92
720.317	59.21
720.719	59.54
721.122	59.88
721.524	60.2
721.926	60.53
722.328	60.84
722.731	61.12
723.133	61.39
723.535	61.68
723.937	61.98
724.338	62.27
724.74	62.55
725.142	62.93
725.544	63.18
725.945	63.43
726.347	63.61
726.748	63.81
727.15	64.02
727.551	64.26
727.952	64.45
728.354	64.64
728.755	64.81
729.156	64.98
729.557	65.06
729.958	65.24
730.359	65.41
730.76	65.62
731.161	65.79
731.562	65.98
731.962	66.09
732.363	66.25
732.763	66.36
733.164	66.5
733.564	66.64
733.965	66.72
734.365	66.84
734.766	66.93
735.166	67.02
735.566	67.13
735.966	67.21
736.366	67.33
736.766	67.43
737.166	67.54
737.566	67.62
737.966	67.68
738.365	67.78
738.765	67.87
739.165	67.92
739.564	68.02
739.964	68.09
740.363	68.14
740.763	68.19
741.162	68.23
741.561	68.27
741.96	68.3
742.36	68.35
742.759	68.41
743.158	68.44
743.557	68.47
743.955	68.5
744.354	68.56
744.753	68.62
745.152	68.68
745.55	68.73
745.949	68.79
746.348	68.85
746.746	68.92
747.144	68.97
747.543	68.98
747.941	69.06
748.339	69.06
748.737	69.06
749.136	69.09
749.534	69.08
749.932	69.11
750.33	69.1
750.727	69.12
751.125	69.11
751.523	69.09
751.921	69.12
752.318	69.13
752.716	69.19
753.113	69.22
753.511	69.21
753.908	69.25
754.305	69.26
754.703	69.27
755.1	69.27
755.497	69.3
755.894	69.31
756.291	69.32
756.688	69.29
757.085	69.29
757.482	69.28
757.878	69.3
758.275	69.29
758.672	69.29
759.068	69.31
759.465	69.34
759.861	69.34
760.258	69.36
760.654	69.37
761.05	69.39
761.447	69.39
761.843	69.38
762.239	69.39
762.635	69.39
763.031	69.36
763.427	69.29
763.822	69.26
764.218	69.27
764.614	69.26
765.01	69.23
765.405	69.22
765.801	69.19
766.196	69.18
766.592	69.16
766.987	69.18
767.382	69.18
767.778	69.21
768.173	69.23
768.568	69.18
768.963	69.13
769.358	69.17
769.753	69.18
770.148	69.18
770.542	69.21
770.937	69.22
771.332	69.2
771.726	69.23
772.121	69.25
772.515	69.24
772.91	69.26
773.304	69.32
773.699	69.26
774.093	69.25
774.487	69.28
774.881	69.3
775.275	69.27
775.669	69.26
776.063	69.22
776.457	69.18
776.851	69.15
777.245	69.14
777.638	69.12
778.032	69.15
778.425	69.2
778.819	69.2
779.212	69.18
779.606	69.2
779.999	69.22
780.392	69.29
780.786	69.32
781.179	69.35
781.572	69.39
781.965	69.4
782.358	69.4
782.751	69.35
783.143	69.34
783.536	69.31
783.929	69.3
784.322	69.31
784.714	69.31
785.107	69.34
785.499	69.31
785.891	69.31
786.284	69.35
786.676	69.33
787.068	69.37
787.46	69.38
787.852	69.42
788.245	69.43
788.636	69.42
789.028	69.44
789.42	69.42
789.812	69.46
790.204	69.46
790.595	69.47
790.987	69.5
791.378	69.51
791.77	69.54
792.161	69.53
792.553	69.54
792.944	69.56
793.335	69.55
793.726	69.56
794.117	69.53
794.508	69.5
794.899	69.48
795.29	69.46
795.681	69.42
796.072	69.41
796.463	69.44
796.853	69.42
797.244	69.4
797.634	69.4
798.025	69.39
798.415	69.42
798.806	69.42
799.196	69.41
799.586	69.43
799.976	69.47
800.366	69.47
800.756	69.47
801.146	69.51
801.536	69.55
801.926	69.55
802.316	69.6
802.706	69.61
803.095	69.61
803.485	69.63
803.874	69.64
804.264	69.62
804.653	69.62
805.043	69.62
805.432	69.61
805.821	69.63
806.21	69.64
806.599	69.64
806.988	69.64
807.377	69.69
807.766	69.71
808.155	69.67
808.544	69.71
808.933	69.72
809.321	69.69
809.71	69.7
810.098	69.69
810.487	69.67
810.875	69.66
811.264	69.68
811.652	69.68
812.04	69.69
812.428	69.77
812.816	69.77
813.204	69.76
813.592	69.74
813.98	69.75
814.368	69.79
814.756	69.79
815.144	69.78
815.531	69.78
815.919	69.79
816.306	69.79
816.694	69.76
817.081	69.76
817.469	69.79
817.856	69.82
818.243	69.78
818.63	69.75
819.017	69.74
819.404	69.72
819.791	69.72
820.178	69.73
820.565	69.72
820.952	69.69
821.339	69.65
821.725	69.66
822.112	69.68
822.498	69.71
822.885	69.76
823.271	69.77
823.657	69.74
824.044	69.76
824.43	69.76
824.816	69.73
825.202	69.75
825.588	69.79
825.974	69.76
826.36	69.75
826.746	69.74
827.132	69.7
827.517	69.71
827.903	69.74
828.289	69.74
828.674	69.7
829.06	69.71
829.445	69.68
829.83	69.65
830.216	69.63
830.601	69.61
830.986	69.58
831.371	69.57
831.756	69.56
832.141	69.55
832.526	69.51
832.911	69.5
833.295	69.49
833.68	69.5
834.065	69.45
834.449	69.45
834.834	69.42
835.218	69.41
835.603	69.39
835.987	69.36
836.371	69.32
836.755	69.31
837.139	69.27
837.524	69.26
837.908	69.25
838.291	69.29
838.675	69.26
839.059	69.27
839.443	69.25
839.827	69.23
840.21	69.21
840.594	69.24
840.977	69.23
841.361	69.23
841.744	69.19
842.127	69.14
842.511	69.11
842.894	69.08
843.277	69.08
843.66	69.05
844.043	69.08
844.426	69.08
844.809	69.09
845.191	69.09
845.574	69.09
845.957	69.11
846.339	69.13
846.722	69.13
847.104	69.18
847.487	69.16
847.869	69.19
848.252	69.19
848.634	69.2
849.016	69.2
849.398	69.21
849.78	69.21
850.162	69.22
850.544	69.19
850.926	69.2
851.307	69.19
851.689	69.22
852.071	69.21
852.452	69.18
852.834	69.17
853.215	69.13
853.597	69.12
853.978	69.09
854.359	69.09
854.741	69.11
855.122	69.09
855.503	69.09
855.884	69.04
856.265	69.05
856.646	69.04
857.026	69.04
857.407	69.04
857.788	69.05
858.169	69.08
858.549	69.07
858.93	69.06
859.31	69.08
859.69	69.09
860.071	69.12
860.451	69.09
860.831	69.13
861.211	69.11
861.591	69.1
861.971	69.08
862.351	69.09
862.731	69.08
863.111	69.09
863.491	69.1
863.87	69.08
864.25	69.06
864.629	69.06
865.009	69.05
865.388	69.05
865.768	69.06
866.147	69.06
866.526	69.03
866.905	69.04
867.284	69.04
867.663	69.01
868.042	69.03
868.421	69.05
868.8	69.05
869.179	69.07
869.558	69.03
869.936	69.02
870.315	69.02
870.693	69.03
871.072	69.03
871.45	69.03
871.828	69.05
872.207	69.04
872.585	69
872.963	69
873.341	68.97
873.719	69.01
874.097	69.02
874.475	69.01
874.853	69.03
875.23	69.04
875.608	69.04
875.986	69.05
876.363	69.02
876.741	69.04
877.118	69.06
877.495	69.06
877.873	69.05
878.25	69.07
878.627	69.09
879.004	69.1
879.381	69.08
879.758	69.06
880.135	69.07
880.512	69.07
880.889	69.06
881.265	69.05
881.642	69.06
882.019	69.06
882.395	69.02
882.772	69
883.148	68.94
883.524	68.95
883.901	68.94
884.277	68.9
884.653	68.89
885.029	68.88
885.405	68.85
885.781	68.85
886.157	68.85
886.532	68.86
886.908	68.86
887.284	68.89
887.659	68.82
888.035	68.79
888.411	68.77
888.786	68.75
889.161	68.77
889.537	68.79
889.912	68.75
890.287	68.75
890.662	68.73
891.037	68.71
891.412	68.67
891.787	68.65
892.162	68.67
892.536	68.66
892.911	68.65
893.286	68.63
893.66	68.59
894.035	68.6
894.409	68.54
894.784	68.52
895.158	68.5
895.532	68.53
895.906	68.53
896.281	68.53
896.655	68.53
897.029	68.54
897.402	68.52
897.776	68.53
898.15	68.53
898.524	68.56
898.898	68.55
899.271	68.56
899.645	68.57
900.018	68.61
900.392	68.61
900.765	68.62
901.138	68.59
901.511	68.6
901.884	68.64
902.258	68.65
902.631	68.66
903.003	68.67
903.376	68.67
903.749	68.66
904.122	68.68
904.495	68.69
904.867	68.72
905.24	68.79
905.612	68.83
905.985	68.8
906.357	68.82
906.729	68.87
907.102	68.88
907.474	68.89
907.846	68.89
908.218	68.86
908.59	68.89
908.962	68.89
909.334	68.89
909.705	68.89
910.077	68.92
910.449	68.92
910.82	68.89
911.192	68.87
911.563	68.86
911.935	68.82
912.306	68.85
912.677	68.85
913.048	68.85
913.419	68.82
913.79	68.85
914.161	68.84
914.532	68.84
914.903	68.84
915.274	68.86
915.645	68.89
916.015	68.94
916.386	68.98
916.756	68.95
917.127	68.96
917.497	68.96
917.868	68.95
918.238	68.93
918.608	68.93
918.978	68.94
919.348	68.98
919.718	68.97
920.088	68.97
920.458	68.95
920.828	68.95
921.198	68.91
921.567	68.92
921.937	68.92
922.306	68.9
922.676	68.91
923.045	68.91
923.415	68.89
923.784	68.88
924.153	68.9
924.522	68.89
924.891	68.88
925.26	68.87
925.629	68.91
925.998	68.87
926.367	68.91
926.736	68.89
927.104	68.89
927.473	68.84
927.842	68.81
928.21	68.81
928.578	68.75
928.947	68.76
929.315	68.74
929.683	68.72
930.051	68.72
930.42	68.71
930.788	68.7
931.156	68.67
931.523	68.68
931.891	68.71
932.259	68.66
932.627	68.7
932.994	68.66
933.362	68.65
933.729	68.63
934.097	68.6
934.464	68.56
934.831	68.56
935.199	68.53
935.566	68.48
935.933	68.42
936.3	68.39
936.667	68.34
937.034	68.38
937.401	68.4
937.767	68.41
938.134	68.35
938.501	68.38
938.867	68.33
939.234	68.33
939.6	68.33
939.967	68.35
940.333	68.33
940.699	68.41
941.065	68.25
941.431	68.22
941.798	68.11
942.163	68.11
942.529	68.13
942.895	68.12
943.261	68.1
943.627	68.14
943.992	68.12
944.358	68.12
944.723	68.09
945.089	68.13
945.454	68.18
945.82	68.21
946.185	68.27
946.55	68.18
946.915	68.15
947.28	68.12
947.645	68.11
948.01	68.1
948.375	68.04
948.74	67.98
949.104	67.98
949.469	67.9
949.834	67.88
950.198	67.83
950.562	67.82
950.927	67.81
951.291	67.72
951.655	67.66
952.02	67.67
952.384	67.69
952.748	67.72
953.112	67.74
953.476	67.72
953.839	67.67
954.203	67.7
954.567	67.68
954.931	67.61
955.294	67.62
955.658	67.67
956.021	67.6
956.385	67.55
956.748	67.45
957.111	67.42
957.474	67.43
957.837	67.38
958.2	67.3
958.563	67.31
958.926	67.37
959.289	67.44
959.652	67.43
960.015	67.44
960.377	67.43
960.74	67.54
961.102	67.54
961.465	67.59
961.827	67.66
962.189	67.72
962.552	67.71
962.914	67.7
963.276	67.76
963.638	67.75
964	67.76
964.362	67.81
964.724	67.74
965.085	67.71
965.447	67.67
965.809	67.73
966.17	67.69
966.532	67.69
966.893	67.7
967.255	67.63
967.616	67.61
967.977	67.65
968.338	67.65
968.699	67.69
969.061	67.71
969.421	67.75
969.782	67.74
970.143	67.74
970.504	67.8
970.865	67.83
971.225	67.82
971.586	67.82
971.946	67.78
972.307	67.77
972.667	67.73
973.027	67.77
973.388	67.74
973.748	67.75
974.108	67.83
974.468	67.83
974.828	67.9
975.188	67.88
975.548	67.85
975.907	67.97
976.267	67.95
976.627	67.99
976.986	67.94
977.346	67.93
977.705	67.85
978.064	67.8
978.424	67.82
978.783	67.78
979.142	67.79
979.501	67.83
979.86	67.85
980.219	67.87
980.578	67.91
980.937	67.98
981.296	67.97
981.654	68.05
982.013	68.11
982.371	68.13
982.73	68.12
983.088	68.13
983.447	68.14
983.805	68.06
984.163	68.06
984.521	68.03
984.879	67.92
985.237	67.87
985.595	67.92
985.953	67.85
986.311	67.75
986.669	67.72
987.026	67.73
987.384	67.73
987.741	67.6
988.099	67.67
988.456	67.64
988.814	67.72
989.171	67.81
989.528	67.71
989.885	67.69
990.242	67.74
990.599	67.83
990.956	67.92
991.313	68.03
991.67	68.11
992.027	68.18
992.383	68.32
992.74	68.44
993.096	68.41
993.453	68.54
993.809	68.55
994.165	68.56
994.522	68.5
994.878	68.46
995.234	68.34
995.59	68.41
995.946	68.37
996.302	68.4
996.658	68.39
997.013	68.44
997.369	68.36
997.725	68.49
998.08	68.54
998.436	68.51
998.791	68.59
999.147	68.6
999.502	68.53
999.857	68.46
1000.212	68.32
1000.567	68.25
1000.922	68.26
1001.277	68.28
1001.632	68.24
1001.987	68.13
1002.342	68.18
1002.696	68.1
1003.051	68.18
1003.406	68.31
1003.76	68.26
1004.114	68.1
1004.469	68.17
1004.823	68.39
1005.177	68.41
1005.531	68.54
1005.885	68.6
1006.239	68.62
1006.593	68.73
1006.947	68.82
1007.301	68.79
1007.655	68.79
1008.008	68.97
1008.362	69.06
1008.715	68.96
1009.069	69.03
1009.422	68.95
1009.776	69.15
1010.129	69.27
1010.482	69.22
1010.835	69.24
1011.188	69.29
1011.541	69.46
1011.894	69.59
1012.247	69.58
1012.6	69.52
1012.952	69.48
1013.305	69.59
1013.657	69.45
1014.01	69.33
1014.362	69.22
1014.715	69.2
1015.067	69.31
1015.419	69.4
1015.771	69.3
1016.123	69.29
1016.475	69.35
1016.827	69.44
1017.179	69.36
1017.531	69.33
1017.883	69.36
1018.234	69.5
1018.586	69.58
1018.938	69.52
1019.289	69.23
1019.64	69.17
1019.992	68.98
1020.343	68.83
1020.694	68.66
1021.045	68.76
1021.396	68.97
1021.747	69.27
1022.098	69.29
1022.449	68.96
1022.8	69.22
1023.151	69.46
1023.501	69.83
1023.852	69.9
1024.202	70.03
1024.553	70.06
1024.903	70.03
1025.253	69.88
1025.604	69.64
1025.954	69.3
1026.304	69.65
1026.654	69.49
1027.004	69.26
1027.354	69
1027.703	68.81
1028.053	68.77
1028.403	68.71
1028.753	68.26
1029.102	68.44
1029.452	68.42
1029.801	68.86
1030.15	68.66
1030.499	68.42
897.758	1621.97
901.051	1632.58
904.343	1634.15
907.636	1659.17
910.928	1615.37
914.22	1611.13
917.511	1585.94
920.803	1516.74
924.094	1512.85
927.384	1476.84
930.675	1416.43
933.965	1408.69
937.255	1326.72
940.544	1269.88
943.834	1210.38
947.123	1199.95
950.411	1132.82
953.7	1109.71
956.988	1052.83
960.276	1007.06
963.563	992.42
966.851	957.5
970.138	950.13
973.424	920.09
976.711	924.58
979.997	878.74
983.283	875.36
986.568	856.47
989.853	828.16
993.138	815.16
996.423	784.53
999.708	763.38
1002.992	756.57
1006.275	722.02
1009.559	714.76
1012.842	691.24
1016.125	674.11
1019.408	661.25
1022.69	653.83
1025.972	642.74
1029.254	626.16
1032.536	616.3
1035.817	603.15
1039.098	595.21
1042.379	583.28
1045.659	577.06
1048.939	563.07
1052.219	550.22
1055.498	542.24
1058.778	529.94
1062.057	516.81
1065.335	511.76
1068.614	505.67
1071.892	501.4
1075.17	484.84
1078.447	476.47
1081.724	473.4
1085.001	469
1088.278	460.42
1091.554	452.18
1094.83	451.33
1098.106	449.92
1101.382	445.6
1104.657	442.51
1107.932	434.92
1111.206	438.08
1114.481	427.14
1117.755	423.06
1121.029	420.22
1124.302	420.69
1127.575	411.88
1130.848	407.14
1134.121	402.72
1137.393	401.09
1140.665	393.41
1143.937	391.36
1147.208	387.54
1150.48	387.68
1153.75	382.48
1157.021	376.38
1160.291	376.67
1163.561	373.12
1166.831	373.06
1170.101	371.32
1173.37	368.86
1176.639	369.72
1179.907	365.49
1183.176	362.87
1186.444	362.16
1189.711	362.48
1192.979	361.68
1196.246	358.06
1199.513	360.26
1202.78	357.78
1206.046	357.09
1209.312	354.99
1212.578	355.36
1215.843	358.16
1219.108	355.59
1222.373	362.83
1225.638	364.92
1228.902	370.77
1232.166	371.05
1235.43	372.85
1238.693	378.18
1241.956	379.6
1245.219	386.04
1248.482	385.51
1251.744	385.83
1255.006	386.54
1258.268	377.27
1261.529	373.59
1264.79	370.3
1268.051	369.21
1271.312	365.77
1274.572	360.2
1277.832	357.92
1281.092	351.39
1284.351	349.02
1287.61	348.79
1290.869	344.09
1294.128	342.01
1297.386	341.55
1300.644	337.64
1303.902	338.76
1307.159	336.48
1310.416	337.82
1313.673	336.79
1316.93	340.17
1320.186	340.76
1323.442	342.21
1326.697	348.01
1329.953	348.54
1333.208	350.94
1336.463	355.21
1339.717	355.75
1342.972	359.7
1346.226	362.47
1349.479	362.73
1352.733	364.56
1355.986	365.5
1359.238	364.92
1362.491	367.64
1365.743	370.65
1368.995	370.1
1372.247	368.5
1375.498	368.92
1378.749	371.96
1382	366.42
1385.251	368.6
1388.501	366.66
1391.751	369.31
1395	366.54
1398.25	363.53
1401.499	361.81
1404.748	361.54
1407.996	358.37
1411.244	356.33
1414.492	354.32
1417.74	352.32
1420.987	346.68
1424.234	346.38
1427.481	340.54
1430.728	341.98
1433.974	336.75
1437.22	334.26
1440.465	333.09
1443.711	331.28
1446.956	329.97
1450.201	324.63
1453.445	322.05
1456.689	321.18
1459.933	315.17
1463.177	314.08
1466.42	308.36
1469.663	306.55
1472.906	305.05
1476.148	297.41
1479.391	293.92
1482.633	290.79
1485.874	287.8
1489.115	286.3
1492.356	282.37
1495.597	282.57
1498.838	277.72
1502.078	276.49
1505.318	274.97
1508.557	274.7
1511.797	274.92
1515.036	273.78
1518.274	272.72
1521.513	270.06
1524.751	269.64
1527.989	269.25
1531.227	267.7
1534.464	269.36
1537.701	267.47
1540.938	266.66
1544.174	263.25
1547.41	262.96
1550.646	261.31
1553.882	261.53
1557.117	258.96
1560.352	256.94
1563.587	256.3
1566.821	254.8
1570.055	251.21
1573.289	249.58
1576.523	249.4
1579.756	248.06
1582.989	246.49
1586.222	246
1589.454	244.68
1592.686	246.38
1595.918	245.47
1599.15	244.84
1602.381	244.93
1605.612	245.15
1608.843	246.55
1612.073	246.09
1615.303	247.12
1618.533	247.46
1621.762	246.99
1624.992	247.22
1628.221	246.89
1631.449	247.18
1634.678	246.45
1637.906	247.74
1641.134	247.56
1644.361	246.66
1647.588	247.82
1650.815	246.56
1654.042	244.97
1657.269	247.32
1660.495	247.25
1663.72	245.36
1666.946	245.7
1670.171	246.31
1673.396	245.7
1676.621	245.64
1679.845	245.74
1683.069	245.66
1686.293	247.47
1689.517	249.25
1692.74	248.08
1695.963	249.58
1699.185	252.76
1702.408	253.18
1705.63	253.83
1708.852	254.7
1712.073	255.52
1715.294	255.93
1718.515	256.96
1721.736	256.71
1724.956	257.17
1728.176	257.41
1731.396	259.2
1734.616	257.9
1737.835	258.72
1741.054	257.03
1744.272	257.92
1747.491	259.86
1750.709	260.85
1753.927	260.43
1757.144	259.56
1760.361	261.33
1763.578	261.23
1766.795	260.27
1770.011	261.89
1773.227	262.07
1776.443	265.94
1779.658	267.14
1782.874	265.77
1786.089	266.99
1789.303	267.81
1792.518	271.14
1795.732	270.1
1798.945	273.28
1802.159	273.12
1805.372	274.76
1808.585	279.26
1811.797	279.78
1815.01	279.08
1818.222	282.27
1821.434	283.69
1824.645	284.97
1827.856	288.96
1831.067	291.97
1834.278	289.98
1837.488	292.76
1840.698	294.8
1843.908	291.83
1847.117	293.07
1850.326	295.45
1853.535	294.49
1856.744	298.33
1859.952	298.05
1863.16	296.45
1866.368	293.4
1869.575	298.44
1872.782	293.02
1875.989	290.68
1879.196	289.43
1882.402	287.31
1885.608	288.03
1888.814	287.99
1892.019	286.56
1895.224	284.87
1898.429	283.03
1901.634	284.63
1904.838	282.74
1908.042	285.82
1911.246	287.29
1914.449	288.49
1917.652	287.95
1920.855	287.49
1924.058	287.36
1927.26	285.5
1930.462	287.22
1933.664	290.45
1936.865	288.31
1940.066	289.14
1943.267	287.05
1946.467	286.74
1949.668	288.57
1952.868	292.87
1956.067	292.77
1959.267	293.51
1962.466	294.73
1965.665	292.86
1968.863	293.77
1972.061	297.51
1975.259	299.94
1978.457	302.76
1981.654	304.47
1984.852	305.35
1988.048	304.11
1991.245	307.14
1994.441	310.66
1997.637	312.99
2000.833	319.46
2004.028	323.13
2007.223	325.68
2010.418	328.98
2013.613	334.42
2016.807	338.91
2020.001	342.13
2023.194	347.1
2026.388	354.17
2029.581	361.27
2032.774	364.68
2035.966	371.73
2039.158	372.83
2042.35	380.02
2045.542	381.8
2048.733	387.21
2051.924	392.92
2055.115	398.47
2058.306	399.02
2061.496	404.55
2064.686	404.35
2067.875	412.2
2071.065	412.61
2074.254	410.89
2077.442	415
2080.631	417.03
2083.819	421.34
2087.007	420.76
2090.195	426.25
2093.382	429.97
2096.569	426.04
2099.756	434.2
2102.942	433.56
2106.128	438.9
2109.314	449.1
2112.5	447.89
2115.685	457.64
2118.87	458.11
2122.055	467.81
2125.239	470.84
2128.424	478
2131.608	481.58
2134.791	486.79
2137.974	489.86
2141.157	491.13
2144.34	491.79
2147.523	498.38
2150.705	495.1
2153.887	498.53
2157.068	499.25
2160.25	495.16
2163.431	495.4
2166.611	501.45
2169.792	511.3
2172.972	515.48
2176.152	518.9
2179.331	526.68
2182.511	536.04
2185.69	542.11
2188.868	553.65
2192.047	555.59
2195.225	570.37
2198.403	586.58
2201.58	597.22
2204.758	608.74
2207.935	621.25
2211.111	632.57
2214.288	638.45
2217.464	640.82
2220.64	650.09
2223.815	659.47
2226.991	684.95
2230.166	687.73
2233.34	697.77
2236.515	708.32
2239.689	708.6
2242.863	713.36
2246.036	733.66
2249.209	725.17
2252.382	736.79
2255.555	757.94
2258.727	760.06
2261.9	764.44
2265.071	771.39
2268.243	783.2
2271.414	791.13
2274.585	807.83
2277.756	814.94
2280.926	820.83
2284.096	841.8
2287.266	859.45
2290.436	867.05
2293.605	886.93
2296.774	913.75
2299.942	941.07
2303.111	948.82
2306.279	970.85
2309.447	983.15
2312.614	1008.5
2315.781	1035.53
2318.948	1085.57
2322.115	1068.56
2325.281	1125.51
2328.447	1102.13
2331.613	1146.88
2334.779	1134.44
2337.944	1179.35
2341.109	1191.85
2344.274	1222.49
2347.438	1270.37
2350.602	1270.2
2353.766	1302.24
2356.929	1323.1
2360.092	1313.33
2363.255	1411.44
2366.418	1403.48
2369.58	1435.31
2372.742	1528.44
2375.904	1565.18
2379.066	1556.94
2382.227	1522.72
2385.388	1647.25
2388.548	1654.7
2391.709	1675.95
2394.869	1862.02
2398.029	1777.94
2401.188	1830.49
2404.347	1817.5
2407.506	1784.09
2410.665	1840.95
2413.823	1951.75
2416.981	2064.47
2420.139	2000.43
2423.296	1977.04
2426.453	2069.48
2429.61	1994.75
2432.767	2089.97
2435.923	2072.64
2439.079	2259.1
2442.235	2290.82
2445.391	2259.8
2448.546	2249.23
2451.701	2185.65
2454.855	2184.53
2458.009	2314.82
2461.163	2404.62
2464.317	2487.75
2467.471	2551.39
2470.624	2546.57
2473.777	2486.11
2476.929	2415.34
2480.082	2354.96
2483.234	2321.58
2486.385	2433.51
2489.537	2445.21
2492.688	2544.59
2495.839	2457.86
2498.989	2411.22
2502.14	2424.91
2505.29	2454.24
2508.439	2485.91
2511.589	2484.51
2514.738	2703.43
2517.887	2649.41
2521.035	2799.28
2524.183	2827.98
2527.331	2846.28
2530.479	2849.65
2533.627	2866.14
