Data from N_3_DEC_NC_4N_Splice17_14-00-26-135.txt Node
Date: Sat Mar 07 14:00:26 EST 2020
User: sa697716
Spectrometer: NQ5500242
Trigger mode: 0
Integration Time (sec): 1.450000E-1
Scans to average: 20
Nonlinearity correction enabled: false
Boxcar width: 5
Storing dark spectrum: false
XAxis mode: Wavelengths
Number of Pixels in Spectrum: 512
>>>>>Begin Spectral Data<<<<<
187.83	91.66
188.298	100.64
188.766	88.98
189.233	72.5
189.701	83
190.169	102.72
190.636	112.17
191.104	177.75
191.571	163.83
192.039	123.49
192.506	67.1
192.974	76.59
193.441	61.79
193.908	1.97
194.375	-5.89
194.842	29.5
195.31	78.31
195.777	23.72
196.244	40.69
196.711	39.25
197.177	42.19
197.644	42.78
198.111	42.65
198.578	43.1
199.045	43.74
199.511	43.71
199.978	43.5
200.445	43.67
200.911	43.84
201.378	44.01
201.844	44.49
202.31	43.99
202.777	43.95
203.243	43.75
203.709	43.53
204.176	43
204.642	42.71
205.108	42.69
205.574	42.36
206.04	41.83
206.506	41.5
206.972	41.1
207.438	40.84
207.903	40.48
208.369	39.55
208.835	38.89
209.301	38.24
209.766	37.29
210.232	36.43
210.697	35.45
211.163	34.91
211.628	34.07
212.094	33.16
212.559	32.5
213.024	31.61
213.49	31.1
213.955	30.37
214.42	29.67
214.885	28.84
215.35	27.77
215.815	26.53
216.28	24.71
216.745	22.93
217.21	21.2
217.675	19.55
218.14	18.2
218.604	16.92
219.069	15.82
219.534	14.94
219.998	14.2
220.463	13.58
220.927	12.99
221.392	12.58
221.856	12.21
222.32	11.92
222.785	11.66
223.249	11.39
223.713	11.21
224.177	11.05
224.642	10.87
225.106	10.67
225.57	10.48
226.034	10.34
226.497	10.21
226.961	10.07
227.425	9.92
227.889	9.79
228.353	9.68
228.816	9.54
229.28	9.42
229.744	9.31
230.207	9.22
230.671	9.11
231.134	9
231.597	8.92
232.061	8.82
232.524	8.73
232.987	8.65
233.45	8.56
233.914	8.48
234.377	8.39
234.84	8.31
235.303	8.24
235.766	8.18
236.229	8.1
236.691	8.02
237.154	7.96
237.617	7.9
238.08	7.83
238.542	7.75
239.005	7.7
239.468	7.64
239.93	7.61
240.393	7.56
240.855	7.5
241.317	7.46
241.78	7.4
242.242	7.35
242.704	7.31
243.166	7.28
243.629	7.25
244.091	7.2
244.553	7.15
245.015	7.09
245.477	7.05
245.939	7
246.4	6.95
246.862	6.93
247.324	6.89
247.786	6.83
248.247	6.79
248.709	6.72
249.17	6.68
249.632	6.64
250.093	6.6
250.555	6.56
251.016	6.53
251.477	6.5
251.939	6.46
252.4	6.43
252.861	6.39
253.322	6.35
253.783	6.32
254.244	6.3
254.705	6.26
255.166	6.23
255.627	6.19
256.088	6.16
256.549	6.14
257.009	6.11
257.47	6.08
257.931	6.06
258.391	6.03
258.852	6.01
259.312	5.98
259.773	5.95
260.233	5.93
260.694	5.91
261.154	5.89
261.614	5.86
262.074	5.84
262.534	5.82
262.994	5.81
263.455	5.79
263.915	5.78
264.374	5.76
264.834	5.76
265.294	5.74
265.754	5.74
266.214	5.73
266.673	5.73
267.133	5.72
267.593	5.71
268.052	5.7
268.512	5.7
268.971	5.69
269.431	5.69
269.89	5.67
270.349	5.67
270.809	5.65
271.268	5.65
271.727	5.64
272.186	5.62
272.645	5.62
273.104	5.61
273.563	5.59
274.022	5.58
274.481	5.57
274.94	5.57
275.399	5.56
275.857	5.55
276.316	5.54
276.775	5.54
277.233	5.54
277.692	5.53
278.15	5.52
278.609	5.51
279.067	5.5
279.525	5.49
279.984	5.48
280.442	5.47
280.9	5.47
281.358	5.46
281.816	5.45
282.274	5.43
282.732	5.42
283.19	5.41
283.648	5.4
284.106	5.39
284.564	5.38
285.021	5.37
285.479	5.36
285.937	5.35
286.394	5.34
286.852	5.33
287.309	5.32
287.767	5.31
288.224	5.31
288.682	5.3
289.139	5.29
289.596	5.28
290.053	5.27
290.511	5.26
290.968	5.25
291.425	5.23
291.882	5.23
292.339	5.21
292.796	5.2
293.252	5.19
293.709	5.18
294.166	5.17
294.623	5.16
295.079	5.15
295.536	5.15
295.992	5.14
296.449	5.14
296.905	5.13
297.362	5.13
297.818	5.12
298.274	5.12
298.731	5.11
299.187	5.1
299.643	5.09
300.099	5.09
300.555	5.08
301.011	5.08
301.467	5.07
301.923	5.05
302.379	5.04
302.835	5.04
303.291	5.04
303.746	5.03
304.202	5.02
304.658	5.02
305.113	5.01
305.569	5.01
306.024	5
306.479	4.98
306.935	4.98
307.39	4.98
307.845	4.97
308.301	4.97
308.756	4.97
309.211	4.97
309.666	4.98
310.121	4.98
310.576	4.97
311.031	4.98
311.486	4.98
311.94	4.99
312.395	4.98
312.85	4.98
313.305	4.98
313.759	4.98
314.214	4.98
314.668	4.96
315.123	4.97
315.577	4.97
316.032	4.97
316.486	4.97
316.94	4.96
317.394	4.96
317.849	4.96
318.303	4.95
318.757	4.95
319.211	4.94
319.665	4.93
320.119	4.91
320.572	4.9
321.026	4.89
321.48	4.87
321.934	4.86
322.387	4.85
322.841	4.84
323.295	4.83
323.748	4.82
324.202	4.82
324.655	4.81
325.108	4.82
325.562	4.81
326.015	4.82
326.468	4.81
326.921	4.82
327.374	4.81
327.827	4.81
328.28	4.8
328.733	4.8
329.186	4.8
329.639	4.8
330.092	4.79
330.545	4.79
330.997	4.78
331.45	4.78
331.903	4.78
332.355	4.79
332.808	4.79
333.26	4.8
333.713	4.79
334.165	4.78
334.617	4.79
335.069	4.78
335.522	4.79
335.974	4.8
336.426	4.8
336.878	4.79
337.33	4.79
337.782	4.79
338.234	4.81
338.686	4.82
339.137	4.83
339.589	4.82
340.041	4.82
340.493	4.81
340.944	4.8
341.396	4.79
341.847	4.78
342.299	4.77
342.75	4.76
343.201	4.74
343.653	4.73
344.104	4.71
344.555	4.7
345.006	4.68
345.457	4.68
345.908	4.67
346.359	4.67
346.81	4.66
347.261	4.66
347.712	4.66
348.163	4.65
348.613	4.66
349.064	4.66
349.515	4.65
349.965	4.65
350.416	4.64
350.866	4.65
351.317	4.64
351.767	4.65
352.217	4.65
352.668	4.66
353.118	4.66
353.568	4.66
354.018	4.67
354.468	4.69
354.918	4.69
355.368	4.7
355.818	4.71
356.268	4.71
356.718	4.72
357.168	4.72
357.617	4.71
358.067	4.7
358.517	4.71
358.966	4.72
359.416	4.73
359.865	4.73
360.315	4.73
360.764	4.74
361.213	4.74
361.663	4.74
362.112	4.75
362.561	4.77
363.01	4.78
363.459	4.78
363.908	4.77
364.357	4.76
364.806	4.76
365.255	4.77
365.703	4.78
366.152	4.8
366.601	4.81
367.05	4.81
367.498	4.8
367.947	4.81
368.395	4.82
368.844	4.83
369.292	4.85
369.74	4.87
370.189	4.87
370.637	4.87
371.085	4.87
371.533	4.88
371.981	4.89
372.429	4.9
372.877	4.91
373.325	4.91
373.773	4.92
374.221	4.93
374.669	4.93
375.116	4.94
375.564	4.95
376.012	4.97
376.459	4.99
376.907	5.01
377.354	5.03
377.801	5.06
378.249	5.08
378.696	5.1
379.143	5.12
379.591	5.15
380.038	5.18
380.485	5.21
380.932	5.23
381.379	5.26
381.826	5.28
382.273	5.3
382.72	5.32
383.166	5.35
383.613	5.36
384.06	5.39
384.506	5.41
384.953	5.44
385.4	5.46
385.846	5.5
386.292	5.52
386.739	5.55
387.185	5.57
387.631	5.61
388.078	5.64
388.524	5.68
388.97	5.71
389.416	5.77
389.862	5.8
390.308	5.84
390.754	5.89
391.2	5.94
391.645	5.98
392.091	6.03
392.537	6.07
392.983	6.12
393.428	6.17
393.874	6.21
394.319	6.24
394.765	6.27
395.21	6.3
395.655	6.33
396.101	6.36
396.546	6.4
396.991	6.45
397.436	6.49
397.881	6.53
398.326	6.57
398.771	6.62
399.216	6.65
399.661	6.71
400.106	6.75
400.551	6.8
400.995	6.82
401.44	6.84
401.885	6.86
402.329	6.89
402.774	6.92
403.218	6.95
403.663	6.96
404.107	6.98
404.551	6.99
404.995	7
405.44	7.01
405.884	7.02
406.328	7.04
406.772	7.05
407.216	7.06
407.66	7.06
408.104	7.05
408.547	7.06
408.991	7.07
409.435	7.08
409.879	7.09
410.322	7.1
410.766	7.12
411.209	7.14
411.653	7.16
412.096	7.16
412.54	7.18
412.983	7.2
413.426	7.23
413.869	7.25
414.312	7.26
414.756	7.29
415.199	7.3
415.642	7.31
416.085	7.3
416.527	7.3
416.97	7.3
417.413	7.31
417.856	7.3
418.298	7.31
418.741	7.32
419.184	7.32
419.626	7.32
420.069	7.32
420.511	7.32
420.953	7.32
421.396	7.34
421.838	7.35
422.28	7.36
422.722	7.37
423.164	7.36
423.606	7.36
424.048	7.36
424.49	7.35
424.932	7.34
425.374	7.31
425.816	7.29
426.258	7.25
426.699	7.22
427.141	7.2
427.582	7.19
428.024	7.18
428.465	7.17
428.907	7.14
429.348	7.12
429.789	7.11
430.231	7.13
430.672	7.14
431.113	7.15
431.554	7.16
431.995	7.17
432.436	7.16
432.877	7.15
433.318	7.16
433.759	7.19
434.2	7.21
434.64	7.21
435.081	7.21
435.522	7.23
435.962	7.24
436.403	7.27
436.843	7.29
437.284	7.3
437.724	7.3
438.164	7.3
438.604	7.32
439.045	7.31
439.485	7.34
439.925	7.34
440.365	7.34
440.805	7.36
441.245	7.37
441.685	7.4
442.125	7.44
442.564	7.45
443.004	7.48
443.444	7.5
443.883	7.53
444.323	7.55
444.762	7.59
445.202	7.61
445.641	7.65
446.081	7.69
446.52	7.68
446.959	7.71
447.398	7.76
447.837	7.78
448.276	7.81
448.716	7.83
449.154	7.86
449.593	7.89
450.032	7.92
450.471	7.92
450.91	7.93
451.349	7.96
451.787	7.96
452.226	7.95
452.664	7.98
453.103	7.98
453.541	7.99
453.98	8.01
454.418	7.99
454.856	7.98
455.295	7.98
455.733	7.96
456.171	7.96
456.609	7.94
457.047	7.94
457.485	7.91
457.923	7.91
458.361	7.89
458.798	7.88
459.236	7.87
459.674	7.87
460.111	7.86
460.549	7.88
460.987	7.87
461.424	7.88
461.862	7.87
462.299	7.87
462.736	7.84
463.173	7.85
463.611	7.85
464.048	7.85
464.485	7.85
464.922	7.85
465.359	7.86
465.796	7.87
466.233	7.87
466.67	7.87
467.106	7.88
467.543	7.88
467.98	7.89
468.416	7.88
468.853	7.87
469.29	7.88
469.726	7.89
470.162	7.89
470.599	7.89
471.035	7.89
471.471	7.9
471.907	7.9
472.344	7.92
472.78	7.93
473.216	7.95
473.652	7.96
474.088	7.96
474.523	7.97
474.959	7.97
475.395	7.97
475.831	7.98
476.266	7.99
476.702	7.99
477.138	7.99
477.573	8
478.008	8.02
478.444	8.01
478.879	8.02
479.314	8.03
479.75	8.03
480.185	8.03
480.62	8.03
481.055	8.03
481.49	8.03
481.925	8.03
482.36	8.03
482.795	8.03
483.229	8.04
483.664	8.05
484.099	8.05
484.534	8.06
484.968	8.08
485.403	8.09
485.837	8.11
486.271	8.14
486.706	8.17
487.14	8.2
487.574	8.24
488.009	8.27
488.443	8.3
488.877	8.35
489.311	8.4
489.745	8.46
490.179	8.52
490.613	8.58
491.046	8.62
491.48	8.68
491.914	8.74
492.348	8.81
492.781	8.88
493.215	8.95
493.648	9.03
494.082	9.1
494.515	9.17
494.948	9.24
495.382	9.33
495.815	9.43
496.248	9.53
496.681	9.62
497.114	9.72
497.547	9.83
497.98	9.93
498.413	10.04
498.846	10.15
499.279	10.27
499.711	10.38
500.144	10.51
500.577	10.63
501.009	10.76
501.442	10.89
501.874	11.02
502.306	11.16
502.739	11.31
503.171	11.47
503.603	11.62
504.036	11.78
504.468	11.94
504.9	12.09
505.332	12.26
505.764	12.43
506.196	12.61
506.627	12.8
507.059	12.98
507.491	13.15
507.923	13.33
508.354	13.53
508.786	13.73
509.217	13.94
509.649	14.16
510.08	14.36
510.512	14.56
510.943	14.77
511.374	14.98
511.805	15.21
512.237	15.42
512.668	15.65
513.099	15.87
513.53	16.08
513.961	16.3
514.391	16.52
514.822	16.75
515.253	16.97
515.684	17.19
516.114	17.41
516.545	17.62
516.975	17.85
517.406	18.05
517.836	18.26
518.267	18.48
518.697	18.67
519.127	18.87
519.558	19.07
519.988	19.27
520.418	19.47
520.848	19.66
521.278	19.84
521.708	20.17
522.138	20.35
522.567	20.52
522.997	20.69
523.427	20.88
523.857	21.03
524.286	21.18
524.716	21.32
525.145	21.47
525.575	21.6
526.004	21.75
526.433	21.74
526.863	21.86
527.292	22
527.721	22.1
528.15	22.19
528.579	22.3
529.008	22.42
529.437	22.51
529.866	22.6
530.295	22.69
530.724	22.76
531.152	22.85
531.581	22.93
532.01	22.99
532.438	23.07
532.867	23.14
533.295	23.21
533.723	23.26
534.152	23.32
534.58	23.36
535.008	23.4
535.436	23.44
535.865	23.47
536.293	23.49
536.721	23.53
537.149	23.56
537.576	23.58
538.004	23.62
538.432	23.64
538.86	23.66
539.287	23.67
539.715	23.72
540.143	23.74
540.57	23.74
540.998	23.77
541.425	23.79
541.852	23.8
542.28	23.83
542.707	23.84
543.134	23.85
543.561	23.88
543.988	23.92
544.415	23.93
544.842	23.93
545.269	23.97
545.696	23.98
546.123	24
546.549	24.02
546.976	24.03
547.403	24.05
547.829	24.07
548.256	24.08
548.682	24.08
549.108	24.09
549.535	24.11
549.961	24.13
550.387	24.15
550.813	24.16
551.24	24.16
551.666	24.16
552.092	24.17
552.518	24.17
552.943	24.17
553.369	24.18
553.795	24.19
554.221	24.18
554.646	24.14
555.072	24.12
555.498	24.1
555.923	24.08
556.349	24.04
556.774	24
557.199	23.96
557.625	23.93
558.05	23.89
558.475	23.84
558.9	23.8
559.325	23.79
559.75	23.75
560.175	23.71
560.6	23.65
561.025	23.61
561.449	23.57
561.874	23.51
562.299	23.45
562.723	23.38
563.148	23.31
563.572	23.22
563.997	23.13
564.421	23.05
564.846	22.95
565.27	22.86
565.694	22.79
566.118	22.7
566.542	22.61
566.966	22.51
567.39	22.41
567.814	22.31
568.238	22.24
568.662	22.13
569.086	22.04
569.509	21.95
569.933	21.86
570.357	21.76
570.78	21.65
571.204	21.55
571.627	21.46
572.05	21.37
572.474	21.3
572.897	21.21
573.32	21.12
573.743	21.04
574.166	20.95
574.589	20.88
575.012	20.8
575.435	20.72
575.858	20.64
576.281	20.57
576.704	20.51
577.126	20.44
577.549	20.36
577.972	20.29
578.394	20.22
578.817	20.16
579.239	20.1
579.661	20.06
580.084	20
580.506	19.96
580.928	19.9
581.35	19.85
581.772	19.79
582.194	19.75
582.616	19.7
583.038	19.67
583.46	19.61
583.882	19.57
584.303	19.5
584.725	19.45
585.147	19.41
585.568	19.37
585.99	19.32
586.411	19.27
586.833	19.22
587.254	19.18
587.675	19.12
588.096	19.08
588.518	19.03
588.939	19
589.36	18.95
589.781	18.9
590.202	18.86
590.623	18.83
591.043	18.8
591.464	18.77
591.885	18.74
592.305	18.7
592.726	18.7
593.147	18.68
593.567	18.65
593.987	18.62
594.408	18.6
594.828	18.57
595.248	18.55
595.669	18.52
596.089	18.49
596.509	18.46
596.929	18.44
597.349	18.39
597.769	18.34
598.189	18.31
598.608	18.3
599.028	18.27
599.448	18.24
599.867	18.2
600.287	18.18
600.706	18.15
601.126	18.1
601.545	18.08
601.965	18.06
602.384	18.05
602.803	18
603.222	17.97
603.641	17.93
604.061	17.9
604.48	17.86
604.898	17.81
605.317	17.78
605.736	17.74
606.155	17.7
606.574	17.65
606.992	17.58
607.411	17.54
607.829	17.47
608.248	17.41
608.666	17.35
609.085	17.31
609.503	17.26
609.921	17.19
610.339	17.14
610.758	17.08
611.176	17.03
611.594	16.97
612.012	16.91
612.43	16.87
612.847	16.81
613.265	16.76
613.683	16.69
614.101	16.64
614.518	16.58
614.936	16.52
615.353	16.45
615.771	16.4
616.188	16.34
616.606	16.31
617.023	16.26
617.44	16.23
617.857	16.19
618.274	16.14
618.691	16.1
619.108	16.06
619.525	16.03
619.942	16
620.359	15.97
620.776	15.95
621.192	15.92
621.609	15.9
622.026	15.87
622.442	15.85
622.859	15.83
623.275	15.81
623.691	15.79
624.108	15.78
624.524	15.76
624.94	15.75
625.356	15.74
625.772	15.72
626.188	15.71
626.604	15.69
627.02	15.68
627.436	15.66
627.852	15.65
628.268	15.65
628.683	15.63
629.099	15.61
629.514	15.58
629.93	15.57
630.345	15.55
630.761	15.53
631.176	15.49
631.591	15.46
632.007	15.43
632.422	15.39
632.837	15.34
633.252	15.28
633.667	15.23
634.082	15.16
634.497	15.09
634.911	15.02
635.326	14.94
635.741	14.86
636.155	14.76
636.57	14.66
636.984	14.57
637.399	14.47
637.813	14.36
638.228	14.25
638.642	14.14
639.056	14.03
639.47	13.91
639.884	13.8
640.298	13.68
640.712	13.57
641.126	13.45
641.54	13.33
641.954	13.2
642.368	13.08
642.781	12.96
643.195	12.85
643.609	12.73
644.022	12.6
644.436	12.49
644.849	12.39
645.262	12.28
645.676	12.18
646.089	12.09
646.502	12.01
646.915	11.94
647.328	11.86
647.741	11.78
648.154	11.72
648.567	11.68
648.98	11.62
649.393	11.57
649.805	11.54
650.218	11.49
650.631	11.45
651.043	11.41
651.456	11.37
651.868	11.33
652.28	11.29
652.693	11.24
653.105	11.2
653.517	11.16
653.929	11.11
654.341	11.05
654.753	10.99
655.165	10.93
655.577	10.86
655.989	10.8
656.401	10.73
656.813	10.66
657.224	10.58
657.636	10.49
658.047	10.4
658.459	10.29
658.87	10.2
659.282	10.08
659.693	9.99
660.104	9.88
660.515	9.77
660.926	9.66
661.338	9.55
661.749	9.45
662.159	9.35
662.57	9.26
662.981	9.16
663.392	9.07
663.803	8.99
664.213	8.89
664.624	8.82
665.035	8.74
665.445	8.68
665.855	8.61
666.266	8.55
666.676	8.48
667.086	8.41
667.497	8.37
667.907	8.31
668.317	8.27
668.727	8.22
669.137	8.18
669.547	8.16
669.956	8.12
670.366	8.1
670.776	8.07
671.186	8.05
671.595	8.03
672.005	8.01
672.414	7.99
672.824	7.98
673.233	7.98
673.642	7.98
674.052	7.97
674.461	7.97
674.87	7.98
675.279	8
675.688	8.02
676.097	8.04
676.506	8.08
676.915	8.11
677.323	8.15
677.732	8.19
678.141	8.24
678.549	8.29
678.958	8.35
679.366	8.42
679.775	8.5
680.183	8.59
680.592	8.7
681	8.81
681.408	8.94
681.816	9.08
682.224	9.25
682.632	9.43
683.04	9.62
683.448	9.84
683.856	10.05
684.264	10.3
684.671	10.56
685.079	10.84
685.487	11.14
685.894	11.46
686.302	11.8
686.709	12.14
687.116	12.51
687.524	12.89
687.931	13.29
688.338	13.7
688.745	14.13
689.152	14.54
689.559	14.98
689.966	15.42
690.373	15.87
690.78	16.31
691.187	16.75
691.593	17.2
692	17.64
692.407	18.06
692.813	18.5
693.22	18.93
693.626	19.36
694.032	19.78
694.439	20.2
694.845	20.6
695.251	20.99
695.657	21.39
696.063	21.76
696.469	22.15
696.875	22.53
697.281	22.89
697.687	23.25
698.093	23.58
698.498	23.91
698.904	24.24
699.31	24.54
699.715	24.86
700.12	25.16
700.526	25.45
700.931	25.74
701.337	26.02
701.742	26.28
702.147	26.55
702.552	26.82
702.957	27.06
703.362	27.3
703.767	27.53
704.172	27.74
704.577	27.96
704.981	28.18
705.386	28.39
705.791	28.59
706.195	28.79
706.6	28.99
707.004	29.17
707.408	29.35
707.813	29.53
708.217	29.71
708.621	29.88
709.025	30.04
709.43	30.2
709.834	30.35
710.237	30.49
710.641	30.63
711.045	30.75
711.449	30.9
711.853	31.06
712.256	31.18
712.66	31.3
713.064	31.44
713.467	31.56
713.87	31.69
714.274	31.8
714.677	31.93
715.08	32.04
715.484	32.15
715.887	32.26
716.29	32.36
716.693	32.49
717.096	32.6
717.499	32.7
717.901	32.81
718.304	32.92
718.707	33.03
719.109	33.12
719.512	33.22
719.915	33.3
720.317	33.37
720.719	33.44
721.122	33.49
721.524	33.55
721.926	33.65
722.328	33.73
722.731	33.78
723.133	33.83
723.535	33.91
723.937	33.97
724.338	34.05
724.74	34.11
725.142	34.24
725.544	34.29
725.945	34.38
726.347	34.39
726.748	34.43
727.15	34.46
727.551	34.53
727.952	34.57
728.354	34.61
728.755	34.64
729.156	34.68
729.557	34.65
729.958	34.68
730.359	34.7
730.76	34.76
731.161	34.8
731.562	34.86
731.962	34.86
732.363	34.88
732.763	34.9
733.164	34.94
733.564	34.98
733.965	35
734.365	35.06
734.766	35.07
735.166	35.1
735.566	35.09
735.966	35.11
736.366	35.15
736.766	35.15
737.166	35.19
737.566	35.2
737.966	35.2
738.365	35.22
738.765	35.2
739.165	35.21
739.564	35.21
739.964	35.23
740.363	35.21
740.763	35.23
741.162	35.26
741.561	35.24
741.96	35.24
742.36	35.24
742.759	35.26
743.158	35.27
743.557	35.25
743.955	35.27
744.354	35.29
744.753	35.34
745.152	35.37
745.55	35.38
745.949	35.4
746.348	35.42
746.746	35.41
747.144	35.42
747.543	35.44
747.941	35.48
748.339	35.47
748.737	35.47
749.136	35.45
749.534	35.43
749.932	35.43
750.33	35.44
750.727	35.44
751.125	35.46
751.523	35.48
751.921	35.49
752.318	35.49
752.716	35.5
753.113	35.5
753.511	35.5
753.908	35.52
754.305	35.51
754.703	35.49
755.1	35.48
755.497	35.47
755.894	35.43
756.291	35.42
756.688	35.4
757.085	35.4
757.482	35.4
757.878	35.41
758.275	35.38
758.672	35.38
759.068	35.4
759.465	35.39
759.861	35.41
760.258	35.42
760.654	35.42
761.05	35.42
761.447	35.43
761.843	35.4
762.239	35.38
762.635	35.38
763.031	35.38
763.427	35.36
763.822	35.37
764.218	35.35
764.614	35.35
765.01	35.35
765.405	35.33
765.801	35.3
766.196	35.31
766.592	35.3
766.987	35.31
767.382	35.31
767.778	35.33
768.173	35.32
768.568	35.32
768.963	35.3
769.358	35.3
769.753	35.3
770.148	35.34
770.542	35.31
770.937	35.32
771.332	35.32
771.726	35.3
772.121	35.26
772.515	35.26
772.91	35.26
773.304	35.25
773.699	35.25
774.093	35.25
774.487	35.23
774.881	35.26
775.275	35.26
775.669	35.25
776.063	35.24
776.457	35.27
776.851	35.25
777.245	35.23
777.638	35.23
778.032	35.24
778.425	35.26
778.819	35.26
779.212	35.28
779.606	35.28
779.999	35.28
780.392	35.3
780.786	35.3
781.179	35.32
781.572	35.35
781.965	35.34
782.358	35.33
782.751	35.3
783.143	35.28
783.536	35.24
783.929	35.25
784.322	35.26
784.714	35.24
785.107	35.24
785.499	35.24
785.891	35.23
786.284	35.26
786.676	35.28
787.068	35.32
787.46	35.32
787.852	35.33
788.245	35.33
788.636	35.33
789.028	35.37
789.42	35.38
789.812	35.4
790.204	35.4
790.595	35.39
790.987	35.38
791.378	35.38
791.77	35.4
792.161	35.4
792.553	35.39
792.944	35.38
793.335	35.37
793.726	35.37
794.117	35.34
794.508	35.3
794.899	35.29
795.29	35.3
795.681	35.29
796.072	35.3
796.463	35.32
796.853	35.33
797.244	35.35
797.634	35.35
798.025	35.37
798.415	35.37
798.806	35.39
799.196	35.4
799.586	35.41
799.976	35.42
800.366	35.41
800.756	35.4
801.146	35.41
801.536	35.41
801.926	35.42
802.316	35.42
802.706	35.43
803.095	35.44
803.485	35.44
803.874	35.42
804.264	35.41
804.653	35.41
805.043	35.41
805.432	35.38
805.821	35.4
806.21	35.4
806.599	35.41
806.988	35.43
807.377	35.43
807.766	35.45
808.155	35.46
808.544	35.48
808.933	35.46
809.321	35.46
809.71	35.46
810.098	35.46
810.487	35.42
810.875	35.41
811.264	35.4
811.652	35.41
812.04	35.38
812.428	35.42
812.816	35.41
813.204	35.41
813.592	35.42
813.98	35.46
814.368	35.46
814.756	35.49
815.144	35.47
815.531	35.51
815.919	35.51
816.306	35.53
816.694	35.5
817.081	35.52
817.469	35.55
817.856	35.55
818.243	35.53
818.63	35.52
819.017	35.52
819.404	35.55
819.791	35.52
820.178	35.51
820.565	35.51
820.952	35.53
821.339	35.51
821.725	35.5
822.112	35.5
822.498	35.5
822.885	35.5
823.271	35.49
823.657	35.47
824.044	35.46
824.43	35.45
824.816	35.44
825.202	35.42
825.588	35.42
825.974	35.41
826.36	35.4
826.746	35.38
827.132	35.37
827.517	35.37
827.903	35.37
828.289	35.38
828.674	35.37
829.06	35.35
829.445	35.31
829.83	35.3
830.216	35.29
830.601	35.27
830.986	35.28
831.371	35.27
831.756	35.26
832.141	35.24
832.526	35.25
832.911	35.23
833.295	35.22
833.68	35.22
834.065	35.21
834.449	35.2
834.834	35.2
835.218	35.19
835.603	35.17
835.987	35.14
836.371	35.12
836.755	35.09
837.139	35.09
837.524	35.09
837.908	35.1
838.291	35.11
838.675	35.11
839.059	35.09
839.443	35.08
839.827	35.06
840.21	35.04
840.594	35.04
840.977	35.04
841.361	35.04
841.744	35.01
842.127	34.99
842.511	34.96
842.894	34.95
843.277	34.94
843.66	34.92
844.043	34.94
844.426	34.95
844.809	34.94
845.191	34.95
845.574	34.94
845.957	34.95
846.339	34.94
846.722	34.94
847.104	34.95
847.487	34.94
847.869	34.93
848.252	34.92
848.634	34.92
849.016	34.92
849.398	34.9
849.78	34.9
850.162	34.89
850.544	34.89
850.926	34.9
851.307	34.89
851.689	34.89
852.071	34.89
852.452	34.9
852.834	34.9
853.215	34.91
853.597	34.93
853.978	34.9
854.359	34.9
854.741	34.89
855.122	34.88
855.503	34.89
855.884	34.91
856.265	34.92
856.646	34.91
857.026	34.92
857.407	34.9
857.788	34.89
858.169	34.92
858.549	34.91
858.93	34.91
859.31	34.91
859.69	34.9
860.071	34.92
860.451	34.92
860.831	34.92
861.211	34.89
861.591	34.9
861.971	34.89
862.351	34.89
862.731	34.9
863.111	34.9
863.491	34.91
863.87	34.89
864.25	34.86
864.629	34.85
865.009	34.85
865.388	34.86
865.768	34.86
866.147	34.87
866.526	34.86
866.905	34.86
867.284	34.86
867.663	34.85
868.042	34.85
868.421	34.87
868.8	34.89
869.179	34.91
869.558	34.91
869.936	34.89
870.315	34.89
870.693	34.89
871.072	34.92
871.45	34.92
871.828	34.91
872.207	34.92
872.585	34.89
872.963	34.88
873.341	34.87
873.719	34.86
874.097	34.86
874.475	34.86
874.853	34.84
875.23	34.83
875.608	34.83
875.986	34.85
876.363	34.85
876.741	34.85
877.118	34.85
877.495	34.86
877.873	34.87
878.25	34.87
878.627	34.88
879.004	34.89
879.381	34.9
879.758	34.86
880.135	34.86
880.512	34.85
880.889	34.86
881.265	34.83
881.642	34.82
882.019	34.82
882.395	34.83
882.772	34.81
883.148	34.79
883.524	34.77
883.901	34.81
884.277	34.79
884.653	34.77
885.029	34.77
885.405	34.77
885.781	34.75
886.157	34.74
886.532	34.73
886.908	34.73
887.284	34.73
887.659	34.72
888.035	34.68
888.411	34.68
888.786	34.69
889.161	34.67
889.537	34.66
889.912	34.66
890.287	34.66
890.662	34.64
891.037	34.63
891.412	34.61
891.787	34.58
892.162	34.58
892.536	34.56
892.911	34.56
893.286	34.56
893.66	34.55
894.035	34.53
894.409	34.52
894.784	34.52
895.158	34.51
895.532	34.53
895.906	34.54
896.281	34.54
896.655	34.55
897.029	34.56
897.402	34.54
897.776	34.55
898.15	34.54
898.524	34.54
898.898	34.55
899.271	34.54
899.645	34.56
900.018	34.58
900.392	34.57
900.765	34.58
901.138	34.56
901.511	34.59
901.884	34.59
902.258	34.62
902.631	34.64
903.003	34.64
903.376	34.65
903.749	34.63
904.122	34.63
904.495	34.64
904.867	34.65
905.24	34.65
905.612	34.65
905.985	34.64
906.357	34.64
906.729	34.64
907.102	34.63
907.474	34.64
907.846	34.64
908.218	34.65
908.59	34.65
908.962	34.65
909.334	34.65
909.705	34.65
910.077	34.67
910.449	34.7
910.82	34.68
911.192	34.68
911.563	34.7
911.935	34.69
912.306	34.69
912.677	34.72
913.048	34.75
913.419	34.76
913.79	34.77
914.161	34.75
914.532	34.72
914.903	34.74
915.274	34.77
915.645	34.78
916.015	34.8
916.386	34.79
916.756	34.78
917.127	34.78
917.497	34.77
917.868	34.77
918.238	34.78
918.608	34.83
918.978	34.83
919.348	34.82
919.718	34.81
920.088	34.82
920.458	34.83
920.828	34.81
921.198	34.78
921.567	34.77
921.937	34.8
922.306	34.79
922.676	34.78
923.045	34.78
923.415	34.76
923.784	34.77
924.153	34.77
924.522	34.8
924.891	34.8
925.26	34.81
925.629	34.82
925.998	34.82
926.367	34.83
926.736	34.78
927.104	34.77
927.473	34.79
927.842	34.76
928.21	34.76
928.578	34.74
928.947	34.76
929.315	34.75
929.683	34.78
930.051	34.76
930.42	34.79
930.788	34.82
931.156	34.82
931.523	34.82
931.891	34.86
932.259	34.88
932.627	34.88
932.994	34.88
933.362	34.91
933.729	34.9
934.097	34.9
934.464	34.9
934.831	34.89
935.199	34.89
935.566	34.89
935.933	34.83
936.3	34.81
936.667	34.8
937.034	34.84
937.401	34.8
937.767	34.79
938.134	34.81
938.501	34.8
938.867	34.83
939.234	34.79
939.6	34.83
939.967	34.89
940.333	34.83
940.699	34.84
941.065	34.78
941.431	34.81
941.798	34.82
942.163	34.81
942.529	34.8
942.895	34.8
943.261	34.83
943.627	34.81
943.992	34.78
944.358	34.82
944.723	34.82
945.089	34.76
945.454	34.75
945.82	34.73
946.185	34.74
946.55	34.73
946.915	34.69
947.28	34.69
947.645	34.71
948.01	34.73
948.375	34.74
948.74	34.7
949.104	34.73
949.469	34.73
949.834	34.71
950.198	34.69
950.562	34.61
950.927	34.6
951.291	34.52
951.655	34.47
952.02	34.48
952.384	34.46
952.748	34.52
953.112	34.47
953.476	34.42
953.839	34.4
954.203	34.35
954.567	34.38
954.931	34.31
955.294	34.36
955.658	34.34
956.021	34.27
956.385	34.25
956.748	34.18
957.111	34.21
957.474	34.22
957.837	34.22
958.2	34.19
958.563	34.21
958.926	34.26
959.289	34.29
959.652	34.29
960.015	34.32
960.377	34.31
960.74	34.33
961.102	34.34
961.465	34.35
961.827	34.39
962.189	34.43
962.552	34.4
962.914	34.41
963.276	34.41
963.638	34.41
964	34.37
964.362	34.35
964.724	34.29
965.085	34.25
965.447	34.24
965.809	34.16
966.17	34.16
966.532	34.15
966.893	34.14
967.255	34.11
967.616	34.13
967.977	34.19
968.338	34.19
968.699	34.25
969.061	34.3
969.421	34.31
969.782	34.36
970.143	34.34
970.504	34.38
970.865	34.4
971.225	34.38
971.586	34.38
971.946	34.35
972.307	34.4
972.667	34.38
973.027	34.39
973.388	34.39
973.748	34.41
974.108	34.53
974.468	34.51
974.828	34.56
975.188	34.58
975.548	34.57
975.907	34.57
976.267	34.54
976.627	34.6
976.986	34.57
977.346	34.54
977.705	34.55
978.064	34.53
978.424	34.53
978.783	34.45
979.142	34.43
979.501	34.46
979.86	34.46
980.219	34.53
980.578	34.55
980.937	34.6
981.296	34.63
981.654	34.59
982.013	34.57
982.371	34.6
982.73	34.65
983.088	34.66
983.447	34.62
983.805	34.7
984.163	34.66
984.521	34.58
984.879	34.56
985.237	34.6
985.595	34.7
985.953	34.69
986.311	34.6
986.669	34.66
987.026	34.75
987.384	34.83
987.741	34.79
988.099	34.86
988.456	34.89
988.814	34.92
989.171	34.92
989.528	34.91
989.885	34.9
990.242	35.01
990.599	34.97
990.956	34.93
991.313	34.9
991.67	34.99
992.027	35.02
992.383	35.13
992.74	35.17
993.096	35.16
993.453	35.14
993.809	35.21
994.165	35.26
994.522	35.3
994.878	35.33
995.234	35.34
995.59	35.37
995.946	35.35
996.302	35.35
996.658	35.35
997.013	35.37
997.369	35.41
997.725	35.42
998.08	35.42
998.436	35.46
998.791	35.48
999.147	35.54
999.502	35.55
999.857	35.47
1000.212	35.39
1000.567	35.4
1000.922	35.43
1001.277	35.46
1001.632	35.42
1001.987	35.47
1002.342	35.4
1002.696	35.33
1003.051	35.35
1003.406	35.38
1003.76	35.47
1004.114	35.48
1004.469	35.48
1004.823	35.66
1005.177	35.66
1005.531	35.8
1005.885	35.88
1006.239	36.02
1006.593	36.21
1006.947	36.25
1007.301	36.13
1007.655	36.13
1008.008	36.3
1008.362	36.4
1008.715	36.21
1009.069	36.28
1009.422	36.22
1009.776	36.05
1010.129	36
1010.482	35.96
1010.835	35.9
1011.188	35.97
1011.541	36.11
1011.894	36
1012.247	35.96
1012.6	36.17
1012.952	36.2
1013.305	36.19
1013.657	36.41
1014.01	36.43
1014.362	36.33
1014.715	36.41
1015.067	36.57
1015.419	36.71
1015.771	36.82
1016.123	36.85
1016.475	36.81
1016.827	36.84
1017.179	37.19
1017.531	37.16
1017.883	37.23
1018.234	37.49
1018.586	37.62
1018.938	37.68
1019.289	37.47
1019.64	37.46
1019.992	37.35
1020.343	37.3
1020.694	37.24
1021.045	37.04
1021.396	37.06
1021.747	37.27
1022.098	37.16
1022.449	37.32
1022.8	37.28
1023.151	37.34
1023.501	37.59
1023.852	37.88
1024.202	37.94
1024.553	37.98
1024.903	37.9
1025.253	37.94
1025.604	37.8
1025.954	37.89
1026.304	37.9
1026.654	38.09
1027.004	38.09
1027.354	37.79
1027.703	37.71
1028.053	37.82
1028.403	37.84
1028.753	37.79
1029.102	38.01
1029.452	38.25
1029.801	38.39
1030.15	38.24
1030.499	37.97
897.758	1428.36
901.051	1431.76
904.343	1429.82
907.636	1453.4
910.928	1416.4
914.22	1413.12
917.511	1390.96
920.803	1330.74
924.094	1324.51
927.384	1292.87
930.675	1239.56
933.965	1231.32
937.255	1161.32
940.544	1113.45
943.834	1056.87
947.123	1046.33
950.411	984.13
953.7	964.4
956.988	914.08
960.276	873.07
963.563	858.79
966.851	828.38
970.138	820.56
973.424	792.97
976.711	798.5
979.997	759.67
983.283	755.58
986.568	740.3
989.853	715.09
993.138	701.59
996.423	677.99
999.708	658.1
1002.992	650.26
1006.275	621.48
1009.559	614.89
1012.842	592.65
1016.125	576.77
1019.408	564.98
1022.69	558.65
1025.972	549.45
1029.254	535.54
1032.536	525.58
1035.817	515.76
1039.098	508.18
1042.379	497.32
1045.659	492.36
1048.939	479.6
1052.219	469.01
1055.498	462.56
1058.778	451.15
1062.057	439.93
1065.335	434.66
1068.614	429.77
1071.892	424.77
1075.17	412.06
1078.447	404.21
1081.724	400.53
1085.001	396.73
1088.278	390.28
1091.554	381.97
1094.83	381.65
1098.106	379.67
1101.382	375.52
1104.657	371.67
1107.932	365.65
1111.206	366.82
1114.481	357.32
1117.755	354.42
1121.029	351.72
1124.302	350.11
1127.575	343.91
1130.848	339.81
1134.121	335.39
1137.393	334.26
1140.665	327.81
1143.937	325.37
1147.208	322.15
1150.48	322.35
1153.75	317.23
1157.021	312.92
1160.291	312.99
1163.561	308.51
1166.831	308.38
1170.101	306.26
1173.37	305.19
1176.639	305.77
1179.907	302.48
1183.176	300.12
1186.444	299.5
1189.711	299.85
1192.979	298.14
1196.246	296.4
1199.513	298.32
1202.78	296.93
1206.046	296.21
1209.312	293.73
1212.578	293.95
1215.843	296.68
1219.108	294.16
1222.373	300.14
1225.638	301.85
1228.902	306.87
1232.166	306.73
1235.43	308.64
1238.693	312.33
1241.956	314.32
1245.219	318.81
1248.482	318.68
1251.744	319.16
1255.006	321.16
1258.268	312.51
1261.529	309.75
1264.79	307.06
1268.051	306.07
1271.312	302.36
1274.572	298.01
1277.832	295.36
1281.092	290.29
1284.351	288.33
1287.61	287.66
1290.869	282.83
1294.128	281.52
1297.386	281.02
1300.644	278.2
1303.902	278.74
1307.159	278.24
1310.416	278.8
1313.673	278.31
1316.93	282.05
1320.186	281.72
1323.442	282.37
1326.697	287.33
1329.953	288.16
1333.208	289.26
1336.463	293.47
1339.717	293.66
1342.972	296.53
1346.226	299.12
1349.479	300.12
1352.733	301.03
1355.986	302.9
1359.238	303.34
1362.491	305.03
1365.743	307.91
1368.995	308.78
1372.247	306.66
1375.498	306.96
1378.749	309.28
1382	306.01
1385.251	307.79
1388.501	306.28
1391.751	308.09
1395	306.41
1398.25	304.49
1401.499	303.7
1404.748	303.3
1407.996	301.73
1411.244	300.59
1414.492	299.74
1417.74	297.2
1420.987	291.96
1424.234	292.56
1427.481	287.36
1430.728	288.22
1433.974	284.3
1437.22	281.92
1440.465	281.47
1443.711	278.97
1446.956	277.25
1450.201	272.6
1453.445	270.5
1456.689	269.75
1459.933	264.67
1463.177	263.21
1466.42	258.8
1469.663	256.52
1472.906	254.37
1476.148	246.96
1479.391	244.2
1482.633	241.84
1485.874	238.77
1489.115	237.13
1492.356	233.48
1495.597	232.44
1498.838	229.15
1502.078	227.34
1505.318	226.1
1508.557	226.23
1511.797	225.92
1515.036	224.19
1518.274	223.21
1521.513	221.06
1524.751	220.5
1527.989	220.65
1531.227	219.37
1534.464	219.75
1537.701	217.89
1540.938	217.3
1544.174	213.39
1547.41	213.56
1550.646	212.79
1553.882	212.48
1557.117	209.96
1560.352	208.36
1563.587	207.58
1566.821	206.21
1570.055	204.04
1573.289	202.69
1576.523	202.2
1579.756	201.29
1582.989	199.72
1586.222	199.32
1589.454	198.86
1592.686	200.44
1595.918	199.38
1599.15	198.3
1602.381	198.62
1605.612	198.34
1608.843	199.02
1612.073	198.98
1615.303	199.68
1618.533	199.98
1621.762	199
1624.992	199.05
1628.221	198.15
1631.449	197.93
1634.678	197.48
1637.906	198.74
1641.134	198.77
1644.361	198.2
1647.588	198.64
1650.815	198.09
1654.042	197.42
1657.269	198.98
1660.495	198.5
1663.72	197.81
1666.946	198.58
1670.171	199.52
1673.396	198.58
1676.621	198.31
1679.845	198.99
1683.069	199.22
1686.293	200.45
1689.517	201.49
1692.74	200.94
1695.963	202.11
1699.185	204.65
1702.408	204.98
1705.63	205.43
1708.852	206.45
1712.073	207.11
1715.294	207.2
1718.515	208.16
1721.736	207.98
1724.956	208.65
1728.176	208.92
1731.396	210.09
1734.616	208.97
1737.835	210.07
1741.054	208.6
1744.272	209.07
1747.491	211.31
1750.709	212.21
1753.927	212.03
1757.144	211.5
1760.361	212.53
1763.578	212.59
1766.795	212.42
1770.011	213.47
1773.227	213.65
1776.443	216.76
1779.658	217.92
1782.874	217.06
1786.089	217.57
1789.303	218.23
1792.518	221.6
1795.732	220.72
1798.945	223.56
1802.159	223.65
1805.372	224.71
1808.585	228.23
1811.797	228.57
1815.01	228.73
1818.222	230.84
1821.434	233.08
1824.645	233.77
1827.856	237.17
1831.067	240.06
1834.278	238.62
1837.488	240.64
1840.698	242.74
1843.908	240.51
1847.117	241.93
1850.326	243.63
1853.535	242.92
1856.744	246.47
1859.952	246.75
1863.16	244.82
1866.368	243.31
1869.575	247.42
1872.782	243.66
1875.989	243.29
1879.196	243.07
1882.402	241.83
1885.608	242.9
1888.814	243.63
1892.019	242.99
1895.224	242.67
1898.429	242.62
1901.634	244.12
1904.838	244.11
1908.042	247.58
1911.246	248.28
1914.449	249.66
1917.652	251.06
1920.855	250.61
1924.058	250.76
1927.26	249.5
1930.462	250.52
1933.664	252.91
1936.865	251.1
1940.066	251.3
1943.267	249.05
1946.467	249.46
1949.668	251.17
1952.868	253.53
1956.067	253.59
1959.267	253.96
1962.466	255.15
1965.665	253.23
1968.863	254.5
1972.061	257.71
1975.259	259.37
1978.457	261.58
1981.654	263.24
1984.852	263.8
1988.048	263.04
1991.245	265.83
1994.441	268.79
1997.637	269.94
2000.833	276.2
2004.028	279.48
2007.223	281.21
2010.418	284.91
2013.613	289.87
2016.807	293.4
2020.001	295.11
2023.194	299
2026.388	305.48
2029.581	311.93
2032.774	314.91
2035.966	319.83
2039.158	319.95
2042.35	327
2045.542	328.31
2048.733	333.06
2051.924	337.57
2055.115	342.65
2058.306	343.81
2061.496	346.4
2064.686	347.29
2067.875	353.43
2071.065	356.34
2074.254	353.57
2077.442	357.25
2080.631	358.27
2083.819	362.39
2087.007	362.06
2090.195	367.05
2093.382	370.1
2096.569	368.16
2099.756	374.11
2102.942	374.97
2106.128	376.96
2109.314	388.3
2112.5	386.79
2115.685	395.03
2118.87	395.27
2122.055	404.19
2125.239	406.41
2128.424	411.6
2131.608	414.29
2134.791	418.26
2137.974	420.18
2141.157	421.47
2144.34	420.03
2147.523	427.9
2150.705	425.38
2153.887	427.69
2157.068	427.64
2160.25	423.86
2163.431	425.37
2166.611	430.63
2169.792	439.04
2172.972	444.28
2176.152	447.98
2179.331	454
2182.511	459.87
2185.69	465.7
2188.868	477.58
2192.047	478.11
2195.225	492.89
2198.403	505.72
2201.58	514.4
2204.758	525.32
2207.935	535.81
2211.111	546.33
2214.288	553.02
2217.464	555.17
2220.64	562.67
2223.815	569.49
2226.991	593.76
2230.166	594.89
2233.34	606.14
2236.515	615.3
2239.689	613.8
2242.863	616.65
2246.036	633.93
2249.209	628.59
2252.382	637.81
2255.555	658.07
2258.727	660.15
2261.9	665.48
2265.071	671.42
2268.243	681.2
2271.414	689.1
2274.585	706.15
2277.756	714.39
2280.926	718.24
2284.096	735.87
2287.266	753.51
2290.436	760.39
2293.605	777.31
2296.774	799.23
2299.942	823.03
2303.111	827.92
2306.279	848.2
2309.447	858.81
2312.614	883.13
2315.781	907.34
2318.948	950.87
2322.115	935.47
2325.281	985.18
2328.447	965.46
2331.613	1005.25
2334.779	996.71
2337.944	1039.12
2341.109	1048.3
2344.274	1078.17
2347.438	1114.42
2350.602	1114.37
2353.766	1147.27
2356.929	1166.68
2360.092	1156.14
2363.255	1242.27
2366.418	1237.83
2369.58	1264.03
2372.742	1344.53
2375.904	1379.95
2379.066	1369.52
2382.227	1341.54
2385.388	1456.41
2388.548	1454.18
2391.709	1474.76
2394.869	1643.52
2398.029	1568.54
2401.188	1613.85
2404.347	1604.19
2407.506	1575.27
2410.665	1620.49
2413.823	1719.92
2416.981	1823.81
2420.139	1763.47
2423.296	1743.86
2426.453	1823.17
2429.61	1756.74
2432.767	1838.7
2435.923	1819.62
2439.079	1985.84
2442.235	2015.18
2445.391	1993.25
2448.546	1976.9
2451.701	1924.34
2454.855	1922.33
2458.009	2044.62
2461.163	2122.94
2464.317	2190.99
2467.471	2256.27
2470.624	2253.18
2473.777	2196.73
2476.929	2137.21
2480.082	2079.06
2483.234	2054.82
2486.385	2150.3
2489.537	2162.62
2492.688	2240.86
2495.839	2180.82
2498.989	2135.36
2502.14	2140.67
2505.29	2168.3
2508.439	2196.59
2511.589	2192.44
2514.738	2392.65
2517.887	2340.77
2521.035	2475.21
2524.183	2497.54
2527.331	2517.55
2530.479	2500.06
2533.627	2523.66
