Data from N_3_DIV_OH_2N_Splice17_13-46-13-012.txt Node
Date: Sat Mar 07 13:46:13 EST 2020
User: sa697716
Spectrometer: NQ5500242
Trigger mode: 0
Integration Time (sec): 1.450000E-1
Scans to average: 20
Nonlinearity correction enabled: false
Boxcar width: 5
Storing dark spectrum: false
XAxis mode: Wavelengths
Number of Pixels in Spectrum: 512
>>>>>Begin Spectral Data<<<<<
187.83	215.51
188.298	244.19
188.766	225.9
189.233	175.29
189.701	175.15
190.169	233.15
190.636	289.97
191.104	506.69
191.571	431.22
192.039	75.88
192.506	-177.93
192.974	-79.3
193.441	77.69
193.908	61.55
194.375	31.56
194.842	-44.29
195.31	50.33
195.777	327.38
196.244	57.25
196.711	32.56
197.177	31.18
197.644	28.56
198.111	28.57
198.578	28.45
199.045	28.8
199.511	28.82
199.978	29.05
200.445	29.67
200.911	29.69
201.378	29.7
201.844	29.56
202.31	29.59
202.777	29.86
203.243	29.87
203.709	29.62
204.176	28.86
204.642	28.85
205.108	28.78
205.574	28.16
206.04	27.35
206.506	27.07
206.972	27.21
207.438	26.76
207.903	26.44
208.369	25.84
208.835	25.36
209.301	25
209.766	24.04
210.232	23.39
210.697	22.73
211.163	22.24
211.628	21.61
212.094	21.02
212.559	20.59
213.024	20.02
213.49	19.7
213.955	19.13
214.42	18.6
214.885	18.2
215.35	17.39
215.815	16.61
216.28	15.36
216.745	13.89
217.21	12.45
217.675	11.11
218.14	9.99
218.604	9.05
219.069	8.27
219.534	7.69
219.998	7.05
220.463	6.59
220.927	6.13
221.392	5.85
221.856	5.62
222.32	5.4
222.785	5.25
223.249	5.11
223.713	4.94
224.177	4.83
224.642	4.67
225.106	4.53
225.57	4.4
226.034	4.33
226.497	4.22
226.961	4.14
227.425	4.07
227.889	3.99
228.353	3.9
228.816	3.83
229.28	3.74
229.744	3.68
230.207	3.66
230.671	3.61
231.134	3.55
231.597	3.52
232.061	3.46
232.524	3.4
232.987	3.35
233.45	3.33
233.914	3.29
234.377	3.24
234.84	3.21
235.303	3.17
235.766	3.14
236.229	3.08
236.691	3.02
237.154	2.99
237.617	2.96
238.08	2.92
238.542	2.87
239.005	2.85
239.468	2.83
239.93	2.8
240.393	2.77
240.855	2.74
241.317	2.72
241.78	2.7
242.242	2.67
242.704	2.66
243.166	2.64
243.629	2.63
244.091	2.6
244.553	2.57
245.015	2.55
245.477	2.52
245.939	2.49
246.4	2.47
246.862	2.46
247.324	2.44
247.786	2.41
248.247	2.39
248.709	2.35
249.17	2.33
249.632	2.33
250.093	2.31
250.555	2.3
251.016	2.29
251.477	2.27
251.939	2.26
252.4	2.24
252.861	2.23
253.322	2.23
253.783	2.22
254.244	2.21
254.705	2.19
255.166	2.17
255.627	2.16
256.088	2.15
256.549	2.13
257.009	2.12
257.47	2.1
257.931	2.07
258.391	2.05
258.852	2.02
259.312	2.01
259.773	1.99
260.233	1.98
260.694	1.97
261.154	1.95
261.614	1.94
262.074	1.92
262.534	1.91
262.994	1.91
263.455	1.89
263.915	1.88
264.374	1.87
264.834	1.86
265.294	1.85
265.754	1.84
266.214	1.83
266.673	1.82
267.133	1.81
267.593	1.81
268.052	1.8
268.512	1.8
268.971	1.8
269.431	1.8
269.89	1.79
270.349	1.79
270.809	1.78
271.268	1.78
271.727	1.78
272.186	1.78
272.645	1.78
273.104	1.77
273.563	1.76
274.022	1.75
274.481	1.75
274.94	1.76
275.399	1.75
275.857	1.74
276.316	1.74
276.775	1.74
277.233	1.74
277.692	1.74
278.15	1.74
278.609	1.74
279.067	1.74
279.525	1.74
279.984	1.74
280.442	1.74
280.9	1.75
281.358	1.74
281.816	1.75
282.274	1.74
282.732	1.74
283.19	1.73
283.648	1.73
284.106	1.73
284.564	1.72
285.021	1.71
285.479	1.71
285.937	1.7
286.394	1.69
286.852	1.68
287.309	1.67
287.767	1.66
288.224	1.66
288.682	1.65
289.139	1.64
289.596	1.63
290.053	1.62
290.511	1.61
290.968	1.61
291.425	1.6
291.882	1.6
292.339	1.59
292.796	1.59
293.252	1.58
293.709	1.58
294.166	1.58
294.623	1.58
295.079	1.58
295.536	1.58
295.992	1.57
296.449	1.57
296.905	1.57
297.362	1.57
297.818	1.57
298.274	1.57
298.731	1.56
299.187	1.55
299.643	1.55
300.099	1.56
300.555	1.55
301.011	1.54
301.467	1.55
301.923	1.55
302.379	1.54
302.835	1.55
303.291	1.55
303.746	1.54
304.202	1.55
304.658	1.56
305.113	1.55
305.569	1.55
306.024	1.56
306.479	1.55
306.935	1.55
307.39	1.54
307.845	1.54
308.301	1.54
308.756	1.54
309.211	1.54
309.666	1.55
310.121	1.55
310.576	1.55
311.031	1.55
311.486	1.55
311.94	1.55
312.395	1.55
312.85	1.55
313.305	1.54
313.759	1.55
314.214	1.55
314.668	1.54
315.123	1.55
315.577	1.55
316.032	1.55
316.486	1.55
316.94	1.56
317.394	1.55
317.849	1.54
318.303	1.54
318.757	1.53
319.211	1.53
319.665	1.52
320.119	1.51
320.572	1.5
321.026	1.49
321.48	1.49
321.934	1.47
322.387	1.46
322.841	1.47
323.295	1.48
323.748	1.47
324.202	1.48
324.655	1.49
325.108	1.5
325.562	1.5
326.015	1.5
326.468	1.51
326.921	1.51
327.374	1.52
327.827	1.52
328.28	1.52
328.733	1.52
329.186	1.51
329.639	1.51
330.092	1.51
330.545	1.51
330.997	1.51
331.45	1.51
331.903	1.52
332.355	1.53
332.808	1.52
333.26	1.52
333.713	1.52
334.165	1.51
334.617	1.52
335.069	1.51
335.522	1.51
335.974	1.51
336.426	1.5
336.878	1.49
337.33	1.48
337.782	1.49
338.234	1.5
338.686	1.49
339.137	1.5
339.589	1.49
340.041	1.49
340.493	1.49
340.944	1.48
341.396	1.48
341.847	1.48
342.299	1.48
342.75	1.48
343.201	1.46
343.653	1.46
344.104	1.44
344.555	1.44
345.006	1.43
345.457	1.43
345.908	1.42
346.359	1.43
346.81	1.43
347.261	1.42
347.712	1.42
348.163	1.41
348.613	1.42
349.064	1.43
349.515	1.44
349.965	1.44
350.416	1.43
350.866	1.43
351.317	1.42
351.767	1.42
352.217	1.42
352.668	1.42
353.118	1.43
353.568	1.43
354.018	1.43
354.468	1.44
354.918	1.44
355.368	1.45
355.818	1.46
356.268	1.47
356.718	1.47
357.168	1.47
357.617	1.46
358.067	1.45
358.517	1.46
358.966	1.46
359.416	1.46
359.865	1.46
360.315	1.46
360.764	1.47
361.213	1.47
361.663	1.46
362.112	1.47
362.561	1.48
363.01	1.49
363.459	1.48
363.908	1.48
364.357	1.48
364.806	1.48
365.255	1.48
365.703	1.48
366.152	1.49
366.601	1.5
367.05	1.5
367.498	1.5
367.947	1.5
368.395	1.51
368.844	1.53
369.292	1.52
369.74	1.54
370.189	1.55
370.637	1.55
371.085	1.55
371.533	1.56
371.981	1.56
372.429	1.58
372.877	1.58
373.325	1.59
373.773	1.59
374.221	1.61
374.669	1.61
375.116	1.62
375.564	1.63
376.012	1.64
376.459	1.66
376.907	1.68
377.354	1.69
377.801	1.72
378.249	1.73
378.696	1.76
379.143	1.78
379.591	1.81
380.038	1.83
380.485	1.86
380.932	1.88
381.379	1.91
381.826	1.93
382.273	1.96
382.72	1.96
383.166	1.98
383.613	2
384.06	2.01
384.506	2.03
384.953	2.06
385.4	2.08
385.846	2.1
386.292	2.13
386.739	2.14
387.185	2.16
387.631	2.2
388.078	2.24
388.524	2.27
388.97	2.3
389.416	2.34
389.862	2.37
390.308	2.4
390.754	2.44
391.2	2.47
391.645	2.5
392.091	2.55
392.537	2.58
392.983	2.61
393.428	2.65
393.874	2.68
394.319	2.71
394.765	2.74
395.21	2.77
395.655	2.79
396.101	2.81
396.546	2.84
396.991	2.85
397.436	2.88
397.881	2.91
398.326	2.92
398.771	2.95
399.216	2.96
399.661	2.97
400.106	3
400.551	3.02
400.995	3.03
401.44	3.05
401.885	3.07
402.329	3.09
402.774	3.1
403.218	3.14
403.663	3.16
404.107	3.17
404.551	3.19
404.995	3.19
405.44	3.19
405.884	3.2
406.328	3.21
406.772	3.2
407.216	3.21
407.66	3.2
408.104	3.16
408.547	3.16
408.991	3.17
409.435	3.18
409.879	3.19
410.322	3.2
410.766	3.22
411.209	3.23
411.653	3.24
412.096	3.26
412.54	3.27
412.983	3.29
413.426	3.33
413.869	3.34
414.312	3.34
414.756	3.35
415.199	3.35
415.642	3.34
416.085	3.35
416.527	3.34
416.97	3.33
417.413	3.33
417.856	3.32
418.298	3.3
418.741	3.29
419.184	3.28
419.626	3.28
420.069	3.29
420.511	3.3
420.953	3.31
421.396	3.32
421.838	3.32
422.28	3.33
422.722	3.35
423.164	3.35
423.606	3.36
424.048	3.37
424.49	3.36
424.932	3.35
425.374	3.33
425.816	3.3
426.258	3.29
426.699	3.28
427.141	3.27
427.582	3.25
428.024	3.25
428.465	3.24
428.907	3.23
429.348	3.22
429.789	3.21
430.231	3.23
430.672	3.25
431.113	3.26
431.554	3.26
431.995	3.27
432.436	3.28
432.877	3.3
433.318	3.33
433.759	3.35
434.2	3.36
434.64	3.38
435.081	3.38
435.522	3.39
435.962	3.4
436.403	3.43
436.843	3.43
437.284	3.42
437.724	3.42
438.164	3.39
438.604	3.41
439.045	3.43
439.485	3.45
439.925	3.45
440.365	3.46
440.805	3.47
441.245	3.49
441.685	3.53
442.125	3.55
442.564	3.56
443.004	3.59
443.444	3.61
443.883	3.63
444.323	3.62
444.762	3.65
445.202	3.69
445.641	3.72
446.081	3.74
446.52	3.76
446.959	3.8
447.398	3.85
447.837	3.87
448.276	3.9
448.716	3.93
449.154	3.98
449.593	4
450.032	4.01
450.471	4.02
450.91	4.02
451.349	4.05
451.787	4.05
452.226	4.05
452.664	4.07
453.103	4.06
453.541	4.08
453.98	4.07
454.418	4.06
454.856	4.06
455.295	4.05
455.733	4.04
456.171	4.03
456.609	4.02
457.047	4.01
457.485	4
457.923	4.01
458.361	3.99
458.798	3.99
459.236	3.99
459.674	3.99
460.111	3.99
460.549	4
460.987	4.01
461.424	4.01
461.862	4.02
462.299	4.03
462.736	4.03
463.173	4.04
463.611	4.06
464.048	4.08
464.485	4.09
464.922	4.1
465.359	4.1
465.796	4.14
466.233	4.14
466.67	4.15
467.106	4.16
467.543	4.16
467.98	4.15
468.416	4.12
468.853	4.12
469.29	4.1
469.726	4.1
470.162	4.11
470.599	4.07
471.035	4.06
471.471	4.05
471.907	4.04
472.344	4.03
472.78	4.04
473.216	4.04
473.652	4.05
474.088	4.05
474.523	4.06
474.959	4.07
475.395	4.06
475.831	4.06
476.266	4.07
476.702	4.08
477.138	4.08
477.573	4.09
478.008	4.1
478.444	4.1
478.879	4.11
479.314	4.11
479.75	4.11
480.185	4.1
480.62	4.1
481.055	4.09
481.49	4.09
481.925	4.1
482.36	4.11
482.795	4.12
483.229	4.13
483.664	4.14
484.099	4.15
484.534	4.15
484.968	4.17
485.403	4.19
485.837	4.21
486.271	4.24
486.706	4.25
487.14	4.26
487.574	4.28
488.009	4.31
488.443	4.32
488.877	4.36
489.311	4.4
489.745	4.43
490.179	4.48
490.613	4.53
491.046	4.57
491.48	4.61
491.914	4.66
492.348	4.7
492.781	4.76
493.215	4.81
493.648	4.87
494.082	4.93
494.515	4.99
494.948	5.04
495.382	5.09
495.815	5.16
496.248	5.24
496.681	5.31
497.114	5.39
497.547	5.47
497.98	5.56
498.413	5.65
498.846	5.73
499.279	5.82
499.711	5.91
500.144	6.02
500.577	6.13
501.009	6.23
501.442	6.35
501.874	6.47
502.306	6.58
502.739	6.73
503.171	6.86
503.603	6.99
504.036	7.12
504.468	7.26
504.9	7.39
505.332	7.53
505.764	7.68
506.196	7.83
506.627	7.99
507.059	8.13
507.491	8.27
507.923	8.43
508.354	8.61
508.786	8.78
509.217	8.97
509.649	9.16
510.08	9.34
510.512	9.54
510.943	9.73
511.374	9.92
511.805	10.12
512.237	10.31
512.668	10.49
513.099	10.67
513.53	10.87
513.961	11.08
514.391	11.28
514.822	11.5
515.253	11.69
515.684	11.9
516.114	12.11
516.545	12.33
516.975	12.54
517.406	12.76
517.836	12.96
518.267	13.19
518.697	13.39
519.127	13.58
519.558	13.76
519.988	13.95
520.418	14.13
520.848	14.3
521.278	14.47
521.708	14.91
522.138	15.08
522.567	15.25
522.997	15.39
523.427	15.55
523.857	15.71
524.286	15.85
524.716	16.01
525.145	16.16
525.575	16.29
526.004	16.43
526.433	16.31
526.863	16.42
527.292	16.55
527.721	16.66
528.15	16.77
528.579	16.88
529.008	16.98
529.437	17.07
529.866	17.16
530.295	17.25
530.724	17.34
531.152	17.42
531.581	17.5
532.01	17.58
532.438	17.65
532.867	17.72
533.295	17.77
533.723	17.83
534.152	17.88
534.58	17.93
535.008	17.97
535.436	18.02
535.865	18.06
536.293	18.08
536.721	18.1
537.149	18.14
537.576	18.17
538.004	18.21
538.432	18.23
538.86	18.26
539.287	18.27
539.715	18.31
540.143	18.31
540.57	18.33
540.998	18.35
541.425	18.39
541.852	18.4
542.28	18.43
542.707	18.45
543.134	18.47
543.561	18.49
543.988	18.53
544.415	18.53
544.842	18.55
545.269	18.57
545.696	18.59
546.123	18.6
546.549	18.62
546.976	18.64
547.403	18.65
547.829	18.66
548.256	18.67
548.682	18.68
549.108	18.69
549.535	18.72
549.961	18.72
550.387	18.71
550.813	18.72
551.24	18.72
551.666	18.71
552.092	18.71
552.518	18.71
552.943	18.7
553.369	18.69
553.795	18.68
554.221	18.67
554.646	18.64
555.072	18.64
555.498	18.59
555.923	18.56
556.349	18.52
556.774	18.47
557.199	18.43
557.625	18.38
558.05	18.35
558.475	18.3
558.9	18.25
559.325	18.21
559.75	18.14
560.175	18.11
560.6	18.04
561.025	17.98
561.449	17.91
561.874	17.84
562.299	17.78
562.723	17.69
563.148	17.61
563.572	17.51
563.997	17.42
564.421	17.34
564.846	17.25
565.27	17.16
565.694	17.06
566.118	16.97
566.542	16.9
566.966	16.8
567.39	16.72
567.814	16.62
568.238	16.53
568.662	16.44
569.086	16.36
569.509	16.26
569.933	16.18
570.357	16.1
570.78	16.01
571.204	15.93
571.627	15.85
572.05	15.76
572.474	15.71
572.897	15.64
573.32	15.55
573.743	15.46
574.166	15.39
574.589	15.3
575.012	15.23
575.435	15.16
575.858	15.08
576.281	15.01
576.704	14.94
577.126	14.86
577.549	14.77
577.972	14.71
578.394	14.64
578.817	14.58
579.239	14.52
579.661	14.47
580.084	14.4
580.506	14.35
580.928	14.28
581.35	14.22
581.772	14.16
582.194	14.11
582.616	14.05
583.038	14
583.46	13.94
583.882	13.89
584.303	13.84
584.725	13.78
585.147	13.76
585.568	13.72
585.99	13.67
586.411	13.63
586.833	13.59
587.254	13.55
587.675	13.49
588.096	13.44
588.518	13.41
588.939	13.38
589.36	13.35
589.781	13.28
590.202	13.26
590.623	13.23
591.043	13.18
591.464	13.15
591.885	13.12
592.305	13.11
592.726	13.09
593.147	13.05
593.567	13.01
593.987	12.97
594.408	12.94
594.828	12.91
595.248	12.89
595.669	12.88
596.089	12.86
596.509	12.84
596.929	12.8
597.349	12.78
597.769	12.76
598.189	12.74
598.608	12.73
599.028	12.71
599.448	12.68
599.867	12.65
600.287	12.63
600.706	12.61
601.126	12.59
601.545	12.57
601.965	12.54
602.384	12.52
602.803	12.48
603.222	12.45
603.641	12.41
604.061	12.39
604.48	12.34
604.898	12.29
605.317	12.25
605.736	12.2
606.155	12.16
606.574	12.1
606.992	12.04
607.411	11.99
607.829	11.91
608.248	11.85
608.666	11.79
609.085	11.73
609.503	11.69
609.921	11.63
610.339	11.56
610.758	11.51
611.176	11.44
611.594	11.4
612.012	11.34
612.43	11.31
612.847	11.25
613.265	11.19
613.683	11.13
614.101	11.08
614.518	11.01
614.936	10.96
615.353	10.91
615.771	10.87
616.188	10.82
616.606	10.78
617.023	10.73
617.44	10.71
617.857	10.66
618.274	10.62
618.691	10.58
619.108	10.55
619.525	10.51
619.942	10.48
620.359	10.45
620.776	10.43
621.192	10.4
621.609	10.37
622.026	10.34
622.442	10.33
622.859	10.31
623.275	10.29
623.691	10.29
624.108	10.27
624.524	10.26
624.94	10.25
625.356	10.23
625.772	10.2
626.188	10.19
626.604	10.18
627.02	10.15
627.436	10.15
627.852	10.14
628.268	10.12
628.683	10.12
629.099	10.11
629.514	10.09
629.93	10.08
630.345	10.07
630.761	10.04
631.176	10.02
631.591	10.01
632.007	9.99
632.422	9.95
632.837	9.91
633.252	9.86
633.667	9.81
634.082	9.76
634.497	9.71
634.911	9.65
635.326	9.6
635.741	9.54
636.155	9.46
636.57	9.39
636.984	9.32
637.399	9.25
637.813	9.16
638.228	9.07
638.642	8.98
639.056	8.89
639.47	8.82
639.884	8.74
640.298	8.63
640.712	8.54
641.126	8.44
641.54	8.35
641.954	8.24
642.368	8.16
642.781	8.08
643.195	7.99
643.609	7.9
644.022	7.8
644.436	7.7
644.849	7.62
645.262	7.54
645.676	7.46
646.089	7.39
646.502	7.34
646.915	7.27
647.328	7.21
647.741	7.16
648.154	7.1
648.567	7.06
648.98	7.01
649.393	6.98
649.805	6.94
650.218	6.9
650.631	6.87
651.043	6.83
651.456	6.79
651.868	6.75
652.28	6.71
652.693	6.69
653.105	6.65
653.517	6.61
653.929	6.56
654.341	6.52
654.753	6.47
655.165	6.42
655.577	6.37
655.989	6.3
656.401	6.25
656.813	6.19
657.224	6.12
657.636	6.04
658.047	5.97
658.459	5.9
658.87	5.82
659.282	5.73
659.693	5.66
660.104	5.57
660.515	5.49
660.926	5.41
661.338	5.32
661.749	5.24
662.159	5.16
662.57	5.09
662.981	5.01
663.392	4.93
663.803	4.87
664.213	4.79
664.624	4.73
665.035	4.66
665.445	4.6
665.855	4.55
666.266	4.51
666.676	4.47
667.086	4.41
667.497	4.37
667.907	4.33
668.317	4.3
668.727	4.28
669.137	4.25
669.547	4.24
669.956	4.22
670.366	4.21
670.776	4.19
671.186	4.18
671.595	4.17
672.005	4.16
672.414	4.17
672.824	4.17
673.233	4.17
673.642	4.18
674.052	4.18
674.461	4.2
674.87	4.2
675.279	4.23
675.688	4.26
676.097	4.29
676.506	4.32
676.915	4.35
677.323	4.37
677.732	4.39
678.141	4.43
678.549	4.46
678.958	4.5
679.366	4.56
679.775	4.61
680.183	4.68
680.592	4.76
681	4.84
681.408	4.93
681.816	5.04
682.224	5.16
682.632	5.29
683.04	5.42
683.448	5.58
683.856	5.73
684.264	5.9
684.671	6.07
685.079	6.25
685.487	6.46
685.894	6.69
686.302	6.92
686.709	7.18
687.116	7.46
687.524	7.75
687.931	8.05
688.338	8.38
688.745	8.71
689.152	9.06
689.559	9.43
689.966	9.8
690.373	10.19
690.78	10.57
691.187	10.96
691.593	11.34
692	11.74
692.407	12.14
692.813	12.54
693.22	12.94
693.626	13.34
694.032	13.74
694.439	14.13
694.845	14.53
695.251	14.91
695.657	15.3
696.063	15.7
696.469	16.08
696.875	16.47
697.281	16.84
697.687	17.22
698.093	17.58
698.498	17.92
698.904	18.27
699.31	18.62
699.715	18.98
700.12	19.32
700.526	19.64
700.931	19.97
701.337	20.27
701.742	20.56
702.147	20.85
702.552	21.15
702.957	21.42
703.362	21.7
703.767	21.93
704.172	22.17
704.577	22.42
704.981	22.66
705.386	22.88
705.791	23.11
706.195	23.35
706.6	23.57
707.004	23.79
707.408	24.02
707.813	24.24
708.217	24.47
708.621	24.69
709.025	24.89
709.43	25.09
709.834	25.3
710.237	25.5
710.641	25.69
711.045	25.88
711.449	26.06
711.853	26.25
712.256	26.4
712.66	26.57
713.064	26.71
713.467	26.87
713.87	27.04
714.274	27.19
714.677	27.35
715.08	27.49
715.484	27.65
715.887	27.82
716.29	27.94
716.693	28.08
717.096	28.22
717.499	28.37
717.901	28.51
718.304	28.62
718.707	28.77
719.109	28.9
719.512	29.02
719.915	29.14
720.317	29.23
720.719	29.29
721.122	29.42
721.524	29.51
721.926	29.61
722.328	29.72
722.731	29.81
723.133	29.87
723.535	29.95
723.937	30.07
724.338	30.14
724.74	30.24
725.142	30.57
725.544	30.64
725.945	30.79
726.347	30.83
726.748	30.88
727.15	30.93
727.551	31.02
727.952	31.08
728.354	31.1
728.755	31.14
729.156	31.18
729.557	30.99
729.958	31.03
730.359	31.01
730.76	31.07
731.161	31.13
731.562	31.18
731.962	31.19
732.363	31.25
732.763	31.28
733.164	31.32
733.564	31.37
733.965	31.42
734.365	31.46
734.766	31.5
735.166	31.55
735.566	31.59
735.966	31.66
736.366	31.71
736.766	31.7
737.166	31.74
737.566	31.78
737.966	31.81
738.365	31.83
738.765	31.84
739.165	31.86
739.564	31.85
739.964	31.86
740.363	31.86
740.763	31.88
741.162	31.92
741.561	31.93
741.96	31.91
742.36	31.91
742.759	31.93
743.158	31.95
743.557	31.97
743.955	31.99
744.354	31.99
744.753	31.99
745.152	32
745.55	31.99
745.949	32
746.348	32.03
746.746	32.04
747.144	32.06
747.543	32.06
747.941	32.07
748.339	32.05
748.737	32.05
749.136	32.06
749.534	32.03
749.932	32.04
750.33	32.03
750.727	32.02
751.125	32.02
751.523	31.99
751.921	32.01
752.318	32.01
752.716	32.03
753.113	32.03
753.511	32.04
753.908	32.07
754.305	32.11
754.703	32.12
755.1	32.15
755.497	32.15
755.894	32.15
756.291	32.14
756.688	32.14
757.085	32.17
757.482	32.17
757.878	32.17
758.275	32.17
758.672	32.13
759.068	32.12
759.465	32.11
759.861	32.12
760.258	32.12
760.654	32.11
761.05	32.11
761.447	32.07
761.843	32.07
762.239	32.05
762.635	32.05
763.031	32.04
763.427	32.03
763.822	32.03
764.218	32.03
764.614	32.04
765.01	32.03
765.405	32.02
765.801	32.04
766.196	32.04
766.592	32.05
766.987	32.04
767.382	32.03
767.778	32.05
768.173	32.06
768.568	32.02
768.963	32.03
769.358	32.04
769.753	32.04
770.148	32.05
770.542	32.03
770.937	32.03
771.332	32.04
771.726	32.05
772.121	32.04
772.515	32.03
772.91	32.04
773.304	32.05
773.699	32.05
774.093	32.04
774.487	32.02
774.881	32.05
775.275	32.07
775.669	32.04
776.063	32.04
776.457	32.04
776.851	32.03
777.245	32
777.638	31.99
778.032	32.01
778.425	32.03
778.819	32.06
779.212	32.07
779.606	32.08
779.999	32.08
780.392	32.11
780.786	32.08
781.179	32.09
781.572	32.12
781.965	32.12
782.358	32.12
782.751	32.12
783.143	32.09
783.536	32.09
783.929	32.05
784.322	32.05
784.714	32.04
785.107	32.09
785.499	32.09
785.891	32.09
786.284	32.09
786.676	32.06
787.068	32.06
787.46	32.03
787.852	32.02
788.245	32.02
788.636	32
789.028	31.97
789.42	31.95
789.812	31.94
790.204	31.92
790.595	31.92
790.987	31.92
791.378	31.94
791.77	31.94
792.161	31.95
792.553	31.95
792.944	31.97
793.335	31.98
793.726	31.98
794.117	31.98
794.508	31.95
794.899	31.94
795.29	31.93
795.681	31.9
796.072	31.91
796.463	31.96
796.853	31.97
797.244	31.97
797.634	31.97
798.025	32
798.415	32
798.806	32.03
799.196	32.03
799.586	32.04
799.976	32.06
800.366	32.07
800.756	32.01
801.146	32
801.536	31.99
801.926	31.96
802.316	31.94
802.706	31.94
803.095	31.93
803.485	31.94
803.874	31.93
804.264	31.93
804.653	31.93
805.043	31.94
805.432	31.96
805.821	31.98
806.21	32.02
806.599	32.02
806.988	32.01
807.377	32
807.766	31.99
808.155	31.97
808.544	31.96
808.933	31.93
809.321	31.9
809.71	31.9
810.098	31.88
810.487	31.85
810.875	31.84
811.264	31.85
811.652	31.92
812.04	31.92
812.428	31.97
812.816	31.98
813.204	31.99
813.592	31.98
813.98	31.96
814.368	31.98
814.756	31.98
815.144	31.98
815.531	31.97
815.919	31.89
816.306	31.87
816.694	31.84
817.081	31.85
817.469	31.87
817.856	31.85
818.243	31.84
818.63	31.82
819.017	31.81
819.404	31.79
819.791	31.77
820.178	31.78
820.565	31.79
820.952	31.81
821.339	31.79
821.725	31.76
822.112	31.78
822.498	31.8
822.885	31.8
823.271	31.8
823.657	31.78
824.044	31.79
824.43	31.78
824.816	31.8
825.202	31.75
825.588	31.75
825.974	31.76
826.36	31.76
826.746	31.74
827.132	31.74
827.517	31.73
827.903	31.75
828.289	31.76
828.674	31.76
829.06	31.72
829.445	31.73
829.83	31.72
830.216	31.7
830.601	31.69
830.986	31.7
831.371	31.69
831.756	31.69
832.141	31.69
832.526	31.68
832.911	31.67
833.295	31.67
833.68	31.67
834.065	31.65
834.449	31.64
834.834	31.64
835.218	31.64
835.603	31.64
835.987	31.63
836.371	31.6
836.755	31.59
837.139	31.58
837.524	31.59
837.908	31.6
838.291	31.62
838.675	31.62
839.059	31.62
839.443	31.59
839.827	31.56
840.21	31.56
840.594	31.56
840.977	31.58
841.361	31.58
841.744	31.55
842.127	31.52
842.511	31.49
842.894	31.48
843.277	31.47
843.66	31.47
844.043	31.48
844.426	31.49
844.809	31.47
845.191	31.47
845.574	31.47
845.957	31.5
846.339	31.51
846.722	31.52
847.104	31.55
847.487	31.54
847.869	31.56
848.252	31.56
848.634	31.55
849.016	31.57
849.398	31.57
849.78	31.56
850.162	31.54
850.544	31.53
850.926	31.53
851.307	31.51
851.689	31.53
852.071	31.52
852.452	31.51
852.834	31.52
853.215	31.51
853.597	31.51
853.978	31.52
854.359	31.52
854.741	31.53
855.122	31.51
855.503	31.49
855.884	31.48
856.265	31.47
856.646	31.44
857.026	31.45
857.407	31.45
857.788	31.43
858.169	31.44
858.549	31.43
858.93	31.42
859.31	31.42
859.69	31.44
860.071	31.46
860.451	31.48
860.831	31.47
861.211	31.45
861.591	31.42
861.971	31.42
862.351	31.41
862.731	31.42
863.111	31.42
863.491	31.42
863.87	31.4
864.25	31.36
864.629	31.34
865.009	31.34
865.388	31.35
865.768	31.36
866.147	31.36
866.526	31.37
866.905	31.36
867.284	31.36
867.663	31.38
868.042	31.38
868.421	31.38
868.8	31.38
869.179	31.38
869.558	31.39
869.936	31.39
870.315	31.37
870.693	31.37
871.072	31.38
871.45	31.38
871.828	31.38
872.207	31.4
872.585	31.39
872.963	31.39
873.341	31.38
873.719	31.37
874.097	31.37
874.475	31.38
874.853	31.35
875.23	31.35
875.608	31.33
875.986	31.35
876.363	31.32
876.741	31.33
877.118	31.32
877.495	31.34
877.873	31.34
878.25	31.35
878.627	31.34
879.004	31.33
879.381	31.3
879.758	31.3
880.135	31.26
880.512	31.27
880.889	31.26
881.265	31.25
881.642	31.24
882.019	31.26
882.395	31.25
882.772	31.25
883.148	31.24
883.524	31.26
883.901	31.28
884.277	31.28
884.653	31.25
885.029	31.24
885.405	31.25
885.781	31.23
886.157	31.2
886.532	31.19
886.908	31.19
887.284	31.21
887.659	31.19
888.035	31.17
888.411	31.16
888.786	31.18
889.161	31.19
889.537	31.18
889.912	31.2
890.287	31.19
890.662	31.18
891.037	31.17
891.412	31.14
891.787	31.13
892.162	31.15
892.536	31.14
892.911	31.15
893.286	31.13
893.66	31.13
894.035	31.12
894.409	31.13
894.784	31.12
895.158	31.12
895.532	31.14
895.906	31.15
896.281	31.16
896.655	31.15
897.029	31.14
897.402	31.14
897.776	31.14
898.15	31.13
898.524	31.13
898.898	31.14
899.271	31.15
899.645	31.17
900.018	31.17
900.392	31.16
900.765	31.16
901.138	31.15
901.511	31.16
901.884	31.18
902.258	31.17
902.631	31.18
903.003	31.17
903.376	31.15
903.749	31.12
904.122	31.12
904.495	31.14
904.867	31.14
905.24	31.14
905.612	31.15
905.985	31.13
906.357	31.15
906.729	31.15
907.102	31.15
907.474	31.17
907.846	31.18
908.218	31.17
908.59	31.17
908.962	31.15
909.334	31.18
909.705	31.18
910.077	31.2
910.449	31.19
910.82	31.21
911.192	31.22
911.563	31.2
911.935	31.18
912.306	31.18
912.677	31.18
913.048	31.21
913.419	31.17
913.79	31.19
914.161	31.17
914.532	31.17
914.903	31.18
915.274	31.16
915.645	31.17
916.015	31.2
916.386	31.2
916.756	31.19
917.127	31.18
917.497	31.21
917.868	31.2
918.238	31.21
918.608	31.21
918.978	31.19
919.348	31.21
919.718	31.2
920.088	31.2
920.458	31.23
920.828	31.23
921.198	31.22
921.567	31.23
921.937	31.24
922.306	31.23
922.676	31.22
923.045	31.25
923.415	31.26
923.784	31.28
924.153	31.3
924.522	31.29
924.891	31.29
925.26	31.3
925.629	31.32
925.998	31.33
926.367	31.33
926.736	31.38
927.104	31.34
927.473	31.33
927.842	31.33
928.21	31.33
928.578	31.33
928.947	31.36
929.315	31.36
929.683	31.37
930.051	31.35
930.42	31.37
930.788	31.33
931.156	31.36
931.523	31.39
931.891	31.43
932.259	31.46
932.627	31.51
932.994	31.52
933.362	31.55
933.729	31.57
934.097	31.63
934.464	31.67
934.831	31.72
935.199	31.73
935.566	31.73
935.933	31.7
936.3	31.68
936.667	31.63
937.034	31.67
937.401	31.68
937.767	31.66
938.134	31.62
938.501	31.58
938.867	31.57
939.234	31.58
939.6	31.53
939.967	31.57
940.333	31.54
940.699	31.56
941.065	31.45
941.431	31.41
941.798	31.4
942.163	31.37
942.529	31.35
942.895	31.31
943.261	31.27
943.627	31.27
943.992	31.24
944.358	31.22
944.723	31.23
945.089	31.16
945.454	31.18
945.82	31.16
946.185	31.15
946.55	31.13
946.915	31.11
947.28	31.06
947.645	31.09
948.01	31.1
948.375	31.1
948.74	31.04
949.104	31.06
949.469	30.99
949.834	30.95
950.198	30.95
950.562	30.94
950.927	30.92
951.291	30.9
951.655	30.85
952.02	30.81
952.384	30.77
952.748	30.79
953.112	30.82
953.476	30.84
953.839	30.81
954.203	30.78
954.567	30.74
954.931	30.71
955.294	30.71
955.658	30.76
956.021	30.75
956.385	30.73
956.748	30.71
957.111	30.68
957.474	30.66
957.837	30.67
958.2	30.64
958.563	30.68
958.926	30.72
959.289	30.74
959.652	30.69
960.015	30.7
960.377	30.68
960.74	30.71
961.102	30.7
961.465	30.75
961.827	30.85
962.189	30.92
962.552	30.9
962.914	30.89
963.276	30.91
963.638	30.93
964	30.89
964.362	30.94
964.724	30.88
965.085	30.9
965.447	30.84
965.809	30.75
966.17	30.72
966.532	30.74
966.893	30.76
967.255	30.75
967.616	30.77
967.977	30.83
968.338	30.87
968.699	30.93
969.061	30.94
969.421	30.99
969.782	31.04
970.143	31.06
970.504	31.1
970.865	31.1
971.225	31.13
971.586	31.11
971.946	31.1
972.307	31.05
972.667	31.04
973.027	31.08
973.388	31.09
973.748	31.07
974.108	31.12
974.468	31.05
974.828	31.1
975.188	31.08
975.548	31.06
975.907	31.09
976.267	31.1
976.627	31.1
976.986	31.06
977.346	31.02
977.705	31.03
978.064	31.05
978.424	31.14
978.783	31.07
979.142	31.12
979.501	31.18
979.86	31.19
980.219	31.25
980.578	31.26
980.937	31.3
981.296	31.36
981.654	31.32
982.013	31.28
982.371	31.25
982.73	31.38
983.088	31.31
983.447	31.26
983.805	31.28
984.163	31.21
984.521	31.2
984.879	31.19
985.237	31.26
985.595	31.4
985.953	31.4
986.311	31.34
986.669	31.22
987.026	31.22
987.384	31.31
987.741	31.21
988.099	31.28
988.456	31.3
988.814	31.35
989.171	31.22
989.528	31.06
989.885	30.96
990.242	31.01
990.599	31.08
990.956	31.04
991.313	30.95
991.67	31.06
992.027	31.25
992.383	31.29
992.74	31.39
993.096	31.49
993.453	31.58
993.809	31.75
994.165	31.78
994.522	31.95
994.878	32.1
995.234	32.2
995.59	32.21
995.946	32.03
996.302	32.04
996.658	31.97
997.013	31.97
997.369	32
997.725	31.99
998.08	32.06
998.436	31.85
998.791	31.83
999.147	31.81
999.502	31.85
999.857	31.82
1000.212	31.74
1000.567	31.73
1000.922	31.62
1001.277	31.58
1001.632	31.41
1001.987	31.3
1002.342	31.24
1002.696	31.2
1003.051	31.31
1003.406	31.3
1003.76	31.33
1004.114	31.37
1004.469	31.41
1004.823	31.78
1005.177	31.7
1005.531	31.86
1005.885	31.93
1006.239	32.06
1006.593	32.25
1006.947	32.11
1007.301	32.05
1007.655	31.9
1008.008	31.95
1008.362	31.92
1008.715	31.75
1009.069	31.82
1009.422	31.96
1009.776	31.91
1010.129	31.82
1010.482	31.63
1010.835	31.71
1011.188	31.73
1011.541	31.97
1011.894	32.01
1012.247	32.05
1012.6	32.01
1012.952	32.06
1013.305	31.9
1013.657	32.15
1014.01	32.3
1014.362	32.33
1014.715	32.48
1015.067	32.54
1015.419	32.5
1015.771	32.57
1016.123	32.61
1016.475	32.56
1016.827	32.55
1017.179	32.66
1017.531	32.56
1017.883	32.5
1018.234	32.76
1018.586	32.73
1018.938	33.13
1019.289	33.07
1019.64	32.82
1019.992	32.82
1020.343	32.79
1020.694	32.95
1021.045	32.98
1021.396	32.84
1021.747	32.98
1022.098	32.86
1022.449	32.71
1022.8	32.61
1023.151	32.61
1023.501	33.04
1023.852	32.88
1024.202	33.17
1024.553	32.85
1024.903	33.14
1025.253	33.32
1025.604	33.39
1025.954	33.23
1026.304	33.25
1026.654	33.04
1027.004	33.05
1027.354	32.7
1027.703	32.82
1028.053	32.73
1028.403	33.08
1028.753	32.35
1029.102	32.18
1029.452	31.8
1029.801	31.77
1030.15	31.67
1030.499	31.35
897.758	2106.28
901.051	2111.05
904.343	2098.92
907.636	2143.09
910.928	2086.86
914.22	2080.01
917.511	2049.06
920.803	1960.75
924.094	1951.94
927.384	1908.58
930.675	1820.13
933.965	1806.33
937.255	1701.74
940.544	1634.61
943.834	1546.12
947.123	1530.86
950.411	1442.75
953.7	1410.69
956.988	1333.79
960.276	1273.07
963.563	1253.47
966.851	1209.03
970.138	1201.06
973.424	1160.71
976.711	1168.05
979.997	1109.77
983.283	1105
986.568	1080.11
989.853	1042.18
993.138	1025.34
996.423	986.9
999.708	959.09
1002.992	949.92
1006.275	900.78
1009.559	891.85
1012.842	858.17
1016.125	833.9
1019.408	818.65
1022.69	806.15
1025.972	791.85
1029.254	771
1032.536	757.78
1035.817	739.57
1039.098	728.58
1042.379	712.73
1045.659	704.84
1048.939	687.02
1052.219	673.01
1055.498	659.08
1058.778	646.07
1062.057	628.82
1065.335	620.68
1068.614	613.44
1071.892	606.99
1075.17	585.01
1078.447	574.79
1081.724	571.06
1085.001	565.66
1088.278	553.68
1091.554	543.28
1094.83	541.55
1098.106	539
1101.382	533.33
1104.657	529.1
1107.932	519.71
1111.206	524.3
1114.481	510.09
1117.755	503.62
1121.029	500.06
1124.302	501.01
1127.575	489.91
1130.848	483.27
1134.121	477.25
1137.393	476.16
1140.665	464.39
1143.937	462.87
1147.208	456.27
1150.48	457.33
1153.75	450.94
1157.021	442.77
1160.291	442
1163.561	437.88
1166.831	437.15
1170.101	435.39
1173.37	431.72
1176.639	433.91
1179.907	428.73
1183.176	425.72
1186.444	424.4
1189.711	423.93
1192.979	422.92
1196.246	418.8
1199.513	420.82
1202.78	419.35
1206.046	418.61
1209.312	414.77
1212.578	415.1
1215.843	418.51
1219.108	415.6
1222.373	424.56
1225.638	428.39
1228.902	436.21
1232.166	436.33
1235.43	439.8
1238.693	445.93
1241.956	447.22
1245.219	456.6
1248.482	455.56
1251.744	455.52
1255.006	457.58
1258.268	445.6
1261.529	440.75
1264.79	435.67
1268.051	433.31
1271.312	427.83
1274.572	421.7
1277.832	417.71
1281.092	409.47
1284.351	406.75
1287.61	406.4
1290.869	399.88
1294.128	397.06
1297.386	396.12
1300.644	392.42
1303.902	394.71
1307.159	391.88
1310.416	393.13
1313.673	393.07
1316.93	397.53
1320.186	397.96
1323.442	399.37
1326.697	407.93
1329.953	408.05
1333.208	411.64
1336.463	416.06
1339.717	416.38
1342.972	421.32
1346.226	424.47
1349.479	424.83
1352.733	428.32
1355.986	429.68
1359.238	430.34
1362.491	432.89
1365.743	438.26
1368.995	437.83
1372.247	436.66
1375.498	437.66
1378.749	444.74
1382	438.24
1385.251	442.62
1388.501	438.34
1391.751	443.65
1395	440.77
1398.25	438.26
1401.499	437.24
1404.748	437.76
1407.996	434.12
1411.244	432.37
1414.492	430.71
1417.74	428.85
1420.987	420.47
1424.234	423.81
1427.481	414.9
1430.728	416.78
1433.974	410.68
1437.22	408.12
1440.465	406.8
1443.711	405.99
1446.956	404.18
1450.201	396.15
1453.445	392.57
1456.689	392.52
1459.933	384.02
1463.177	382.28
1466.42	374.6
1469.663	370.77
1472.906	368.18
1476.148	357.73
1479.391	352.1
1482.633	347.26
1485.874	343.37
1489.115	341.26
1492.356	335.47
1495.597	334.59
1498.838	328.75
1502.078	326.59
1505.318	324.68
1508.557	324.42
1511.797	324.33
1515.036	321.9
1518.274	320.51
1521.513	315.29
1524.751	315.29
1527.989	314.26
1531.227	312.31
1534.464	313.85
1537.701	310.76
1540.938	309.5
1544.174	304.59
1547.41	303.33
1550.646	302.61
1553.882	302.61
1557.117	299.3
1560.352	296.12
1563.587	295.12
1566.821	292.97
1570.055	288.22
1573.289	285.7
1576.523	285.5
1579.756	283.21
1582.989	281.08
1586.222	280.38
1589.454	277.82
1592.686	279.73
1595.918	278.86
1599.15	277.6
1602.381	277.3
1605.612	277.78
1608.843	279.72
1612.073	278.73
1615.303	280.51
1618.533	281.21
1621.762	279.8
1624.992	280.25
1628.221	280.32
1631.449	279.53
1634.678	278.46
1637.906	280.25
1641.134	279.93
1644.361	279.05
1647.588	280.32
1650.815	278.45
1654.042	276.43
1657.269	278.7
1660.495	279.17
1663.72	276.09
1666.946	278.01
1670.171	278.99
1673.396	278.21
1676.621	278.27
1679.845	277.61
1683.069	277.7
1686.293	279.69
1689.517	281.92
1692.74	281.18
1695.963	282.59
1699.185	287.86
1702.408	286.76
1705.63	288.04
1708.852	289.62
1712.073	289.94
1715.294	291.45
1718.515	292.05
1721.736	291.99
1724.956	292.53
1728.176	292.41
1731.396	295.44
1734.616	294.11
1737.835	295.83
1741.054	293.66
1744.272	294.35
1747.491	298.32
1750.709	298.63
1753.927	299.35
1757.144	298.3
1760.361	301.31
1763.578	301.44
1766.795	300.17
1770.011	302.1
1773.227	302.18
1776.443	306.79
1779.658	309.28
1782.874	307.52
1786.089	309.47
1789.303	310.64
1792.518	314.78
1795.732	313.39
1798.945	318.22
1802.159	318.18
1805.372	319.91
1808.585	326.24
1811.797	327.33
1815.01	326.44
1818.222	329.67
1821.434	330.93
1824.645	332.74
1827.856	339.45
1831.067	343.41
1834.278	340.1
1837.488	343.46
1840.698	346.27
1843.908	342.64
1847.117	344.66
1850.326	347.44
1853.535	346.62
1856.744	354.89
1859.952	354.25
1863.16	352.95
1866.368	351.02
1869.575	358.91
1872.782	352.78
1875.989	352.2
1879.196	351.91
1882.402	351.52
1885.608	354.12
1888.814	357.41
1892.019	356
1895.224	356.43
1898.429	353.68
1901.634	357.53
1904.838	356.93
1908.042	363.78
1911.246	365.5
1914.449	368.15
1917.652	369.4
1920.855	368.47
1924.058	366.7
1927.26	365.41
1930.462	368.38
1933.664	373.76
1936.865	369.7
1940.066	370.81
1943.267	367.31
1946.467	366.36
1949.668	369.62
1952.868	372.89
1956.067	372.36
1959.267	373.89
1962.466	375.07
1965.665	371.86
1968.863	372.36
1972.061	376.89
1975.259	380.35
1978.457	383.96
1981.654	386.61
1984.852	387.19
1988.048	385.17
1991.245	388.94
1994.441	393.77
1997.637	395.44
2000.833	403.76
2004.028	408.31
2007.223	410.86
2010.418	415.28
2013.613	421
2016.807	426.64
2020.001	429.02
2023.194	435.83
2026.388	445.76
2029.581	453.72
2032.774	459.59
2035.966	466.9
2039.158	469.4
2042.35	478.78
2045.542	480.39
2048.733	487.71
2051.924	493.44
2055.115	502.45
2058.306	502.55
2061.496	509.79
2064.686	510.01
2067.875	517.79
2071.065	519.99
2074.254	516.8
2077.442	521.43
2080.631	524.34
2083.819	530.23
2087.007	529.88
2090.195	536.03
2093.382	540.54
2096.569	534.14
2099.756	543.97
2102.942	544.94
2106.128	551.37
2109.314	564.56
2112.5	563.3
2115.685	574.89
2118.87	575.36
2122.055	587.78
2125.239	592.35
2128.424	601.6
2131.608	606.35
2134.791	613.37
2137.974	617.08
2141.157	618.19
2144.34	618.19
2147.523	628.76
2150.705	623.97
2153.887	629.35
2157.068	631.33
2160.25	624.49
2163.431	625.65
2166.611	632.13
2169.792	645.69
2172.972	652.81
2176.152	655.26
2179.331	665.34
2182.511	677.41
2185.69	685.94
2188.868	700.97
2192.047	702.34
2195.225	722.71
2198.403	741.16
2201.58	755.18
2204.758	768.27
2207.935	784.98
2211.111	800.9
2214.288	810.38
2217.464	812.17
2220.64	821.28
2223.815	833.68
2226.991	867.34
2230.166	870.88
2233.34	888.27
2236.515	902.51
2239.689	902.63
2242.863	907.41
2246.036	937.2
2249.209	925.57
2252.382	941.47
2255.555	973.78
2258.727	974.57
2261.9	980.24
2265.071	989.63
2268.243	1004.4
2271.414	1016.07
2274.585	1043.75
2277.756	1052.58
2280.926	1057.2
2284.096	1081.34
2287.266	1108.1
2290.436	1116.66
2293.605	1145.47
2296.774	1184.75
2299.942	1219.57
2303.111	1229.27
2306.279	1259.41
2309.447	1270.92
2312.614	1306.33
2315.781	1343.17
2318.948	1410.2
2322.115	1383.52
2325.281	1458.01
2328.447	1424.67
2331.613	1484.32
2334.779	1467.96
2337.944	1527.7
2341.109	1547.23
2344.274	1589.06
2347.438	1648.74
2350.602	1648.76
2353.766	1699.07
2356.929	1724.67
2360.092	1709.16
2363.255	1843.25
2366.418	1830.06
2369.58	1874.46
2372.742	1985.76
2375.904	2031.46
2379.066	2021.43
2382.227	1978.25
2385.388	2145.57
2388.548	2150.4
2391.709	2181.44
2394.869	2438.14
2398.029	2315.01
2401.188	2387.71
2404.347	2371.53
2407.506	2344.02
2410.665	2410.1
2413.823	2558.38
2416.981	2710.13
2420.139	2615.11
2423.296	2583.58
2426.453	2698.68
2429.61	2590.1
2432.767	2723.14
2435.923	2702.32
2439.079	2934.12
2442.235	2970.63
2445.391	2941.79
2448.546	2925.63
2451.701	2842.33
2454.855	2849.61
2458.009	3020.4
2461.163	3130.15
2464.317	3250.35
2467.471	3337.91
2470.624	3332.26
2473.777	3251.65
2476.929	3178.84
2480.082	3093.52
2483.234	3045.56
2486.385	3190.46
2489.537	3204.06
2492.688	3336.62
2495.839	3230.45
2498.989	3172.66
2502.14	3190.63
2505.29	3231.14
2508.439	3289
2511.589	3272.12
2514.738	3564.8
2517.887	3494.51
2521.035	3702.86
2524.183	3726.85
2527.331	3755.51
2530.479	3771.37
2533.627	3787.62
