Data from N_3_DEC_ON_6N_Splice17_14-25-49-115.txt Node
Date: Sat Mar 07 14:25:49 EST 2020
User: sa697716
Spectrometer: NQ5500242
Trigger mode: 0
Integration Time (sec): 1.450000E-1
Scans to average: 20
Nonlinearity correction enabled: false
Boxcar width: 5
Storing dark spectrum: false
XAxis mode: Wavelengths
Number of Pixels in Spectrum: 512
>>>>>Begin Spectral Data<<<<<
187.83	178.76
188.298	201.81
188.766	190.69
189.233	163.85
189.701	164.6
190.169	197.05
190.636	225.29
191.104	388.94
191.571	573.11
192.039	524.4
192.506	515.44
192.974	-75.79
193.441	80.47
193.908	109.16
194.375	69.62
194.842	58.98
195.31	125.66
195.777	138.05
196.244	71.05
196.711	70.45
197.177	72.6
197.644	72.07
198.111	72.46
198.578	72.03
199.045	72.1
199.511	72.13
199.978	71.97
200.445	71.93
200.911	71.84
201.378	71.93
201.844	71.77
202.31	71.14
202.777	71.12
203.243	70.9
203.709	70.67
204.176	70.04
204.642	69.54
205.108	69.11
205.574	68.62
206.04	68.19
206.506	67.73
206.972	67.37
207.438	66.58
207.903	65.53
208.369	64.23
208.835	62.39
209.301	60.94
209.766	59.09
210.232	57.28
210.697	55.46
211.163	53.86
211.628	52.33
212.094	50.95
212.559	49.81
213.024	48.56
213.49	47.38
213.955	46.51
214.42	45.35
214.885	44.13
215.35	42.46
215.815	40.23
216.28	37.48
216.745	34.36
217.21	31.17
217.675	28.2
218.14	25.63
218.604	23.34
219.069	21.38
219.534	19.79
219.998	18.53
220.463	17.45
220.927	16.53
221.392	15.75
221.856	15.1
222.32	14.59
222.785	14.14
223.249	13.73
223.713	13.37
224.177	13.11
224.642	12.8
225.106	12.48
225.57	12.17
226.034	11.91
226.497	11.69
226.961	11.49
227.425	11.27
227.889	11.07
228.353	10.89
228.816	10.71
229.28	10.49
229.744	10.33
230.207	10.18
230.671	10.03
231.134	9.9
231.597	9.78
232.061	9.64
232.524	9.51
232.987	9.39
233.45	9.28
233.914	9.17
234.377	9.07
234.84	8.97
235.303	8.89
235.766	8.8
236.229	8.71
236.691	8.61
237.154	8.54
237.617	8.47
238.08	8.4
238.542	8.32
239.005	8.25
239.468	8.19
239.93	8.12
240.393	8.07
240.855	7.99
241.317	7.93
241.78	7.86
242.242	7.79
242.704	7.72
243.166	7.66
243.629	7.6
244.091	7.53
244.553	7.47
245.015	7.4
245.477	7.33
245.939	7.28
246.4	7.22
246.862	7.17
247.324	7.12
247.786	7.06
248.247	7.01
248.709	6.94
249.17	6.88
249.632	6.85
250.093	6.81
250.555	6.76
251.016	6.73
251.477	6.68
251.939	6.64
252.4	6.6
252.861	6.56
253.322	6.53
253.783	6.51
254.244	6.49
254.705	6.45
255.166	6.42
255.627	6.39
256.088	6.36
256.549	6.33
257.009	6.3
257.47	6.26
257.931	6.23
258.391	6.19
258.852	6.15
259.312	6.11
259.773	6.08
260.233	6.05
260.694	6.01
261.154	5.97
261.614	5.94
262.074	5.92
262.534	5.89
262.994	5.86
263.455	5.84
263.915	5.81
264.374	5.78
264.834	5.77
265.294	5.75
265.754	5.74
266.214	5.72
266.673	5.7
267.133	5.69
267.593	5.68
268.052	5.67
268.512	5.66
268.971	5.66
269.431	5.65
269.89	5.64
270.349	5.64
270.809	5.62
271.268	5.62
271.727	5.62
272.186	5.61
272.645	5.6
273.104	5.6
273.563	5.59
274.022	5.58
274.481	5.58
274.94	5.58
275.399	5.57
275.857	5.57
276.316	5.56
276.775	5.55
277.233	5.55
277.692	5.55
278.15	5.54
278.609	5.54
279.067	5.53
279.525	5.53
279.984	5.51
280.442	5.51
280.9	5.51
281.358	5.51
281.816	5.51
282.274	5.5
282.732	5.5
283.19	5.5
283.648	5.5
284.106	5.5
284.564	5.5
285.021	5.51
285.479	5.5
285.937	5.5
286.394	5.5
286.852	5.5
287.309	5.5
287.767	5.49
288.224	5.48
288.682	5.46
289.139	5.45
289.596	5.44
290.053	5.42
290.511	5.41
290.968	5.4
291.425	5.37
291.882	5.36
292.339	5.35
292.796	5.34
293.252	5.33
293.709	5.32
294.166	5.32
294.623	5.31
295.079	5.31
295.536	5.31
295.992	5.3
296.449	5.3
296.905	5.29
297.362	5.28
297.818	5.28
298.274	5.28
298.731	5.27
299.187	5.26
299.643	5.25
300.099	5.25
300.555	5.24
301.011	5.24
301.467	5.24
301.923	5.23
302.379	5.22
302.835	5.22
303.291	5.22
303.746	5.22
304.202	5.23
304.658	5.23
305.113	5.23
305.569	5.23
306.024	5.23
306.479	5.22
306.935	5.23
307.39	5.23
307.845	5.23
308.301	5.23
308.756	5.24
309.211	5.24
309.666	5.26
310.121	5.27
310.576	5.27
311.031	5.28
311.486	5.28
311.94	5.29
312.395	5.3
312.85	5.31
313.305	5.31
313.759	5.31
314.214	5.31
314.668	5.29
315.123	5.29
315.577	5.29
316.032	5.29
316.486	5.29
316.94	5.27
317.394	5.26
317.849	5.24
318.303	5.23
318.757	5.21
319.211	5.21
319.665	5.2
320.119	5.2
320.572	5.19
321.026	5.18
321.48	5.17
321.934	5.16
322.387	5.16
322.841	5.16
323.295	5.17
323.748	5.17
324.202	5.17
324.655	5.17
325.108	5.18
325.562	5.18
326.015	5.18
326.468	5.18
326.921	5.18
327.374	5.18
327.827	5.17
328.28	5.16
328.733	5.17
329.186	5.16
329.639	5.16
330.092	5.16
330.545	5.16
330.997	5.15
331.45	5.16
331.903	5.17
332.355	5.19
332.808	5.19
333.26	5.2
333.713	5.2
334.165	5.2
334.617	5.21
335.069	5.21
335.522	5.22
335.974	5.22
336.426	5.23
336.878	5.23
337.33	5.22
337.782	5.22
338.234	5.22
338.686	5.22
339.137	5.22
339.589	5.22
340.041	5.22
340.493	5.21
340.944	5.2
341.396	5.19
341.847	5.17
342.299	5.16
342.75	5.14
343.201	5.13
343.653	5.12
344.104	5.09
344.555	5.08
345.006	5.06
345.457	5.05
345.908	5.04
346.359	5.04
346.81	5.03
347.261	5.03
347.712	5.02
348.163	5.01
348.613	5.01
349.064	5.01
349.515	5.02
349.965	5.01
350.416	5.01
350.866	5
351.317	5
351.767	5
352.217	5
352.668	5.01
353.118	5.02
353.568	5.02
354.018	5.03
354.468	5.04
354.918	5.05
355.368	5.07
355.818	5.08
356.268	5.08
356.718	5.09
357.168	5.09
357.617	5.08
358.067	5.09
358.517	5.1
358.966	5.11
359.416	5.11
359.865	5.11
360.315	5.1
360.764	5.11
361.213	5.11
361.663	5.11
362.112	5.12
362.561	5.14
363.01	5.14
363.459	5.13
363.908	5.14
364.357	5.15
364.806	5.15
365.255	5.17
365.703	5.19
366.152	5.21
366.601	5.24
367.05	5.25
367.498	5.26
367.947	5.29
368.395	5.32
368.844	5.34
369.292	5.35
369.74	5.38
370.189	5.42
370.637	5.45
371.085	5.48
371.533	5.51
371.981	5.55
372.429	5.6
372.877	5.65
373.325	5.71
373.773	5.76
374.221	5.82
374.669	5.87
375.116	5.92
375.564	5.98
376.012	6.05
376.459	6.12
376.907	6.2
377.354	6.26
377.801	6.34
378.249	6.41
378.696	6.49
379.143	6.57
379.591	6.66
380.038	6.74
380.485	6.81
380.932	6.9
381.379	6.99
381.826	7.08
382.273	7.17
382.72	7.24
383.166	7.33
383.613	7.41
384.06	7.49
384.506	7.56
384.953	7.65
385.4	7.74
385.846	7.83
386.292	7.92
386.739	8
387.185	8.08
387.631	8.19
388.078	8.27
388.524	8.35
388.97	8.43
389.416	8.52
389.862	8.6
390.308	8.68
390.754	8.75
391.2	8.81
391.645	8.88
392.091	8.96
392.537	9.03
392.983	9.11
393.428	9.17
393.874	9.24
394.319	9.3
394.765	9.34
395.21	9.38
395.655	9.42
396.101	9.48
396.546	9.5
396.991	9.53
397.436	9.55
397.881	9.6
398.326	9.64
398.771	9.68
399.216	9.72
399.661	9.76
400.106	9.79
400.551	9.81
400.995	9.82
401.44	9.84
401.885	9.84
402.329	9.84
402.774	9.84
403.218	9.85
403.663	9.85
404.107	9.85
404.551	9.85
404.995	9.85
405.44	9.84
405.884	9.84
406.328	9.84
406.772	9.85
407.216	9.86
407.66	9.85
408.104	9.84
408.547	9.84
408.991	9.84
409.435	9.83
409.879	9.82
410.322	9.83
410.766	9.83
411.209	9.84
411.653	9.85
412.096	9.83
412.54	9.84
412.983	9.83
413.426	9.85
413.869	9.84
414.312	9.86
414.756	9.89
415.199	9.88
415.642	9.88
416.085	9.88
416.527	9.86
416.97	9.85
417.413	9.83
417.856	9.82
418.298	9.79
418.741	9.79
419.184	9.77
419.626	9.74
420.069	9.73
420.511	9.72
420.953	9.7
421.396	9.71
421.838	9.71
422.28	9.71
422.722	9.73
423.164	9.73
423.606	9.72
424.048	9.71
424.49	9.71
424.932	9.7
425.374	9.68
425.816	9.66
426.258	9.62
426.699	9.57
427.141	9.54
427.582	9.52
428.024	9.51
428.465	9.51
428.907	9.5
429.348	9.48
429.789	9.46
430.231	9.46
430.672	9.48
431.113	9.5
431.554	9.53
431.995	9.54
432.436	9.52
432.877	9.52
433.318	9.52
433.759	9.53
434.2	9.56
434.64	9.57
435.081	9.58
435.522	9.59
435.962	9.61
436.403	9.64
436.843	9.66
437.284	9.69
437.724	9.71
438.164	9.72
438.604	9.73
439.045	9.75
439.485	9.77
439.925	9.8
440.365	9.81
440.805	9.82
441.245	9.84
441.685	9.87
442.125	9.94
442.564	9.97
443.004	10.01
443.444	10.06
443.883	10.1
444.323	10.14
444.762	10.18
445.202	10.24
445.641	10.3
446.081	10.36
446.52	10.4
446.959	10.44
447.398	10.51
447.837	10.57
448.276	10.6
448.716	10.65
449.154	10.71
449.593	10.77
450.032	10.79
450.471	10.8
450.91	10.82
451.349	10.85
451.787	10.84
452.226	10.83
452.664	10.84
453.103	10.84
453.541	10.82
453.98	10.8
454.418	10.77
454.856	10.76
455.295	10.76
455.733	10.73
456.171	10.72
456.609	10.71
457.047	10.69
457.485	10.66
457.923	10.64
458.361	10.64
458.798	10.64
459.236	10.64
459.674	10.63
460.111	10.63
460.549	10.63
460.987	10.63
461.424	10.62
461.862	10.63
462.299	10.63
462.736	10.63
463.173	10.62
463.611	10.62
464.048	10.62
464.485	10.61
464.922	10.6
465.359	10.6
465.796	10.6
466.233	10.6
466.67	10.6
467.106	10.62
467.543	10.62
467.98	10.62
468.416	10.61
468.853	10.62
469.29	10.62
469.726	10.65
470.162	10.65
470.599	10.68
471.035	10.67
471.471	10.69
471.907	10.68
472.344	10.7
472.78	10.72
473.216	10.73
473.652	10.75
474.088	10.76
474.523	10.76
474.959	10.76
475.395	10.76
475.831	10.77
476.266	10.78
476.702	10.78
477.138	10.77
477.573	10.77
478.008	10.79
478.444	10.78
478.879	10.79
479.314	10.78
479.75	10.79
480.185	10.77
480.62	10.78
481.055	10.77
481.49	10.77
481.925	10.77
482.36	10.77
482.795	10.75
483.229	10.75
483.664	10.77
484.099	10.78
484.534	10.79
484.968	10.81
485.403	10.82
485.837	10.84
486.271	10.87
486.706	10.89
487.14	10.93
487.574	10.96
488.009	11
488.443	11.04
488.877	11.07
489.311	11.12
489.745	11.17
490.179	11.24
490.613	11.32
491.046	11.38
491.48	11.45
491.914	11.52
492.348	11.6
492.781	11.69
493.215	11.79
493.648	11.89
494.082	11.99
494.515	12.09
494.948	12.2
495.382	12.3
495.815	12.42
496.248	12.55
496.681	12.69
497.114	12.82
497.547	12.95
497.98	13.09
498.413	13.22
498.846	13.38
499.279	13.53
499.711	13.68
500.144	13.84
500.577	13.99
501.009	14.15
501.442	14.32
501.874	14.5
502.306	14.68
502.739	14.87
503.171	15.05
503.603	15.25
504.036	15.45
504.468	15.64
504.9	15.84
505.332	16.05
505.764	16.27
506.196	16.49
506.627	16.72
507.059	16.95
507.491	17.16
507.923	17.4
508.354	17.64
508.786	17.88
509.217	18.15
509.649	18.4
510.08	18.66
510.512	18.92
510.943	19.17
511.374	19.44
511.805	19.71
512.237	19.97
512.668	20.25
513.099	20.51
513.53	20.79
513.961	21.04
514.391	21.32
514.822	21.58
515.253	21.83
515.684	22.1
516.114	22.35
516.545	22.6
516.975	22.87
517.406	23.12
517.836	23.37
518.267	23.62
518.697	23.87
519.127	24.11
519.558	24.34
519.988	24.6
520.418	24.81
520.848	25.04
521.278	25.26
521.708	25.57
522.138	25.79
522.567	25.99
522.997	26.19
523.427	26.38
523.857	26.57
524.286	26.76
524.716	26.93
525.145	27.11
525.575	27.26
526.004	27.41
526.433	27.46
526.863	27.6
527.292	27.73
527.721	27.87
528.15	27.99
528.579	28.09
529.008	28.21
529.437	28.31
529.866	28.42
530.295	28.54
530.724	28.64
531.152	28.73
531.581	28.83
532.01	28.92
532.438	29
532.867	29.07
533.295	29.16
533.723	29.22
534.152	29.28
534.58	29.34
535.008	29.36
535.436	29.41
535.865	29.44
536.293	29.48
536.721	29.52
537.149	29.55
537.576	29.58
538.004	29.6
538.432	29.63
538.86	29.66
539.287	29.68
539.715	29.73
540.143	29.75
540.57	29.77
540.998	29.79
541.425	29.81
541.852	29.83
542.28	29.87
542.707	29.9
543.134	29.93
543.561	29.96
543.988	29.98
544.415	30.01
544.842	30.04
545.269	30.08
545.696	30.11
546.123	30.14
546.549	30.17
546.976	30.19
547.403	30.2
547.829	30.22
548.256	30.24
548.682	30.26
549.108	30.28
549.535	30.3
549.961	30.3
550.387	30.32
550.813	30.34
551.24	30.34
551.666	30.34
552.092	30.36
552.518	30.36
552.943	30.36
553.369	30.36
553.795	30.36
554.221	30.36
554.646	30.36
555.072	30.35
555.498	30.33
555.923	30.33
556.349	30.3
556.774	30.29
557.199	30.25
557.625	30.22
558.05	30.19
558.475	30.15
558.9	30.11
559.325	30.08
559.75	30.02
560.175	29.96
560.6	29.88
561.025	29.83
561.449	29.74
561.874	29.66
562.299	29.59
562.723	29.51
563.148	29.4
563.572	29.31
563.997	29.19
564.421	29.08
564.846	28.98
565.27	28.88
565.694	28.76
566.118	28.65
566.542	28.54
566.966	28.41
567.39	28.28
567.814	28.17
568.238	28.03
568.662	27.91
569.086	27.8
569.509	27.68
569.933	27.55
570.357	27.42
570.78	27.29
571.204	27.17
571.627	27.06
572.05	26.95
572.474	26.87
572.897	26.78
573.32	26.68
573.743	26.58
574.166	26.49
574.589	26.4
575.012	26.32
575.435	26.23
575.858	26.15
576.281	26.08
576.704	26
577.126	25.9
577.549	25.84
577.972	25.76
578.394	25.68
578.817	25.62
579.239	25.56
579.661	25.51
580.084	25.46
580.506	25.41
580.928	25.35
581.35	25.3
581.772	25.23
582.194	25.17
582.616	25.13
583.038	25.08
583.46	25.01
583.882	24.96
584.303	24.91
584.725	24.85
585.147	24.81
585.568	24.76
585.99	24.71
586.411	24.66
586.833	24.61
587.254	24.55
587.675	24.51
588.096	24.47
588.518	24.42
588.939	24.39
589.36	24.34
589.781	24.29
590.202	24.26
590.623	24.22
591.043	24.19
591.464	24.16
591.885	24.11
592.305	24.08
592.726	24.05
593.147	24.01
593.567	23.96
593.987	23.95
594.408	23.91
594.828	23.87
595.248	23.84
595.669	23.81
596.089	23.76
596.509	23.73
596.929	23.7
597.349	23.67
597.769	23.63
598.189	23.62
598.608	23.57
599.028	23.54
599.448	23.49
599.867	23.46
600.287	23.42
600.706	23.37
601.126	23.34
601.545	23.29
601.965	23.26
602.384	23.21
602.803	23.15
603.222	23.1
603.641	23.05
604.061	23.02
604.48	22.95
604.898	22.89
605.317	22.85
605.736	22.78
606.155	22.72
606.574	22.65
606.992	22.58
607.411	22.51
607.829	22.42
608.248	22.35
608.666	22.26
609.085	22.2
609.503	22.14
609.921	22.08
610.339	22.03
610.758	21.97
611.176	21.9
611.594	21.85
612.012	21.79
612.43	21.73
612.847	21.68
613.265	21.62
613.683	21.56
614.101	21.48
614.518	21.42
614.936	21.35
615.353	21.28
615.771	21.21
616.188	21.15
616.606	21.09
617.023	21.04
617.44	20.99
617.857	20.94
618.274	20.87
618.691	20.84
619.108	20.79
619.525	20.74
619.942	20.71
620.359	20.67
620.776	20.64
621.192	20.6
621.609	20.57
622.026	20.53
622.442	20.51
622.859	20.49
623.275	20.45
623.691	20.44
624.108	20.42
624.524	20.39
624.94	20.37
625.356	20.35
625.772	20.34
626.188	20.34
626.604	20.32
627.02	20.31
627.436	20.3
627.852	20.29
628.268	20.26
628.683	20.24
629.099	20.23
629.514	20.22
629.93	20.2
630.345	20.17
630.761	20.13
631.176	20.08
631.591	20.03
632.007	20
632.422	19.93
632.837	19.88
633.252	19.8
633.667	19.72
634.082	19.62
634.497	19.55
634.911	19.45
635.326	19.36
635.741	19.26
636.155	19.16
636.57	19.02
636.984	18.92
637.399	18.78
637.813	18.65
638.228	18.52
638.642	18.36
639.056	18.2
639.47	18.07
639.884	17.9
640.298	17.74
640.712	17.59
641.126	17.44
641.54	17.26
641.954	17.11
642.368	16.94
642.781	16.79
643.195	16.66
643.609	16.52
644.022	16.38
644.436	16.26
644.849	16.12
645.262	16
645.676	15.88
646.089	15.77
646.502	15.68
646.915	15.6
647.328	15.51
647.741	15.43
648.154	15.36
648.567	15.27
648.98	15.19
649.393	15.14
649.805	15.11
650.218	15.05
650.631	15
651.043	14.96
651.456	14.92
651.868	14.85
652.28	14.8
652.693	14.75
653.105	14.72
653.517	14.67
653.929	14.61
654.341	14.53
654.753	14.46
655.165	14.38
655.577	14.3
655.989	14.21
656.401	14.13
656.813	14.05
657.224	13.93
657.636	13.81
658.047	13.7
658.459	13.58
658.87	13.46
659.282	13.34
659.693	13.21
660.104	13.08
660.515	12.95
660.926	12.82
661.338	12.69
661.749	12.57
662.159	12.44
662.57	12.33
662.981	12.21
663.392	12.1
663.803	11.99
664.213	11.88
664.624	11.77
665.035	11.68
665.445	11.6
665.855	11.5
666.266	11.43
666.676	11.36
667.086	11.27
667.497	11.21
667.907	11.16
668.317	11.1
668.727	11.05
669.137	11.01
669.547	10.98
669.956	10.92
670.366	10.9
670.776	10.86
671.186	10.84
671.595	10.82
672.005	10.78
672.414	10.77
672.824	10.75
673.233	10.74
673.642	10.74
674.052	10.74
674.461	10.76
674.87	10.76
675.279	10.79
675.688	10.82
676.097	10.85
676.506	10.9
676.915	10.95
677.323	11.01
677.732	11.08
678.141	11.16
678.549	11.25
678.958	11.34
679.366	11.46
679.775	11.57
680.183	11.7
680.592	11.85
681	12.02
681.408	12.2
681.816	12.41
682.224	12.64
682.632	12.87
683.04	13.13
683.448	13.4
683.856	13.7
684.264	14.03
684.671	14.37
685.079	14.75
685.487	15.15
685.894	15.58
686.302	16.01
686.709	16.44
687.116	16.91
687.524	17.4
687.931	17.91
688.338	18.42
688.745	18.93
689.152	19.46
689.559	19.99
689.966	20.53
690.373	21.06
690.78	21.6
691.187	22.15
691.593	22.69
692	23.22
692.407	23.75
692.813	24.28
693.22	24.78
693.626	25.3
694.032	25.8
694.439	26.3
694.845	26.8
695.251	27.29
695.657	27.75
696.063	28.2
696.469	28.66
696.875	29.09
697.281	29.52
697.687	29.95
698.093	30.36
698.498	30.75
698.904	31.14
699.31	31.5
699.715	31.83
700.12	32.19
700.526	32.52
700.931	32.85
701.337	33.17
701.742	33.47
702.147	33.76
702.552	34.04
702.957	34.3
703.362	34.57
703.767	34.83
704.172	35.11
704.577	35.34
704.981	35.59
705.386	35.82
705.791	36.06
706.195	36.3
706.6	36.53
707.004	36.75
707.408	36.98
707.813	37.18
708.217	37.39
708.621	37.58
709.025	37.78
709.43	37.95
709.834	38.14
710.237	38.3
710.641	38.48
711.045	38.64
711.449	38.83
711.853	39.01
712.256	39.16
712.66	39.31
713.064	39.45
713.467	39.62
713.87	39.78
714.274	39.9
714.677	40.05
715.08	40.17
715.484	40.32
715.887	40.44
716.29	40.55
716.693	40.66
717.096	40.8
717.499	40.92
717.901	41.04
718.304	41.15
718.707	41.28
719.109	41.42
719.512	41.52
719.915	41.61
720.317	41.71
720.719	41.78
721.122	41.89
721.524	41.97
721.926	42.05
722.328	42.13
722.731	42.22
723.133	42.31
723.535	42.38
723.937	42.45
724.338	42.52
724.74	42.58
725.142	42.71
725.544	42.75
725.945	42.83
726.347	42.88
726.748	42.95
727.15	42.98
727.551	43.04
727.952	43.06
728.354	43.12
728.755	43.16
729.156	43.22
729.557	43.24
729.958	43.28
730.359	43.32
730.76	43.37
731.161	43.4
731.562	43.46
731.962	43.48
732.363	43.55
732.763	43.59
733.164	43.61
733.564	43.64
733.965	43.67
734.365	43.73
734.766	43.75
735.166	43.78
735.566	43.79
735.966	43.81
736.366	43.83
736.766	43.82
737.166	43.83
737.566	43.87
737.966	43.9
738.365	43.93
738.765	43.96
739.165	43.99
739.564	44.01
739.964	44.03
740.363	44.03
740.763	44.06
741.162	44.09
741.561	44.09
741.96	44.08
742.36	44.09
742.759	44.08
743.158	44.08
743.557	44.07
743.955	44.08
744.354	44.09
744.753	44.14
745.152	44.17
745.55	44.2
745.949	44.23
746.348	44.27
746.746	44.27
747.144	44.31
747.543	44.32
747.941	44.36
748.339	44.37
748.737	44.39
749.136	44.37
749.534	44.35
749.932	44.34
750.33	44.36
750.727	44.35
751.125	44.37
751.523	44.37
751.921	44.37
752.318	44.35
752.716	44.35
753.113	44.34
753.511	44.34
753.908	44.34
754.305	44.34
754.703	44.33
755.1	44.34
755.497	44.29
755.894	44.28
756.291	44.25
756.688	44.24
757.085	44.23
757.482	44.22
757.878	44.22
758.275	44.21
758.672	44.2
759.068	44.2
759.465	44.19
759.861	44.21
760.258	44.2
760.654	44.21
761.05	44.22
761.447	44.21
761.843	44.18
762.239	44.17
762.635	44.17
763.031	44.16
763.427	44.11
763.822	44.11
764.218	44.1
764.614	44.08
765.01	44.07
765.405	44.04
765.801	44.04
766.196	44.08
766.592	44.07
766.987	44.09
767.382	44.1
767.778	44.12
768.173	44.11
768.568	44.12
768.963	44.12
769.358	44.15
769.753	44.16
770.148	44.17
770.542	44.15
770.937	44.14
771.332	44.09
771.726	44.08
772.121	44.08
772.515	44.06
772.91	44.04
773.304	44.07
773.699	44.05
774.093	44.04
774.487	44.03
774.881	44.04
775.275	44.05
775.669	44.07
776.063	44.04
776.457	44.06
776.851	44.07
777.245	44.09
777.638	44.07
778.032	44.09
778.425	44.1
778.819	44.11
779.212	44.12
779.606	44.14
779.999	44.15
780.392	44.2
780.786	44.18
781.179	44.2
781.572	44.24
781.965	44.27
782.358	44.26
782.751	44.28
783.143	44.31
783.536	44.29
783.929	44.28
784.322	44.3
784.714	44.31
785.107	44.36
785.499	44.37
785.891	44.37
786.284	44.4
786.676	44.4
787.068	44.39
787.46	44.37
787.852	44.42
788.245	44.47
788.636	44.46
789.028	44.47
789.42	44.45
789.812	44.47
790.204	44.48
790.595	44.45
790.987	44.48
791.378	44.51
791.77	44.53
792.161	44.52
792.553	44.51
792.944	44.53
793.335	44.55
793.726	44.56
794.117	44.54
794.508	44.5
794.899	44.52
795.29	44.54
795.681	44.52
796.072	44.53
796.463	44.54
796.853	44.53
797.244	44.54
797.634	44.53
798.025	44.55
798.415	44.59
798.806	44.6
799.196	44.59
799.586	44.56
799.976	44.56
800.366	44.58
800.756	44.59
801.146	44.62
801.536	44.61
801.926	44.64
802.316	44.64
802.706	44.67
803.095	44.7
803.485	44.7
803.874	44.72
804.264	44.73
804.653	44.76
805.043	44.78
805.432	44.8
805.821	44.83
806.21	44.83
806.599	44.84
806.988	44.84
807.377	44.85
807.766	44.88
808.155	44.89
808.544	44.92
808.933	44.9
809.321	44.89
809.71	44.9
810.098	44.91
810.487	44.9
810.875	44.91
811.264	44.91
811.652	44.93
812.04	44.93
812.428	44.99
812.816	45.01
813.204	45
813.592	45.03
813.98	45.07
814.368	45.07
814.756	45.09
815.144	45.08
815.531	45.1
815.919	45.12
816.306	45.12
816.694	45.07
817.081	45.07
817.469	45.11
817.856	45.1
818.243	45.07
818.63	45.08
819.017	45.06
819.404	45.09
819.791	45.06
820.178	45.06
820.565	45.05
820.952	45.06
821.339	45.04
821.725	45.01
822.112	45.04
822.498	45.06
822.885	45.08
823.271	45.08
823.657	45.03
824.044	45.07
824.43	45.08
824.816	45.07
825.202	45.07
825.588	45.09
825.974	45.1
826.36	45.07
826.746	45.04
827.132	45.02
827.517	45.03
827.903	45.05
828.289	45.02
828.674	45.01
829.06	44.97
829.445	44.95
829.83	44.92
830.216	44.89
830.601	44.89
830.986	44.88
831.371	44.83
831.756	44.82
832.141	44.8
832.526	44.8
832.911	44.78
833.295	44.8
833.68	44.8
834.065	44.8
834.449	44.79
834.834	44.77
835.218	44.77
835.603	44.78
835.987	44.76
836.371	44.73
836.755	44.69
837.139	44.66
837.524	44.65
837.908	44.64
838.291	44.63
838.675	44.62
839.059	44.59
839.443	44.56
839.827	44.54
840.21	44.52
840.594	44.54
840.977	44.53
841.361	44.54
841.744	44.49
842.127	44.47
842.511	44.45
842.894	44.45
843.277	44.46
843.66	44.45
844.043	44.47
844.426	44.5
844.809	44.48
845.191	44.51
845.574	44.5
845.957	44.5
846.339	44.51
846.722	44.52
847.104	44.52
847.487	44.53
847.869	44.54
848.252	44.53
848.634	44.51
849.016	44.53
849.398	44.52
849.78	44.51
850.162	44.51
850.544	44.52
850.926	44.53
851.307	44.52
851.689	44.53
852.071	44.53
852.452	44.53
852.834	44.53
853.215	44.5
853.597	44.51
853.978	44.54
854.359	44.54
854.741	44.57
855.122	44.55
855.503	44.56
855.884	44.57
856.265	44.56
856.646	44.58
857.026	44.59
857.407	44.6
857.788	44.58
858.169	44.59
858.549	44.61
858.93	44.61
859.31	44.62
859.69	44.64
860.071	44.64
860.451	44.64
860.831	44.62
861.211	44.62
861.591	44.62
861.971	44.63
862.351	44.63
862.731	44.62
863.111	44.61
863.491	44.59
863.87	44.57
864.25	44.57
864.629	44.56
865.009	44.56
865.388	44.55
865.768	44.55
866.147	44.55
866.526	44.54
866.905	44.54
867.284	44.55
867.663	44.54
868.042	44.56
868.421	44.57
868.8	44.59
869.179	44.59
869.558	44.58
869.936	44.57
870.315	44.58
870.693	44.58
871.072	44.56
871.45	44.55
871.828	44.56
872.207	44.57
872.585	44.55
872.963	44.53
873.341	44.54
873.719	44.56
874.097	44.56
874.475	44.57
874.853	44.58
875.23	44.6
875.608	44.62
875.986	44.64
876.363	44.63
876.741	44.65
877.118	44.68
877.495	44.69
877.873	44.69
878.25	44.71
878.627	44.72
879.004	44.72
879.381	44.72
879.758	44.68
880.135	44.66
880.512	44.66
880.889	44.64
881.265	44.61
881.642	44.59
882.019	44.6
882.395	44.57
882.772	44.55
883.148	44.55
883.524	44.52
883.901	44.53
884.277	44.51
884.653	44.48
885.029	44.46
885.405	44.47
885.781	44.48
886.157	44.48
886.532	44.5
886.908	44.5
887.284	44.47
887.659	44.45
888.035	44.42
888.411	44.42
888.786	44.42
889.161	44.45
889.537	44.43
889.912	44.39
890.287	44.36
890.662	44.33
891.037	44.29
891.412	44.29
891.787	44.28
892.162	44.28
892.536	44.26
892.911	44.25
893.286	44.21
893.66	44.19
894.035	44.2
894.409	44.18
894.784	44.17
895.158	44.18
895.532	44.16
895.906	44.16
896.281	44.16
896.655	44.15
897.029	44.15
897.402	44.14
897.776	44.13
898.15	44.13
898.524	44.15
898.898	44.17
899.271	44.17
899.645	44.19
900.018	44.22
900.392	44.24
900.765	44.27
901.138	44.27
901.511	44.3
901.884	44.33
902.258	44.35
902.631	44.35
903.003	44.35
903.376	44.36
903.749	44.38
904.122	44.38
904.495	44.39
904.867	44.4
905.24	44.44
905.612	44.47
905.985	44.46
906.357	44.45
906.729	44.49
907.102	44.51
907.474	44.52
907.846	44.51
908.218	44.52
908.59	44.53
908.962	44.54
909.334	44.51
909.705	44.47
910.077	44.5
910.449	44.52
910.82	44.49
911.192	44.5
911.563	44.5
911.935	44.48
912.306	44.49
912.677	44.51
913.048	44.52
913.419	44.52
913.79	44.53
914.161	44.53
914.532	44.52
914.903	44.56
915.274	44.56
915.645	44.59
916.015	44.61
916.386	44.64
916.756	44.65
917.127	44.64
917.497	44.65
917.868	44.67
918.238	44.67
918.608	44.68
918.978	44.67
919.348	44.68
919.718	44.64
920.088	44.63
920.458	44.6
920.828	44.57
921.198	44.56
921.567	44.55
921.937	44.59
922.306	44.61
922.676	44.61
923.045	44.58
923.415	44.57
923.784	44.57
924.153	44.55
924.522	44.57
924.891	44.59
925.26	44.63
925.629	44.68
925.998	44.63
926.367	44.6
926.736	44.6
927.104	44.63
927.473	44.61
927.842	44.59
928.21	44.65
928.578	44.64
928.947	44.64
929.315	44.62
929.683	44.57
930.051	44.58
930.42	44.58
930.788	44.57
931.156	44.51
931.523	44.49
931.891	44.52
932.259	44.48
932.627	44.45
932.994	44.43
933.362	44.37
933.729	44.36
934.097	44.34
934.464	44.34
934.831	44.35
935.199	44.38
935.566	44.4
935.933	44.41
936.3	44.4
936.667	44.43
937.034	44.41
937.401	44.48
937.767	44.53
938.134	44.58
938.501	44.6
938.867	44.67
939.234	44.73
939.6	44.73
939.967	44.76
940.333	44.8
940.699	44.86
941.065	44.93
941.431	44.97
941.798	44.98
942.163	44.98
942.529	45.02
942.895	45.02
943.261	45.05
943.627	45.12
943.992	45.22
944.358	45.29
944.723	45.3
945.089	45.29
945.454	45.31
945.82	45.35
946.185	45.37
946.55	45.37
946.915	45.37
947.28	45.35
947.645	45.34
948.01	45.24
948.375	45.19
948.74	45.15
949.104	45.16
949.469	45.14
949.834	45.06
950.198	44.98
950.562	44.94
950.927	44.89
951.291	44.77
951.655	44.65
952.02	44.64
952.384	44.61
952.748	44.57
953.112	44.54
953.476	44.47
953.839	44.45
954.203	44.48
954.567	44.44
954.931	44.36
955.294	44.34
955.658	44.44
956.021	44.38
956.385	44.36
956.748	44.3
957.111	44.28
957.474	44.25
957.837	44.19
958.2	44.17
958.563	44.17
958.926	44.21
959.289	44.22
959.652	44.11
960.015	44.07
960.377	44.05
960.74	44.12
961.102	44.09
961.465	44.12
961.827	44.15
962.189	44.11
962.552	44.07
962.914	44.07
963.276	44.11
963.638	44.15
964	44.18
964.362	44.2
964.724	44.14
965.085	44.1
965.447	44.05
965.809	44
966.17	44.01
966.532	44.02
966.893	44
967.255	43.95
967.616	43.92
967.977	43.94
968.338	43.9
968.699	43.88
969.061	43.89
969.421	43.94
969.782	44.02
970.143	44.01
970.504	44.01
970.865	43.99
971.225	44.01
971.586	44.03
971.946	44.01
972.307	44.02
972.667	44.03
973.027	44.05
973.388	44.05
973.748	44.04
974.108	44.1
974.468	44.09
974.828	44.12
975.188	44.14
975.548	44.1
975.907	44.09
976.267	44.1
976.627	44.14
976.986	44.1
977.346	44.04
977.705	44.03
978.064	44.03
978.424	44.07
978.783	44.11
979.142	44.11
979.501	44.15
979.86	44.2
980.219	44.15
980.578	44.16
980.937	44.22
981.296	44.24
981.654	44.23
982.013	44.21
982.371	44.18
982.73	44.15
983.088	44.1
983.447	44.1
983.805	44.09
984.163	44.11
984.521	44.06
984.879	43.95
985.237	44.02
985.595	44.06
985.953	44.07
986.311	44.02
986.669	44.07
987.026	44.15
987.384	44.19
987.741	44.21
988.099	44.29
988.456	44.38
988.814	44.57
989.171	44.52
989.528	44.55
989.885	44.57
990.242	44.65
990.599	44.74
990.956	44.82
991.313	44.88
991.67	44.9
992.027	44.96
992.383	45.02
992.74	45.01
993.096	45.04
993.453	45.03
993.809	45.05
994.165	45.1
994.522	45.06
994.878	45.05
995.234	44.92
995.59	44.94
995.946	44.91
996.302	44.92
996.658	45.04
997.013	45.15
997.369	45.17
997.725	45.2
998.08	45.25
998.436	45.22
998.791	45.32
999.147	45.46
999.502	45.47
999.857	45.62
1000.212	45.65
1000.567	45.59
1000.922	45.53
1001.277	45.57
1001.632	45.64
1001.987	45.63
1002.342	45.69
1002.696	45.63
1003.051	45.81
1003.406	45.92
1003.76	45.85
1004.114	45.72
1004.469	45.76
1004.823	46.14
1005.177	46.25
1005.531	46.38
1005.885	46.41
1006.239	46.48
1006.593	46.59
1006.947	46.45
1007.301	46.29
1007.655	46.39
1008.008	46.63
1008.362	46.71
1008.715	46.51
1009.069	46.68
1009.422	46.59
1009.776	46.67
1010.129	46.71
1010.482	46.78
1010.835	47
1011.188	47.25
1011.541	47.27
1011.894	47.44
1012.247	47.5
1012.6	47.71
1012.952	47.6
1013.305	47.75
1013.657	47.73
1014.01	47.82
1014.362	47.87
1014.715	47.75
1015.067	48
1015.419	48.26
1015.771	48.06
1016.123	48.13
1016.475	48.15
1016.827	48.23
1017.179	48.29
1017.531	48.67
1017.883	48.83
1018.234	48.96
1018.586	49.18
1018.938	49.22
1019.289	49.13
1019.64	49.29
1019.992	49.32
1020.343	49.33
1020.694	49.57
1021.045	49.61
1021.396	49.59
1021.747	49.73
1022.098	49.83
1022.449	50.05
1022.8	50.18
1023.151	50.25
1023.501	50.51
1023.852	50.81
1024.202	50.7
1024.553	50.81
1024.903	50.86
1025.253	51.11
1025.604	51.16
1025.954	51.02
1026.304	51.21
1026.654	51.16
1027.004	51.56
1027.354	51.71
1027.703	51.64
1028.053	52.02
1028.403	52.11
1028.753	52.01
1029.102	52.09
1029.452	52.29
1029.801	52.72
1030.15	52.6
1030.499	52.59
897.758	952.28
901.051	959.42
904.343	964.88
907.636	981.47
910.928	952.99
914.22	952.98
917.511	939.79
920.803	900.36
924.094	897.92
927.384	877.57
930.675	845.82
933.965	842.94
937.255	792.32
940.544	757.37
943.834	724.15
947.123	718.46
950.411	677.46
953.7	664.78
956.988	628.5
960.276	603.38
963.563	594.65
966.851	568.81
970.138	565.67
973.424	549.76
976.711	551.96
979.997	522.76
983.283	519.27
986.568	507
989.853	493.43
993.138	484.7
996.423	467.25
999.708	453.16
1002.992	449.58
1006.275	429.37
1009.559	425.68
1012.842	409.59
1016.125	400.42
1019.408	393.68
1022.69	390.08
1025.972	380.59
1029.254	370.83
1032.536	363.82
1035.817	358.69
1039.098	353.77
1042.379	347.49
1045.659	343.75
1048.939	336.11
1052.219	328.62
1055.498	325.51
1058.778	317.25
1062.057	311.6
1065.335	309.25
1068.614	305.09
1071.892	301.03
1075.17	293.31
1078.447	286.86
1081.724	284.47
1085.001	281.98
1088.278	277.76
1091.554	271.57
1094.83	272.78
1098.106	270.05
1101.382	266.97
1104.657	265.55
1107.932	260.88
1111.206	262.19
1114.481	255.97
1117.755	254.7
1121.029	252.45
1124.302	251.07
1127.575	247.06
1130.848	243.21
1134.121	241.55
1137.393	240.59
1140.665	236.27
1143.937	234.35
1147.208	233.05
1150.48	233.14
1153.75	228.52
1157.021	226.2
1160.291	226.43
1163.561	223.68
1166.831	223.07
1170.101	220.8
1173.37	220.59
1176.639	220.84
1179.907	219.45
1183.176	216.19
1186.444	215.45
1189.711	216.08
1192.979	215.49
1196.246	214.35
1199.513	215.26
1202.78	214.32
1206.046	213.94
1209.312	211.92
1212.578	211.78
1215.843	213.1
1219.108	212.27
1222.373	216.44
1225.638	217.14
1228.902	220.2
1232.166	220.66
1235.43	221.52
1238.693	224.93
1241.956	226.62
1245.219	229.98
1248.482	230.23
1251.744	230.71
1255.006	231.64
1258.268	226.37
1261.529	224.84
1264.79	223.8
1268.051	221.02
1271.312	219.14
1274.572	216.33
1277.832	214.83
1281.092	210.77
1284.351	209.19
1287.61	208.98
1290.869	205.53
1294.128	204.64
1297.386	203.8
1300.644	201.87
1303.902	203.06
1307.159	202.57
1310.416	202.26
1313.673	201.39
1316.93	204.33
1320.186	203.38
1323.442	203.67
1326.697	206.88
1329.953	208.14
1333.208	208.87
1336.463	211.13
1339.717	211.41
1342.972	213.12
1346.226	214.57
1349.479	215.34
1352.733	215.69
1355.986	217.84
1359.238	217.83
1362.491	218.5
1365.743	219.69
1368.995	221.34
1372.247	219.24
1375.498	219.73
1378.749	220.27
1382	218.86
1385.251	219.24
1388.501	218.65
1391.751	218.03
1395	217.18
1398.25	215.6
1401.499	213.92
1404.748	212.51
1407.996	210.83
1411.244	209.66
1414.492	208.48
1417.74	205.64
1420.987	203.01
1424.234	201.46
1427.481	200.04
1430.728	199.92
1433.974	197.84
1437.22	195.51
1440.465	195.03
1443.711	193.27
1446.956	191.63
1450.201	190.07
1453.445	188.73
1456.689	187.55
1459.933	184.33
1463.177	182.85
1466.42	180.51
1469.663	178.42
1472.906	177.52
1476.148	172.76
1479.391	171.39
1482.633	170.14
1485.874	167.67
1489.115	166.13
1492.356	164.1
1495.597	164.36
1498.838	161.37
1502.078	160.04
1505.318	159.59
1508.557	159.49
1511.797	159.48
1515.036	157.59
1518.274	157.51
1521.513	156.3
1524.751	156.39
1527.989	156.28
1531.227	155.27
1534.464	155.34
1537.701	155.32
1540.938	154.63
1544.174	152.97
1547.41	153.59
1550.646	153.28
1553.882	152.76
1557.117	151.13
1560.352	150.35
1563.587	150.11
1566.821	149.14
1570.055	148.59
1573.289	146.65
1576.523	147.02
1579.756	145.89
1582.989	144.7
1586.222	144.92
1589.454	144.3
1592.686	145.01
1595.918	144.35
1599.15	143.81
1602.381	144.38
1605.612	144.17
1608.843	144.27
1612.073	144.05
1615.303	144.88
1618.533	145.22
1621.762	144.49
1624.992	145.36
1628.221	145.28
1631.449	144.72
1634.678	144.55
1637.906	145.66
1641.134	144.94
1644.361	145.22
1647.588	145.29
1650.815	145.25
1654.042	144.52
1657.269	145.75
1660.495	145.24
1663.72	144.92
1666.946	145.95
1670.171	146.47
1673.396	145.77
1676.621	145.8
1679.845	146.79
1683.069	146.72
1686.293	147.49
1689.517	148.61
1692.74	148.26
1695.963	148.73
1699.185	150.05
1702.408	150.21
1705.63	150.27
1708.852	150.78
1712.073	151.54
1715.294	151.2
1718.515	152.45
1721.736	151.94
1724.956	152.06
1728.176	152.18
1731.396	152.92
1734.616	152.24
1737.835	152.61
1741.054	151.91
1744.272	151.79
1747.491	153.64
1750.709	153.76
1753.927	153.36
1757.144	153.2
1760.361	153.31
1763.578	153.91
1766.795	153.42
1770.011	155.57
1773.227	154.97
1776.443	156.89
1779.658	157.55
1782.874	156.98
1786.089	157.2
1789.303	157.61
1792.518	160.08
1795.732	159.37
1798.945	160.19
1802.159	160.63
1805.372	159.85
1808.585	163.14
1811.797	163.35
1815.01	163.39
1818.222	164.4
1821.434	167.2
1824.645	167.34
1827.856	169.3
1831.067	171
1834.278	171.72
1837.488	172.78
1840.698	173.89
1843.908	172.19
1847.117	173.1
1850.326	174.92
1853.535	173.06
1856.744	174.46
1859.952	174.54
1863.16	172.58
1866.368	171.49
1869.575	172.18
1872.782	169.53
1875.989	169.11
1879.196	168.53
1882.402	167.18
1885.608	166.42
1888.814	167.29
1892.019	166.17
1895.224	165.57
1898.429	165.14
1901.634	165.37
1904.838	165.62
1908.042	167.14
1911.246	166.73
1914.449	167.45
1917.652	167.98
1920.855	168.25
1924.058	168.27
1927.26	167.17
1930.462	167.47
1933.664	169.05
1936.865	168.56
1940.066	167.65
1943.267	166.89
1946.467	167.59
1949.668	167.75
1952.868	169.83
1956.067	170.34
1959.267	170.26
1962.466	170.82
1965.665	170.08
1968.863	171.07
1972.061	174.07
1975.259	175.59
1978.457	176.6
1981.654	178.31
1984.852	179.1
1988.048	177.87
1991.245	179.76
1994.441	181.58
1997.637	183.39
2000.833	186.92
2004.028	188.68
2007.223	188.96
2010.418	190.36
2013.613	194.74
2016.807	196.47
2020.001	197.73
2023.194	201.51
2026.388	205.61
2029.581	210.63
2032.774	211.8
2035.966	215.65
2039.158	216.37
2042.35	220.78
2045.542	222.18
2048.733	225.27
2051.924	228.78
2055.115	232.97
2058.306	233.1
2061.496	234.72
2064.686	234.98
2067.875	239.62
2071.065	240.53
2074.254	238.98
2077.442	242.7
2080.631	244.21
2083.819	245.93
2087.007	246.17
2090.195	249.72
2093.382	252.08
2096.569	250.8
2099.756	255.48
2102.942	255.94
2106.128	258.37
2109.314	265.79
2112.5	263.85
2115.685	269.79
2118.87	270.96
2122.055	275.21
2125.239	276.82
2128.424	280.36
2131.608	282.26
2134.791	285.78
2137.974	286.31
2141.157	288.07
2144.34	287.19
2147.523	293
2150.705	291.11
2153.887	293.15
2157.068	294.58
2160.25	291.92
2163.431	293.65
2166.611	296.59
2169.792	301.02
2172.972	304.17
2176.152	307.44
2179.331	311.33
2182.511	314.8
2185.69	317.87
2188.868	324.97
2192.047	325.11
2195.225	335.46
2198.403	342.51
2201.58	349.98
2204.758	357.29
2207.935	364.43
2211.111	370.33
2214.288	375.12
2217.464	376.75
2220.64	383.29
2223.815	386.78
2226.991	404.22
2230.166	404.03
2233.34	409.75
2236.515	416.89
2239.689	417.55
2242.863	419.97
2246.036	430.34
2249.209	425.95
2252.382	433.69
2255.555	446.18
2258.727	449.32
2261.9	450.49
2265.071	454.81
2268.243	465.38
2271.414	470.06
2274.585	478.19
2277.756	483.69
2280.926	488.2
2284.096	501.99
2287.266	512.79
2290.436	515.69
2293.605	526.89
2296.774	541.87
2299.942	559.54
2303.111	560.6
2306.279	572.4
2309.447	581.7
2312.614	598.09
2315.781	612.16
2318.948	639.36
2322.115	628.5
2325.281	665.84
2328.447	653.28
2331.613	678.33
2334.779	670.32
2337.944	700.94
2341.109	707.73
2344.274	726.47
2347.438	750.82
2350.602	753.54
2353.766	775.47
2356.929	788.06
2360.092	782.86
2363.255	837.01
2366.418	837.8
2369.58	850.57
2372.742	903.59
2375.904	927.89
2379.066	922.17
2382.227	902.9
2385.388	975.5
2388.548	980.27
2391.709	990.9
2394.869	1098.47
2398.029	1056.64
2401.188	1087.1
2404.347	1081.11
2407.506	1059.94
2410.665	1090.44
2413.823	1155.37
2416.981	1222.2
2420.139	1188.48
2423.296	1167.43
2426.453	1226.71
2429.61	1180.49
2432.767	1230.06
2435.923	1216.62
2439.079	1342.53
2442.235	1362.47
2445.391	1353.16
2448.546	1339.93
2451.701	1302.24
2454.855	1295.72
2458.009	1388.98
2461.163	1434.9
2464.317	1485.07
2467.471	1525.18
2470.624	1523.74
2473.777	1478.18
2476.929	1435.19
2480.082	1384.51
2483.234	1374.54
2486.385	1450.61
2489.537	1460.01
2492.688	1506.27
2495.839	1470.62
2498.989	1438.35
2502.14	1438.3
2505.29	1455.84
2508.439	1469.63
2511.589	1469.66
2514.738	1611.82
2517.887	1577.26
2521.035	1657.19
2524.183	1677.51
2527.331	1683.25
2530.479	1669.04
2533.627	1684.85
