Data from N_3_HIR_WI_4N_Splice17_14-07-54-588.txt Node
Date: Sat Mar 07 14:07:54 EST 2020
User: sa697716
Spectrometer: NQ5500242
Trigger mode: 0
Integration Time (sec): 1.450000E-1
Scans to average: 20
Nonlinearity correction enabled: false
Boxcar width: 5
Storing dark spectrum: false
XAxis mode: Wavelengths
Number of Pixels in Spectrum: 512
>>>>>Begin Spectral Data<<<<<
187.83	120.41
188.298	116.56
188.766	97.29
189.233	92.43
189.701	71.18
190.169	78.88
190.636	58.81
191.104	-43.1
191.571	-303.79
192.039	-281.7
192.506	-1129.76
192.974	277.78
193.441	173.53
193.908	69.49
194.375	38.48
194.842	-60.99
195.31	-32.87
195.777	-77.17
196.244	46.87
196.711	61.65
197.177	64.44
197.644	64.18
198.111	64.64
198.578	65.57
199.045	66.03
199.511	66.1
199.978	66.42
200.445	66.51
200.911	66.4
201.378	66.44
201.844	66.21
202.31	65.72
202.777	65.54
203.243	65.31
203.709	64.57
204.176	63.87
204.642	63.6
205.108	63.03
205.574	62.03
206.04	61.2
206.506	60.7
206.972	60.37
207.438	59.73
207.903	58.99
208.369	57.96
208.835	56.88
209.301	55.28
209.766	53.49
210.232	51.89
210.697	50.4
211.163	49.2
211.628	47.74
212.094	46.39
212.559	45.31
213.024	44.15
213.49	43.08
213.955	42.03
214.42	41.07
214.885	39.85
215.35	38.24
215.815	36.2
216.28	33.48
216.745	30.41
217.21	27.21
217.675	24.27
218.14	21.73
218.604	19.55
219.069	17.7
219.534	16.19
219.998	14.94
220.463	13.89
220.927	12.97
221.392	12.22
221.856	11.66
222.32	11.17
222.785	10.78
223.249	10.38
223.713	10.02
224.177	9.74
224.642	9.45
225.106	9.17
225.57	8.91
226.034	8.67
226.497	8.46
226.961	8.23
227.425	8.05
227.889	7.84
228.353	7.66
228.816	7.49
229.28	7.32
229.744	7.17
230.207	7.02
230.671	6.89
231.134	6.78
231.597	6.67
232.061	6.55
232.524	6.43
232.987	6.33
233.45	6.24
233.914	6.16
234.377	6.05
234.84	5.95
235.303	5.9
235.766	5.82
236.229	5.74
236.691	5.66
237.154	5.6
237.617	5.54
238.08	5.47
238.542	5.41
239.005	5.35
239.468	5.31
239.93	5.27
240.393	5.2
240.855	5.14
241.317	5.08
241.78	5.02
242.242	4.96
242.704	4.91
243.166	4.86
243.629	4.81
244.091	4.75
244.553	4.7
245.015	4.65
245.477	4.6
245.939	4.54
246.4	4.49
246.862	4.45
247.324	4.42
247.786	4.36
248.247	4.31
248.709	4.26
249.17	4.21
249.632	4.18
250.093	4.15
250.555	4.11
251.016	4.08
251.477	4.04
251.939	4.02
252.4	3.98
252.861	3.94
253.322	3.92
253.783	3.9
254.244	3.88
254.705	3.85
255.166	3.82
255.627	3.8
256.088	3.78
256.549	3.76
257.009	3.73
257.47	3.7
257.931	3.68
258.391	3.64
258.852	3.61
259.312	3.58
259.773	3.55
260.233	3.52
260.694	3.49
261.154	3.45
261.614	3.42
262.074	3.38
262.534	3.35
262.994	3.32
263.455	3.29
263.915	3.26
264.374	3.22
264.834	3.2
265.294	3.17
265.754	3.15
266.214	3.12
266.673	3.1
267.133	3.08
267.593	3.06
268.052	3.05
268.512	3.04
268.971	3.02
269.431	3.01
269.89	2.99
270.349	2.98
270.809	2.97
271.268	2.96
271.727	2.95
272.186	2.95
272.645	2.94
273.104	2.92
273.563	2.92
274.022	2.91
274.481	2.91
274.94	2.9
275.399	2.89
275.857	2.89
276.316	2.87
276.775	2.86
277.233	2.86
277.692	2.86
278.15	2.85
278.609	2.85
279.067	2.84
279.525	2.84
279.984	2.84
280.442	2.84
280.9	2.84
281.358	2.85
281.816	2.85
282.274	2.85
282.732	2.85
283.19	2.85
283.648	2.85
284.106	2.85
284.564	2.86
285.021	2.86
285.479	2.86
285.937	2.86
286.394	2.85
286.852	2.84
287.309	2.84
287.767	2.82
288.224	2.81
288.682	2.8
289.139	2.78
289.596	2.77
290.053	2.74
290.511	2.72
290.968	2.71
291.425	2.69
291.882	2.67
292.339	2.65
292.796	2.65
293.252	2.65
293.709	2.64
294.166	2.63
294.623	2.62
295.079	2.62
295.536	2.62
295.992	2.61
296.449	2.6
296.905	2.6
297.362	2.6
297.818	2.59
298.274	2.59
298.731	2.58
299.187	2.57
299.643	2.57
300.099	2.56
300.555	2.55
301.011	2.55
301.467	2.55
301.923	2.54
302.379	2.54
302.835	2.54
303.291	2.54
303.746	2.54
304.202	2.54
304.658	2.54
305.113	2.54
305.569	2.55
306.024	2.55
306.479	2.55
306.935	2.55
307.39	2.55
307.845	2.55
308.301	2.55
308.756	2.56
309.211	2.56
309.666	2.57
310.121	2.57
310.576	2.58
311.031	2.58
311.486	2.59
311.94	2.6
312.395	2.6
312.85	2.61
313.305	2.61
313.759	2.62
314.214	2.62
314.668	2.62
315.123	2.61
315.577	2.61
316.032	2.61
316.486	2.6
316.94	2.6
317.394	2.59
317.849	2.58
318.303	2.57
318.757	2.56
319.211	2.55
319.665	2.54
320.119	2.52
320.572	2.51
321.026	2.5
321.48	2.49
321.934	2.49
322.387	2.48
322.841	2.47
323.295	2.47
323.748	2.48
324.202	2.48
324.655	2.48
325.108	2.49
325.562	2.49
326.015	2.49
326.468	2.5
326.921	2.5
327.374	2.5
327.827	2.51
328.28	2.51
328.733	2.51
329.186	2.51
329.639	2.51
330.092	2.52
330.545	2.52
330.997	2.52
331.45	2.53
331.903	2.54
332.355	2.55
332.808	2.56
333.26	2.56
333.713	2.56
334.165	2.56
334.617	2.57
335.069	2.57
335.522	2.58
335.974	2.59
336.426	2.59
336.878	2.59
337.33	2.59
337.782	2.59
338.234	2.6
338.686	2.61
339.137	2.62
339.589	2.6
340.041	2.61
340.493	2.6
340.944	2.59
341.396	2.58
341.847	2.57
342.299	2.56
342.75	2.55
343.201	2.54
343.653	2.52
344.104	2.51
344.555	2.5
345.006	2.49
345.457	2.48
345.908	2.48
346.359	2.48
346.81	2.47
347.261	2.47
347.712	2.48
348.163	2.47
348.613	2.47
349.064	2.48
349.515	2.49
349.965	2.5
350.416	2.5
350.866	2.51
351.317	2.51
351.767	2.52
352.217	2.53
352.668	2.54
353.118	2.55
353.568	2.55
354.018	2.56
354.468	2.57
354.918	2.59
355.368	2.61
355.818	2.62
356.268	2.64
356.718	2.66
357.168	2.66
357.617	2.68
358.067	2.7
358.517	2.74
358.966	2.77
359.416	2.8
359.865	2.82
360.315	2.87
360.764	2.9
361.213	2.92
361.663	2.96
362.112	3.01
362.561	3.06
363.01	3.1
363.459	3.14
363.908	3.2
364.357	3.26
364.806	3.32
365.255	3.38
365.703	3.46
366.152	3.55
366.601	3.63
367.05	3.72
367.498	3.81
367.947	3.92
368.395	4.04
368.844	4.15
369.292	4.26
369.74	4.39
370.189	4.51
370.637	4.63
371.085	4.75
371.533	4.88
371.981	5.02
372.429	5.14
372.877	5.27
373.325	5.41
373.773	5.57
374.221	5.71
374.669	5.85
375.116	5.99
375.564	6.13
376.012	6.29
376.459	6.45
376.907	6.61
377.354	6.77
377.801	6.92
378.249	7.07
378.696	7.21
379.143	7.37
379.591	7.52
380.038	7.67
380.485	7.82
380.932	7.96
381.379	8.1
381.826	8.22
382.273	8.36
382.72	8.48
383.166	8.62
383.613	8.75
384.06	8.86
384.506	8.98
384.953	9.1
385.4	9.22
385.846	9.35
386.292	9.45
386.739	9.56
387.185	9.65
387.631	9.76
388.078	9.86
388.524	9.95
388.97	10.04
389.416	10.12
389.862	10.2
390.308	10.26
390.754	10.33
391.2	10.4
391.645	10.47
392.091	10.54
392.537	10.61
392.983	10.65
393.428	10.71
393.874	10.76
394.319	10.79
394.765	10.81
395.21	10.83
395.655	10.85
396.101	10.87
396.546	10.87
396.991	10.89
397.436	10.9
397.881	10.91
398.326	10.91
398.771	10.92
399.216	10.93
399.661	10.93
400.106	10.93
400.551	10.9
400.995	10.86
401.44	10.84
401.885	10.8
402.329	10.76
402.774	10.72
403.218	10.69
403.663	10.65
404.107	10.61
404.551	10.58
404.995	10.53
405.44	10.5
405.884	10.47
406.328	10.44
406.772	10.4
407.216	10.36
407.66	10.32
408.104	10.27
408.547	10.22
408.991	10.18
409.435	10.14
409.879	10.11
410.322	10.09
410.766	10.05
411.209	10.03
411.653	10.01
412.096	9.98
412.54	9.97
412.983	9.96
413.426	9.96
413.869	9.94
414.312	9.95
414.756	9.95
415.199	9.92
415.642	9.91
416.085	9.9
416.527	9.87
416.97	9.83
417.413	9.79
417.856	9.76
418.298	9.72
418.741	9.69
419.184	9.66
419.626	9.63
420.069	9.61
420.511	9.58
420.953	9.55
421.396	9.54
421.838	9.54
422.28	9.54
422.722	9.55
423.164	9.54
423.606	9.54
424.048	9.52
424.49	9.51
424.932	9.48
425.374	9.46
425.816	9.41
426.258	9.37
426.699	9.34
427.141	9.3
427.582	9.27
428.024	9.25
428.465	9.25
428.907	9.23
429.348	9.21
429.789	9.21
430.231	9.21
430.672	9.23
431.113	9.26
431.554	9.28
431.995	9.31
432.436	9.32
432.877	9.35
433.318	9.35
433.759	9.37
434.2	9.41
434.64	9.44
435.081	9.47
435.522	9.53
435.962	9.58
436.403	9.64
436.843	9.69
437.284	9.72
437.724	9.75
438.164	9.81
438.604	9.86
439.045	9.9
439.485	9.95
439.925	10
440.365	10.04
440.805	10.08
441.245	10.14
441.685	10.2
442.125	10.3
442.564	10.39
443.004	10.45
443.444	10.54
443.883	10.63
444.323	10.73
444.762	10.85
445.202	10.96
445.641	11.07
446.081	11.18
446.52	11.29
446.959	11.41
447.398	11.52
447.837	11.64
448.276	11.74
448.716	11.86
449.154	11.97
449.593	12.06
450.032	12.16
450.471	12.24
450.91	12.3
451.349	12.39
451.787	12.42
452.226	12.49
452.664	12.55
453.103	12.6
453.541	12.63
453.98	12.68
454.418	12.71
454.856	12.75
455.295	12.77
455.733	12.79
456.171	12.83
456.609	12.88
457.047	12.89
457.485	12.9
457.923	12.94
458.361	12.98
458.798	13
459.236	13.02
459.674	13.03
460.111	13.06
460.549	13.1
460.987	13.13
461.424	13.16
461.862	13.18
462.299	13.22
462.736	13.24
463.173	13.26
463.611	13.28
464.048	13.3
464.485	13.32
464.922	13.33
465.359	13.34
465.796	13.34
466.233	13.36
466.67	13.39
467.106	13.42
467.543	13.42
467.98	13.44
468.416	13.45
468.853	13.47
469.29	13.47
469.726	13.5
470.162	13.52
470.599	13.54
471.035	13.52
471.471	13.51
471.907	13.5
472.344	13.52
472.78	13.54
473.216	13.54
473.652	13.54
474.088	13.55
474.523	13.55
474.959	13.55
475.395	13.55
475.831	13.57
476.266	13.58
476.702	13.59
477.138	13.59
477.573	13.59
478.008	13.61
478.444	13.6
478.879	13.62
479.314	13.63
479.75	13.64
480.185	13.65
480.62	13.67
481.055	13.7
481.49	13.73
481.925	13.77
482.36	13.81
482.795	13.83
483.229	13.89
483.664	13.95
484.099	14
484.534	14.06
484.968	14.14
485.403	14.22
485.837	14.31
486.271	14.4
486.706	14.49
487.14	14.59
487.574	14.71
488.009	14.83
488.443	14.94
488.877	15.07
489.311	15.22
489.745	15.36
490.179	15.5
490.613	15.65
491.046	15.81
491.48	15.99
491.914	16.16
492.348	16.34
492.781	16.54
493.215	16.76
493.648	16.97
494.082	17.17
494.515	17.39
494.948	17.62
495.382	17.86
495.815	18.11
496.248	18.36
496.681	18.62
497.114	18.88
497.547	19.14
497.98	19.4
498.413	19.68
498.846	19.96
499.279	20.24
499.711	20.53
500.144	20.83
500.577	21.12
501.009	21.43
501.442	21.73
501.874	22.05
502.306	22.36
502.739	22.71
503.171	23.04
503.603	23.37
504.036	23.7
504.468	24.04
504.9	24.37
505.332	24.73
505.764	25.07
506.196	25.43
506.627	25.78
507.059	26.14
507.491	26.48
507.923	26.85
508.354	27.22
508.786	27.6
509.217	27.97
509.649	28.35
510.08	28.71
510.512	29.09
510.943	29.46
511.374	29.82
511.805	30.2
512.237	30.57
512.668	30.94
513.099	31.28
513.53	31.63
513.961	31.99
514.391	32.35
514.822	32.71
515.253	33.05
515.684	33.37
516.114	33.7
516.545	34
516.975	34.33
517.406	34.64
517.836	34.94
518.267	35.25
518.697	35.53
519.127	35.79
519.558	36.07
519.988	36.35
520.418	36.64
520.848	36.91
521.278	37.16
521.708	37.52
522.138	37.76
522.567	37.99
522.997	38.2
523.427	38.43
523.857	38.64
524.286	38.84
524.716	39.02
525.145	39.19
525.575	39.38
526.004	39.55
526.433	39.61
526.863	39.77
527.292	39.94
527.721	40.09
528.15	40.23
528.579	40.37
529.008	40.5
529.437	40.62
529.866	40.74
530.295	40.87
530.724	40.99
531.152	41.11
531.581	41.22
532.01	41.32
532.438	41.43
532.867	41.52
533.295	41.59
533.723	41.66
534.152	41.73
534.58	41.8
535.008	41.82
535.436	41.89
535.865	41.91
536.293	41.96
536.721	42.02
537.149	42.04
537.576	42.07
538.004	42.12
538.432	42.16
538.86	42.21
539.287	42.24
539.715	42.3
540.143	42.32
540.57	42.38
540.998	42.39
541.425	42.43
541.852	42.48
542.28	42.53
542.707	42.56
543.134	42.61
543.561	42.65
543.988	42.69
544.415	42.72
544.842	42.75
545.269	42.77
545.696	42.82
546.123	42.83
546.549	42.86
546.976	42.89
547.403	42.93
547.829	42.95
548.256	43
548.682	43.04
549.108	43.08
549.535	43.13
549.961	43.15
550.387	43.18
550.813	43.22
551.24	43.25
551.666	43.28
552.092	43.29
552.518	43.29
552.943	43.29
553.369	43.27
553.795	43.27
554.221	43.28
554.646	43.29
555.072	43.29
555.498	43.28
555.923	43.25
556.349	43.23
556.774	43.19
557.199	43.19
557.625	43.17
558.05	43.15
558.475	43.12
558.9	43.1
559.325	43.07
559.75	43.02
560.175	42.98
560.6	42.94
561.025	42.89
561.449	42.83
561.874	42.76
562.299	42.68
562.723	42.6
563.148	42.53
563.572	42.41
563.997	42.32
564.421	42.22
564.846	42.12
565.27	42.01
565.694	41.91
566.118	41.79
566.542	41.69
566.966	41.59
567.39	41.49
567.814	41.36
568.238	41.24
568.662	41.1
569.086	40.97
569.509	40.84
569.933	40.72
570.357	40.59
570.78	40.46
571.204	40.34
571.627	40.2
572.05	40.08
572.474	39.98
572.897	39.89
573.32	39.79
573.743	39.69
574.166	39.62
574.589	39.53
575.012	39.46
575.435	39.39
575.858	39.29
576.281	39.23
576.704	39.16
577.126	39.08
577.549	38.99
577.972	38.92
578.394	38.84
578.817	38.76
579.239	38.68
579.661	38.61
580.084	38.54
580.506	38.48
580.928	38.42
581.35	38.36
581.772	38.3
582.194	38.25
582.616	38.19
583.038	38.14
583.46	38.1
583.882	38.05
584.303	38
584.725	37.96
585.147	37.92
585.568	37.86
585.99	37.79
586.411	37.76
586.833	37.7
587.254	37.65
587.675	37.61
588.096	37.56
588.518	37.51
588.939	37.48
589.36	37.43
589.781	37.4
590.202	37.36
590.623	37.33
591.043	37.28
591.464	37.26
591.885	37.24
592.305	37.2
592.726	37.18
593.147	37.14
593.567	37.11
593.987	37.07
594.408	37.02
594.828	36.97
595.248	36.95
595.669	36.92
596.089	36.87
596.509	36.84
596.929	36.81
597.349	36.74
597.769	36.7
598.189	36.65
598.608	36.64
599.028	36.6
599.448	36.57
599.867	36.51
600.287	36.47
600.706	36.41
601.126	36.37
601.545	36.32
601.965	36.28
602.384	36.23
602.803	36.18
603.222	36.09
603.641	36.03
604.061	35.97
604.48	35.9
604.898	35.83
605.317	35.76
605.736	35.67
606.155	35.59
606.574	35.5
606.992	35.42
607.411	35.34
607.829	35.24
608.248	35.14
608.666	35.04
609.085	34.96
609.503	34.89
609.921	34.79
610.339	34.7
610.758	34.6
611.176	34.51
611.594	34.43
612.012	34.32
612.43	34.24
612.847	34.16
613.265	34.09
613.683	34.01
614.101	33.9
614.518	33.81
614.936	33.72
615.353	33.62
615.771	33.56
616.188	33.48
616.606	33.41
617.023	33.35
617.44	33.28
617.857	33.19
618.274	33.13
618.691	33.06
619.108	33.01
619.525	32.96
619.942	32.93
620.359	32.88
620.776	32.81
621.192	32.78
621.609	32.74
622.026	32.7
622.442	32.67
622.859	32.62
623.275	32.59
623.691	32.59
624.108	32.55
624.524	32.52
624.94	32.49
625.356	32.49
625.772	32.46
626.188	32.45
626.604	32.44
627.02	32.43
627.436	32.43
627.852	32.41
628.268	32.38
628.683	32.38
629.099	32.39
629.514	32.37
629.93	32.35
630.345	32.32
630.761	32.28
631.176	32.27
631.591	32.21
632.007	32.17
632.422	32.11
632.837	32.04
633.252	31.96
633.667	31.87
634.082	31.77
634.497	31.69
634.911	31.59
635.326	31.49
635.741	31.36
636.155	31.24
636.57	31.1
636.984	30.97
637.399	30.82
637.813	30.67
638.228	30.51
638.642	30.33
639.056	30.14
639.47	29.96
639.884	29.77
640.298	29.56
640.712	29.36
641.126	29.15
641.54	28.93
641.954	28.73
642.368	28.52
642.781	28.31
643.195	28.1
643.609	27.88
644.022	27.67
644.436	27.46
644.849	27.26
645.262	27.07
645.676	26.89
646.089	26.74
646.502	26.55
646.915	26.41
647.328	26.25
647.741	26.12
648.154	25.99
648.567	25.85
648.98	25.73
649.393	25.62
649.805	25.52
650.218	25.42
650.631	25.31
651.043	25.21
651.456	25.11
651.868	25
652.28	24.89
652.693	24.79
653.105	24.68
653.517	24.55
653.929	24.43
654.341	24.27
654.753	24.1
655.165	23.93
655.577	23.76
655.989	23.57
656.401	23.37
656.813	23.18
657.224	22.94
657.636	22.71
658.047	22.47
658.459	22.2
658.87	21.96
659.282	21.72
659.693	21.46
660.104	21.19
660.515	20.91
660.926	20.64
661.338	20.36
661.749	20.1
662.159	19.84
662.57	19.59
662.981	19.35
663.392	19.1
663.803	18.85
664.213	18.61
664.624	18.38
665.035	18.15
665.445	17.93
665.855	17.73
666.266	17.54
666.676	17.35
667.086	17.16
667.497	16.98
667.907	16.83
668.317	16.68
668.727	16.53
669.137	16.42
669.547	16.3
669.956	16.2
670.366	16.11
670.776	16.03
671.186	15.95
671.595	15.87
672.005	15.81
672.414	15.75
672.824	15.71
673.233	15.68
673.642	15.65
674.052	15.62
674.461	15.6
674.87	15.59
675.279	15.59
675.688	15.61
676.097	15.63
676.506	15.68
676.915	15.74
677.323	15.82
677.732	15.9
678.141	16.02
678.549	16.16
678.958	16.33
679.366	16.53
679.775	16.74
680.183	17.01
680.592	17.32
681	17.66
681.408	18.02
681.816	18.42
682.224	18.87
682.632	19.34
683.04	19.85
683.448	20.39
683.856	20.97
684.264	21.59
684.671	22.23
685.079	22.88
685.487	23.58
685.894	24.31
686.302	25.05
686.709	25.81
687.116	26.58
687.524	27.37
687.931	28.16
688.338	28.96
688.745	29.74
689.152	30.52
689.559	31.31
689.966	32.08
690.373	32.83
690.78	33.56
691.187	34.26
691.593	34.96
692	35.62
692.407	36.28
692.813	36.92
693.22	37.53
693.626	38.13
694.032	38.73
694.439	39.27
694.845	39.82
695.251	40.37
695.657	40.88
696.063	41.39
696.469	41.86
696.875	42.3
697.281	42.74
697.687	43.16
698.093	43.58
698.498	43.97
698.904	44.37
699.31	44.7
699.715	45.03
700.12	45.36
700.526	45.67
700.931	45.99
701.337	46.28
701.742	46.56
702.147	46.84
702.552	47.1
702.957	47.32
703.362	47.55
703.767	47.78
704.172	48.01
704.577	48.23
704.981	48.44
705.386	48.66
705.791	48.86
706.195	49.04
706.6	49.23
707.004	49.41
707.408	49.62
707.813	49.81
708.217	49.97
708.621	50.14
709.025	50.27
709.43	50.41
709.834	50.55
710.237	50.68
710.641	50.81
711.045	50.94
711.449	51.07
711.853	51.19
712.256	51.28
712.66	51.39
713.064	51.49
713.467	51.61
713.87	51.72
714.274	51.81
714.677	51.93
715.08	52
715.484	52.09
715.887	52.2
716.29	52.27
716.693	52.38
717.096	52.48
717.499	52.55
717.901	52.66
718.304	52.75
718.707	52.85
719.109	52.93
719.512	53.03
719.915	53.12
720.317	53.14
720.719	53.21
721.122	53.28
721.524	53.35
721.926	53.42
722.328	53.49
722.731	53.53
723.133	53.59
723.535	53.65
723.937	53.72
724.338	53.76
724.74	53.84
725.142	53.95
725.544	54
725.945	54.07
726.347	54.1
726.748	54.11
727.15	54.16
727.551	54.21
727.952	54.26
728.354	54.29
728.755	54.32
729.156	54.34
729.557	54.33
729.958	54.33
730.359	54.33
730.76	54.39
731.161	54.43
731.562	54.5
731.962	54.49
732.363	54.51
732.763	54.53
733.164	54.56
733.564	54.57
733.965	54.6
734.365	54.64
734.766	54.67
735.166	54.67
735.566	54.68
735.966	54.68
736.366	54.7
736.766	54.69
737.166	54.68
737.566	54.68
737.966	54.68
738.365	54.68
738.765	54.68
739.165	54.68
739.564	54.68
739.964	54.68
740.363	54.66
740.763	54.65
741.162	54.67
741.561	54.67
741.96	54.68
742.36	54.72
742.759	54.75
743.158	54.77
743.557	54.74
743.955	54.76
744.354	54.8
744.753	54.83
745.152	54.87
745.55	54.89
745.949	54.91
746.348	54.96
746.746	54.95
747.144	54.96
747.543	54.96
747.941	55.02
748.339	55.01
748.737	55
749.136	55
749.534	54.98
749.932	54.97
750.33	54.98
750.727	54.99
751.125	55
751.523	54.98
751.921	54.98
752.318	54.95
752.716	54.92
753.113	54.91
753.511	54.89
753.908	54.92
754.305	54.93
754.703	54.9
755.1	54.86
755.497	54.82
755.894	54.82
756.291	54.82
756.688	54.8
757.085	54.81
757.482	54.8
757.878	54.81
758.275	54.77
758.672	54.75
759.068	54.76
759.465	54.75
759.861	54.77
760.258	54.78
760.654	54.77
761.05	54.82
761.447	54.82
761.843	54.81
762.239	54.8
762.635	54.78
763.031	54.79
763.427	54.76
763.822	54.78
764.218	54.74
764.614	54.73
765.01	54.71
765.405	54.67
765.801	54.63
766.196	54.64
766.592	54.63
766.987	54.64
767.382	54.61
767.778	54.63
768.173	54.63
768.568	54.62
768.963	54.6
769.358	54.62
769.753	54.63
770.148	54.66
770.542	54.67
770.937	54.68
771.332	54.68
771.726	54.69
772.121	54.69
772.515	54.7
772.91	54.73
773.304	54.76
773.699	54.76
774.093	54.74
774.487	54.74
774.881	54.76
775.275	54.75
775.669	54.75
776.063	54.76
776.457	54.76
776.851	54.73
777.245	54.72
777.638	54.69
778.032	54.71
778.425	54.74
778.819	54.73
779.212	54.73
779.606	54.76
779.999	54.75
780.392	54.76
780.786	54.78
781.179	54.79
781.572	54.82
781.965	54.84
782.358	54.82
782.751	54.8
783.143	54.82
783.536	54.82
783.929	54.81
784.322	54.83
784.714	54.85
785.107	54.87
785.499	54.88
785.891	54.88
786.284	54.91
786.676	54.92
787.068	54.96
787.46	54.98
787.852	54.97
788.245	54.98
788.636	54.99
789.028	54.96
789.42	54.96
789.812	54.98
790.204	55.01
790.595	55.02
790.987	55.03
791.378	55.03
791.77	55.03
792.161	55.05
792.553	55.06
792.944	55.04
793.335	55.07
793.726	55.09
794.117	55.08
794.508	55.06
794.899	55.09
795.29	55.11
795.681	55.09
796.072	55.1
796.463	55.09
796.853	55.09
797.244	55.13
797.634	55.14
798.025	55.15
798.415	55.14
798.806	55.14
799.196	55.11
799.586	55.11
799.976	55.12
800.366	55.14
800.756	55.16
801.146	55.18
801.536	55.2
801.926	55.18
802.316	55.17
802.706	55.19
803.095	55.21
803.485	55.25
803.874	55.24
804.264	55.26
804.653	55.26
805.043	55.28
805.432	55.28
805.821	55.27
806.21	55.31
806.599	55.34
806.988	55.35
807.377	55.36
807.766	55.34
808.155	55.34
808.544	55.34
808.933	55.36
809.321	55.36
809.71	55.36
810.098	55.35
810.487	55.31
810.875	55.31
811.264	55.35
811.652	55.35
812.04	55.35
812.428	55.39
812.816	55.4
813.204	55.37
813.592	55.35
813.98	55.37
814.368	55.4
814.756	55.42
815.144	55.42
815.531	55.4
815.919	55.4
816.306	55.42
816.694	55.4
817.081	55.41
817.469	55.43
817.856	55.47
818.243	55.48
818.63	55.46
819.017	55.48
819.404	55.45
819.791	55.43
820.178	55.46
820.565	55.46
820.952	55.46
821.339	55.44
821.725	55.44
822.112	55.45
822.498	55.47
822.885	55.49
823.271	55.47
823.657	55.47
824.044	55.48
824.43	55.46
824.816	55.45
825.202	55.42
825.588	55.44
825.974	55.43
826.36	55.39
826.746	55.37
827.132	55.37
827.517	55.38
827.903	55.38
828.289	55.38
828.674	55.35
829.06	55.33
829.445	55.34
829.83	55.32
830.216	55.29
830.601	55.28
830.986	55.25
831.371	55.21
831.756	55.19
832.141	55.17
832.526	55.17
832.911	55.17
833.295	55.17
833.68	55.17
834.065	55.15
834.449	55.15
834.834	55.14
835.218	55.12
835.603	55.11
835.987	55.09
836.371	55.08
836.755	55.04
837.139	55.01
837.524	54.98
837.908	54.98
838.291	54.99
838.675	54.98
839.059	54.97
839.443	54.96
839.827	54.94
840.21	54.94
840.594	54.94
840.977	54.92
841.361	54.9
841.744	54.86
842.127	54.82
842.511	54.78
842.894	54.77
843.277	54.75
843.66	54.72
844.043	54.73
844.426	54.73
844.809	54.71
845.191	54.73
845.574	54.73
845.957	54.76
846.339	54.77
846.722	54.76
847.104	54.77
847.487	54.78
847.869	54.8
848.252	54.78
848.634	54.75
849.016	54.75
849.398	54.74
849.78	54.72
850.162	54.71
850.544	54.7
850.926	54.7
851.307	54.7
851.689	54.71
852.071	54.69
852.452	54.69
852.834	54.72
853.215	54.7
853.597	54.7
853.978	54.7
854.359	54.69
854.741	54.71
855.122	54.72
855.503	54.69
855.884	54.65
856.265	54.67
856.646	54.67
857.026	54.7
857.407	54.7
857.788	54.7
858.169	54.73
858.549	54.73
858.93	54.72
859.31	54.74
859.69	54.78
860.071	54.82
860.451	54.82
860.831	54.82
861.211	54.77
861.591	54.78
861.971	54.76
862.351	54.78
862.731	54.8
863.111	54.79
863.491	54.77
863.87	54.74
864.25	54.71
864.629	54.72
865.009	54.74
865.388	54.76
865.768	54.77
866.147	54.78
866.526	54.74
866.905	54.74
867.284	54.76
867.663	54.75
868.042	54.77
868.421	54.8
868.8	54.79
869.179	54.76
869.558	54.75
869.936	54.73
870.315	54.72
870.693	54.74
871.072	54.73
871.45	54.73
871.828	54.74
872.207	54.72
872.585	54.68
872.963	54.69
873.341	54.69
873.719	54.7
874.097	54.7
874.475	54.73
874.853	54.73
875.23	54.77
875.608	54.78
875.986	54.81
876.363	54.84
876.741	54.86
877.118	54.85
877.495	54.87
877.873	54.88
878.25	54.91
878.627	54.92
879.004	54.89
879.381	54.87
879.758	54.83
880.135	54.8
880.512	54.75
880.889	54.76
881.265	54.74
881.642	54.72
882.019	54.71
882.395	54.68
882.772	54.66
883.148	54.68
883.524	54.67
883.901	54.66
884.277	54.63
884.653	54.62
885.029	54.6
885.405	54.6
885.781	54.6
886.157	54.59
886.532	54.6
886.908	54.59
887.284	54.58
887.659	54.55
888.035	54.54
888.411	54.53
888.786	54.55
889.161	54.55
889.537	54.54
889.912	54.53
890.287	54.48
890.662	54.44
891.037	54.42
891.412	54.38
891.787	54.37
892.162	54.35
892.536	54.35
892.911	54.31
893.286	54.28
893.66	54.27
894.035	54.23
894.409	54.23
894.784	54.22
895.158	54.19
895.532	54.2
895.906	54.19
896.281	54.19
896.655	54.16
897.029	54.17
897.402	54.16
897.776	54.14
898.15	54.18
898.524	54.2
898.898	54.21
899.271	54.21
899.645	54.23
900.018	54.26
900.392	54.27
900.765	54.3
901.138	54.28
901.511	54.31
901.884	54.35
902.258	54.36
902.631	54.36
903.003	54.39
903.376	54.4
903.749	54.38
904.122	54.38
904.495	54.4
904.867	54.39
905.24	54.44
905.612	54.46
905.985	54.43
906.357	54.4
906.729	54.41
907.102	54.41
907.474	54.43
907.846	54.44
908.218	54.46
908.59	54.49
908.962	54.54
909.334	54.56
909.705	54.55
910.077	54.57
910.449	54.57
910.82	54.57
911.192	54.57
911.563	54.56
911.935	54.55
912.306	54.57
912.677	54.58
913.048	54.57
913.419	54.55
913.79	54.56
914.161	54.6
914.532	54.63
914.903	54.66
915.274	54.66
915.645	54.7
916.015	54.72
916.386	54.7
916.756	54.69
917.127	54.72
917.497	54.74
917.868	54.74
918.238	54.7
918.608	54.72
918.978	54.71
919.348	54.73
919.718	54.74
920.088	54.77
920.458	54.78
920.828	54.78
921.198	54.76
921.567	54.76
921.937	54.79
922.306	54.78
922.676	54.77
923.045	54.75
923.415	54.74
923.784	54.73
924.153	54.73
924.522	54.73
924.891	54.73
925.26	54.72
925.629	54.71
925.998	54.67
926.367	54.71
926.736	54.7
927.104	54.7
927.473	54.67
927.842	54.64
928.21	54.63
928.578	54.59
928.947	54.58
929.315	54.53
929.683	54.5
930.051	54.48
930.42	54.45
930.788	54.39
931.156	54.33
931.523	54.31
931.891	54.33
932.259	54.3
932.627	54.28
932.994	54.26
933.362	54.28
933.729	54.3
934.097	54.29
934.464	54.29
934.831	54.31
935.199	54.33
935.566	54.34
935.933	54.25
936.3	54.25
936.667	54.26
937.034	54.26
937.401	54.27
937.767	54.26
938.134	54.27
938.501	54.28
938.867	54.31
939.234	54.31
939.6	54.35
939.967	54.43
940.333	54.46
940.699	54.52
941.065	54.54
941.431	54.52
941.798	54.55
942.163	54.55
942.529	54.54
942.895	54.58
943.261	54.6
943.627	54.57
943.992	54.59
944.358	54.55
944.723	54.54
945.089	54.5
945.454	54.51
945.82	54.5
946.185	54.51
946.55	54.46
946.915	54.48
947.28	54.5
947.645	54.52
948.01	54.53
948.375	54.51
948.74	54.44
949.104	54.51
949.469	54.5
949.834	54.45
950.198	54.44
950.562	54.45
950.927	54.39
951.291	54.29
951.655	54.28
952.02	54.28
952.384	54.25
952.748	54.24
953.112	54.16
953.476	54.11
953.839	54.05
954.203	54.01
954.567	54
954.931	53.96
955.294	54
955.658	54.01
956.021	53.94
956.385	53.96
956.748	53.95
957.111	53.91
957.474	53.94
957.837	53.93
958.2	53.93
958.563	53.91
958.926	53.94
959.289	53.92
959.652	53.85
960.015	53.84
960.377	53.77
960.74	53.8
961.102	53.82
961.465	53.89
961.827	53.89
962.189	53.91
962.552	53.83
962.914	53.8
963.276	53.78
963.638	53.79
964	53.76
964.362	53.8
964.724	53.73
965.085	53.69
965.447	53.59
965.809	53.63
966.17	53.56
966.532	53.63
966.893	53.64
967.255	53.7
967.616	53.69
967.977	53.7
968.338	53.7
968.699	53.73
969.061	53.75
969.421	53.81
969.782	53.79
970.143	53.86
970.504	53.87
970.865	53.88
971.225	53.83
971.586	53.84
971.946	53.87
972.307	53.84
972.667	53.83
973.027	53.86
973.388	53.86
973.748	53.88
974.108	53.85
974.468	53.78
974.828	53.8
975.188	53.84
975.548	53.84
975.907	53.83
976.267	53.82
976.627	53.88
976.986	53.84
977.346	53.81
977.705	53.76
978.064	53.81
978.424	53.89
978.783	53.82
979.142	53.78
979.501	53.81
979.86	53.92
980.219	53.98
980.578	53.98
980.937	54.02
981.296	53.96
981.654	54.01
982.013	54.03
982.371	54.02
982.73	54.09
983.088	54.09
983.447	54.08
983.805	54.02
984.163	54.04
984.521	54.05
984.879	54
985.237	54.09
985.595	54.1
985.953	54.06
986.311	54.08
986.669	54.1
987.026	54.1
987.384	54.16
987.741	54.15
988.099	54.19
988.456	54.11
988.814	54.17
989.171	54.12
989.528	54.18
989.885	54.21
990.242	54.21
990.599	54.27
990.956	54.38
991.313	54.38
991.67	54.42
992.027	54.49
992.383	54.59
992.74	54.77
993.096	54.82
993.453	54.89
993.809	54.92
994.165	55.03
994.522	55.06
994.878	55.05
995.234	55.07
995.59	55.11
995.946	55.04
996.302	55.02
996.658	55.06
997.013	55.1
997.369	55.04
997.725	55.01
998.08	54.99
998.436	54.96
998.791	54.96
999.147	54.97
999.502	55
999.857	55.09
1000.212	55.06
1000.567	55.02
1000.922	55.14
1001.277	55.21
1001.632	55.21
1001.987	55.2
1002.342	55.23
1002.696	55.31
1003.051	55.57
1003.406	55.75
1003.76	55.81
1004.114	55.9
1004.469	55.98
1004.823	56.2
1005.177	56.25
1005.531	56.45
1005.885	56.5
1006.239	56.54
1006.593	56.7
1006.947	56.52
1007.301	56.35
1007.655	56.32
1008.008	56.5
1008.362	56.56
1008.715	56.32
1009.069	56.46
1009.422	56.42
1009.776	56.5
1010.129	56.51
1010.482	56.33
1010.835	56.49
1011.188	56.65
1011.541	56.66
1011.894	56.64
1012.247	56.58
1012.6	56.62
1012.952	56.46
1013.305	56.63
1013.657	56.6
1014.01	56.81
1014.362	56.86
1014.715	56.74
1015.067	56.89
1015.419	57.19
1015.771	57.02
1016.123	57.12
1016.475	57.26
1016.827	57.51
1017.179	57.56
1017.531	57.92
1017.883	57.92
1018.234	58.25
1018.586	58.41
1018.938	58.42
1019.289	58.33
1019.64	58.59
1019.992	58.61
1020.343	58.66
1020.694	58.46
1021.045	58.44
1021.396	58.25
1021.747	58.45
1022.098	58.48
1022.449	58.32
1022.8	58.49
1023.151	58.46
1023.501	58.67
1023.852	58.83
1024.202	58.85
1024.553	59
1024.903	59.03
1025.253	59.31
1025.604	59.32
1025.954	58.94
1026.304	59.39
1026.654	59.26
1027.004	59.21
1027.354	59.05
1027.703	58.62
1028.053	58.84
1028.403	58.82
1028.753	58.72
1029.102	58.7
1029.452	58.6
1029.801	59
1030.15	58.75
1030.499	58.59
897.758	1204.02
901.051	1211.72
904.343	1207.55
907.636	1228.04
910.928	1195.54
914.22	1191.47
917.511	1171.36
920.803	1128.16
924.094	1121
927.384	1095.01
930.675	1049.79
933.965	1043.75
937.255	979.3
940.544	940.73
943.834	896.73
947.123	888.35
950.411	837.79
953.7	820.23
956.988	777.53
960.276	745.48
963.563	731.82
966.851	706.47
970.138	701.02
973.424	681.73
976.711	685.48
979.997	652.51
983.283	648.51
986.568	636.01
989.853	616.3
993.138	604.51
996.423	583.85
999.708	568.63
1002.992	562.23
1006.275	537
1009.559	531.28
1012.842	512.77
1016.125	498.62
1019.408	490.12
1022.69	484.82
1025.972	476.82
1029.254	464.67
1032.536	456.13
1035.817	448.1
1039.098	442.98
1042.379	434.76
1045.659	429.63
1048.939	418.89
1052.219	411.64
1055.498	406.65
1058.778	396.23
1062.057	387.09
1065.335	383.11
1068.614	379.87
1071.892	375.74
1075.17	363.78
1078.447	357.33
1081.724	355.74
1085.001	352.98
1088.278	346.34
1091.554	338.81
1094.83	340.21
1098.106	337.5
1101.382	334.91
1104.657	331.26
1107.932	325.78
1111.206	328.18
1114.481	319.98
1117.755	316.53
1121.029	313.95
1124.302	312.26
1127.575	307.63
1130.848	303.22
1134.121	299.66
1137.393	298.48
1140.665	293.31
1143.937	291.88
1147.208	288.25
1150.48	287.88
1153.75	283.96
1157.021	280.41
1160.291	280.56
1163.561	276.91
1166.831	276.55
1170.101	275.58
1173.37	273.88
1176.639	274.1
1179.907	271.38
1183.176	269.14
1186.444	269.02
1189.711	268.95
1192.979	268
1196.246	267.16
1199.513	267.71
1202.78	267.24
1206.046	266.53
1209.312	264.23
1212.578	264.56
1215.843	266.36
1219.108	266.13
1222.373	270.53
1225.638	272.01
1228.902	276.2
1232.166	275.44
1235.43	277.78
1238.693	280.69
1241.956	282.51
1245.219	287.46
1248.482	287.27
1251.744	287.41
1255.006	287.94
1258.268	281.7
1261.529	279.45
1264.79	278.09
1268.051	276.89
1271.312	273.72
1274.572	269.51
1277.832	267.38
1281.092	262.48
1284.351	260.82
1287.61	261.31
1290.869	255.93
1294.128	254.58
1297.386	254.62
1300.644	250.56
1303.902	252.1
1307.159	250.86
1310.416	251.61
1313.673	250.75
1316.93	253.48
1320.186	253.34
1323.442	253.45
1326.697	258.64
1329.953	259.05
1333.208	259.87
1336.463	264.18
1339.717	263.54
1342.972	266.05
1346.226	268.1
1349.479	268.69
1352.733	270.04
1355.986	270.86
1359.238	270.6
1362.491	271.2
1365.743	274.04
1368.995	273.85
1372.247	271.11
1375.498	271.57
1378.749	273.79
1382	270.42
1385.251	271.48
1388.501	268.86
1391.751	269.62
1395	268.01
1398.25	265.87
1401.499	263.73
1404.748	262.92
1407.996	260.9
1411.244	259.06
1414.492	256.99
1417.74	253.8
1420.987	249.26
1424.234	249.28
1427.481	245
1430.728	245.15
1433.974	242.24
1437.22	239.7
1440.465	239.16
1443.711	236.96
1446.956	236.09
1450.201	232.59
1453.445	231.04
1456.689	230.37
1459.933	226.45
1463.177	224.94
1466.42	221.22
1469.663	218.93
1472.906	217.66
1476.148	212.09
1479.391	209.7
1482.633	207.65
1485.874	205.62
1489.115	204.1
1492.356	201.2
1495.597	201.1
1498.838	198.22
1502.078	196.99
1505.318	196.32
1508.557	196.14
1511.797	196.44
1515.036	194.92
1518.274	194.68
1521.513	192.83
1524.751	192.8
1527.989	193
1531.227	191.71
1534.464	192.8
1537.701	192.55
1540.938	191.92
1544.174	189.27
1547.41	189.07
1550.646	188.67
1553.882	188.37
1557.117	186.7
1560.352	185.48
1563.587	185.5
1566.821	184.46
1570.055	182.8
1573.289	181.05
1576.523	181.24
1579.756	180.3
1582.989	179.45
1586.222	179.2
1589.454	178.62
1592.686	178.94
1595.918	178.37
1599.15	177.28
1602.381	177.92
1605.612	177.83
1608.843	178.15
1612.073	177.78
1615.303	179.15
1618.533	179.06
1621.762	178.78
1624.992	178.75
1628.221	179.26
1631.449	178.94
1634.678	178.84
1637.906	179.61
1641.134	179.56
1644.361	179.17
1647.588	179.87
1650.815	179.09
1654.042	178.97
1657.269	179.99
1660.495	179.89
1663.72	179.54
1666.946	180.51
1670.171	181.16
1673.396	180.73
1676.621	180.7
1679.845	181.31
1683.069	181.87
1686.293	182.83
1689.517	183.49
1692.74	183.29
1695.963	184.07
1699.185	185.75
1702.408	185.5
1705.63	186.2
1708.852	186.54
1712.073	187.06
1715.294	187.27
1718.515	187.43
1721.736	187.13
1724.956	187.87
1728.176	188.04
1731.396	189.3
1734.616	188.14
1737.835	189.16
1741.054	187.38
1744.272	188.05
1747.491	189.8
1750.709	189.86
1753.927	189.73
1757.144	189.13
1760.361	189.22
1763.578	189.51
1766.795	189
1770.011	190.78
1773.227	190.29
1776.443	193.01
1779.658	193.22
1782.874	192.12
1786.089	193.04
1789.303	193.6
1792.518	195.99
1795.732	195.57
1798.945	197.61
1802.159	197.66
1805.372	197.65
1808.585	201.25
1811.797	201.05
1815.01	201.98
1818.222	203.98
1821.434	206.03
1824.645	206.25
1827.856	209.32
1831.067	211.47
1834.278	211.24
1837.488	212.21
1840.698	213.83
1843.908	211.89
1847.117	213.67
1850.326	215.03
1853.535	213.52
1856.744	215.84
1859.952	216.13
1863.16	214.21
1866.368	212.47
1869.575	213.5
1872.782	210.52
1875.989	209.44
1879.196	208.82
1882.402	206.62
1885.608	206.49
1888.814	206.86
1892.019	206.16
1895.224	205.17
1898.429	204.88
1901.634	205.31
1904.838	205.39
1908.042	207.77
1911.246	208.42
1914.449	209.14
1917.652	210.25
1920.855	209.68
1924.058	209.84
1927.26	208.22
1930.462	208.94
1933.664	210.19
1936.865	209.68
1940.066	209.21
1943.267	208.22
1946.467	208.34
1949.668	209.25
1952.868	211.07
1956.067	211.98
1959.267	211.25
1962.466	212.13
1965.665	211.44
1968.863	212.89
1972.061	215.45
1975.259	217.26
1978.457	218.62
1981.654	219.44
1984.852	220.01
1988.048	219.25
1991.245	221.4
1994.441	224
1997.637	225.8
2000.833	229.94
2004.028	232.94
2007.223	234.25
2010.418	237.2
2013.613	241.86
2016.807	245.53
2020.001	247.69
2023.194	251.64
2026.388	257.05
2029.581	262.58
2032.774	264.81
2035.966	269.76
2039.158	270.38
2042.35	275.04
2045.542	276.74
2048.733	280.89
2051.924	284.27
2055.115	288.85
2058.306	289.36
2061.496	291
2064.686	293.07
2067.875	297.9
2071.065	300
2074.254	297.13
2077.442	302.12
2080.631	303
2083.819	305.41
2087.007	306.13
2090.195	309.09
2093.382	311.98
2096.569	310.85
2099.756	314.72
2102.942	315.46
2106.128	317.07
2109.314	326.9
2112.5	324.58
2115.685	331.9
2118.87	332.39
2122.055	339.76
2125.239	342.59
2128.424	346.73
2131.608	348.99
2134.791	354.9
2137.974	356.81
2141.157	357.93
2144.34	356.82
2147.523	364.14
2150.705	361.77
2153.887	364.31
2157.068	364.1
2160.25	361.5
2163.431	362.36
2166.611	367.68
2169.792	372.68
2172.972	377.24
2176.152	380.25
2179.331	385.46
2182.511	389.85
2185.69	394.12
2188.868	402.77
2192.047	403.89
2195.225	415.19
2198.403	426.22
2201.58	433.85
2204.758	442.39
2207.935	450.45
2211.111	459.32
2214.288	463.61
2217.464	465.68
2220.64	473.26
2223.815	479.28
2226.991	499.7
2230.166	500.68
2233.34	508.43
2236.515	515.69
2239.689	516.69
2242.863	518.88
2246.036	533.43
2249.209	528.24
2252.382	537.06
2255.555	552.64
2258.727	556.09
2261.9	557.91
2265.071	563.61
2268.243	573.53
2271.414	581.31
2274.585	593.73
2277.756	600.27
2280.926	601.85
2284.096	619.7
2287.266	630.76
2290.436	636.66
2293.605	648.71
2296.774	669.86
2299.942	688.76
2303.111	693.53
2306.279	708.04
2309.447	717.08
2312.614	735.89
2315.781	759.16
2318.948	793.25
2322.115	783.14
2325.281	824.16
2328.447	809.86
2331.613	840.57
2334.779	833.27
2337.944	868.11
2341.109	875.59
2344.274	898.91
2347.438	932.83
2350.602	932.2
2353.766	959.91
2356.929	975.93
2360.092	970.09
2363.255	1039.17
2366.418	1036.9
2369.58	1059.18
2372.742	1126.01
2375.904	1155.18
2379.066	1150.82
2382.227	1124.14
2385.388	1217.96
2388.548	1217.35
2391.709	1230.38
2394.869	1368.78
2398.029	1311.21
2401.188	1350.3
2404.347	1338.6
2407.506	1311.75
2410.665	1350.44
2413.823	1432.74
2416.981	1517.32
2420.139	1475.37
2423.296	1457.51
2426.453	1528.45
2429.61	1464.8
2432.767	1528.69
2435.923	1512.54
2439.079	1659.19
2442.235	1682.83
2445.391	1666.5
2448.546	1652.49
2451.701	1610.97
2454.855	1604.31
2458.009	1710.94
2461.163	1772.11
2464.317	1847.8
2467.471	1894.35
2470.624	1893.42
2473.777	1840.93
2476.929	1790.43
2480.082	1739.92
2483.234	1721.36
2486.385	1807.83
2489.537	1812.46
2492.688	1874.78
2495.839	1823.63
2498.989	1782.12
2502.14	1790.32
2505.29	1807.63
2508.439	1837.06
2511.589	1840.29
2514.738	1999.85
2517.887	1958.43
2521.035	2070.15
2524.183	2079.56
2527.331	2093.08
2530.479	2082.78
2533.627	2096.61
