Data from N_3_DIV_OH_2N_Splice17_13-46-17-299.txt Node
Date: Sat Mar 07 13:46:17 EST 2020
User: sa697716
Spectrometer: NQ5500242
Trigger mode: 0
Integration Time (sec): 1.450000E-1
Scans to average: 20
Nonlinearity correction enabled: false
Boxcar width: 5
Storing dark spectrum: false
XAxis mode: Wavelengths
Number of Pixels in Spectrum: 512
>>>>>Begin Spectral Data<<<<<
187.83	215.51
188.298	244.19
188.766	225.9
189.233	175.29
189.701	175.15
190.169	233.15
190.636	289.97
191.104	506.69
191.571	431.22
192.039	75.88
192.506	-177.93
192.974	-79.3
193.441	77.69
193.908	61.55
194.375	31.56
194.842	-44.29
195.31	50.33
195.777	327.38
196.244	57.25
196.711	32.56
197.177	31.18
197.644	28.56
198.111	28.57
198.578	28.45
199.045	28.8
199.511	28.82
199.978	29.05
200.445	29.67
200.911	29.69
201.378	29.7
201.844	29.56
202.31	29.59
202.777	29.86
203.243	29.87
203.709	29.62
204.176	28.86
204.642	28.85
205.108	28.78
205.574	28.16
206.04	27.35
206.506	27.07
206.972	27.21
207.438	26.76
207.903	26.44
208.369	25.84
208.835	25.36
209.301	25
209.766	24.04
210.232	23.39
210.697	22.73
211.163	22.24
211.628	21.61
212.094	21.02
212.559	20.59
213.024	20.02
213.49	19.7
213.955	19.13
214.42	18.6
214.885	18.2
215.35	17.39
215.815	16.61
216.28	15.36
216.745	13.89
217.21	12.45
217.675	11.11
218.14	9.99
218.604	9.05
219.069	8.27
219.534	7.69
219.998	7.05
220.463	6.59
220.927	6.13
221.392	5.85
221.856	5.62
222.32	5.4
222.785	5.25
223.249	5.11
223.713	4.94
224.177	4.83
224.642	4.67
225.106	4.53
225.57	4.4
226.034	4.33
226.497	4.22
226.961	4.14
227.425	4.07
227.889	3.99
228.353	3.9
228.816	3.83
229.28	3.74
229.744	3.68
230.207	3.66
230.671	3.61
231.134	3.55
231.597	3.52
232.061	3.46
232.524	3.4
232.987	3.35
233.45	3.33
233.914	3.29
234.377	3.24
234.84	3.21
235.303	3.17
235.766	3.14
236.229	3.08
236.691	3.02
237.154	2.99
237.617	2.96
238.08	2.92
238.542	2.87
239.005	2.85
239.468	2.83
239.93	2.8
240.393	2.77
240.855	2.74
241.317	2.72
241.78	2.7
242.242	2.67
242.704	2.66
243.166	2.64
243.629	2.63
244.091	2.6
244.553	2.57
245.015	2.55
245.477	2.52
245.939	2.49
246.4	2.47
246.862	2.46
247.324	2.44
247.786	2.41
248.247	2.39
248.709	2.35
249.17	2.33
249.632	2.33
250.093	2.31
250.555	2.3
251.016	2.29
251.477	2.27
251.939	2.26
252.4	2.24
252.861	2.23
253.322	2.23
253.783	2.22
254.244	2.21
254.705	2.19
255.166	2.17
255.627	2.16
256.088	2.15
256.549	2.13
257.009	2.12
257.47	2.1
257.931	2.07
258.391	2.05
258.852	2.02
259.312	2.01
259.773	1.99
260.233	1.98
260.694	1.97
261.154	1.95
261.614	1.94
262.074	1.92
262.534	1.91
262.994	1.91
263.455	1.89
263.915	1.88
264.374	1.87
264.834	1.86
265.294	1.85
265.754	1.84
266.214	1.83
266.673	1.82
267.133	1.81
267.593	1.81
268.052	1.8
268.512	1.8
268.971	1.8
269.431	1.8
269.89	1.79
270.349	1.79
270.809	1.78
271.268	1.78
271.727	1.78
272.186	1.78
272.645	1.78
273.104	1.77
273.563	1.76
274.022	1.75
274.481	1.75
274.94	1.76
275.399	1.75
275.857	1.74
276.316	1.74
276.775	1.74
277.233	1.74
277.692	1.74
278.15	1.74
278.609	1.74
279.067	1.74
279.525	1.74
279.984	1.74
280.442	1.74
280.9	1.75
281.358	1.74
281.816	1.75
282.274	1.74
282.732	1.74
283.19	1.73
283.648	1.73
284.106	1.73
284.564	1.72
285.021	1.71
285.479	1.71
285.937	1.7
286.394	1.69
286.852	1.68
287.309	1.67
287.767	1.66
288.224	1.66
288.682	1.65
289.139	1.64
289.596	1.63
290.053	1.62
290.511	1.61
290.968	1.61
291.425	1.6
291.882	1.6
292.339	1.59
292.796	1.59
293.252	1.58
293.709	1.58
294.166	1.58
294.623	1.58
295.079	1.58
295.536	1.58
295.992	1.57
296.449	1.57
296.905	1.57
297.362	1.57
297.818	1.57
298.274	1.57
298.731	1.56
299.187	1.55
299.643	1.55
300.099	1.56
300.555	1.55
301.011	1.54
301.467	1.55
301.923	1.55
302.379	1.54
302.835	1.55
303.291	1.55
303.746	1.54
304.202	1.55
304.658	1.56
305.113	1.55
305.569	1.55
306.024	1.56
306.479	1.55
306.935	1.55
307.39	1.54
307.845	1.54
308.301	1.54
308.756	1.54
309.211	1.54
309.666	1.55
310.121	1.55
310.576	1.55
311.031	1.55
311.486	1.55
311.94	1.55
312.395	1.55
312.85	1.55
313.305	1.54
313.759	1.55
314.214	1.55
314.668	1.54
315.123	1.55
315.577	1.55
316.032	1.55
316.486	1.55
316.94	1.56
317.394	1.55
317.849	1.54
318.303	1.54
318.757	1.53
319.211	1.53
319.665	1.52
320.119	1.51
320.572	1.5
321.026	1.49
321.48	1.49
321.934	1.47
322.387	1.46
322.841	1.47
323.295	1.48
323.748	1.47
324.202	1.48
324.655	1.49
325.108	1.5
325.562	1.5
326.015	1.5
326.468	1.51
326.921	1.51
327.374	1.52
327.827	1.52
328.28	1.52
328.733	1.52
329.186	1.51
329.639	1.51
330.092	1.51
330.545	1.51
330.997	1.51
331.45	1.51
331.903	1.52
332.355	1.53
332.808	1.52
333.26	1.52
333.713	1.52
334.165	1.51
334.617	1.52
335.069	1.51
335.522	1.51
335.974	1.51
336.426	1.5
336.878	1.49
337.33	1.48
337.782	1.49
338.234	1.5
338.686	1.49
339.137	1.5
339.589	1.49
340.041	1.49
340.493	1.49
340.944	1.48
341.396	1.48
341.847	1.48
342.299	1.48
342.75	1.48
343.201	1.46
343.653	1.46
344.104	1.44
344.555	1.44
345.006	1.43
345.457	1.43
345.908	1.42
346.359	1.43
346.81	1.43
347.261	1.42
347.712	1.42
348.163	1.41
348.613	1.42
349.064	1.43
349.515	1.44
349.965	1.44
350.416	1.43
350.866	1.43
351.317	1.42
351.767	1.42
352.217	1.42
352.668	1.42
353.118	1.43
353.568	1.43
354.018	1.43
354.468	1.44
354.918	1.44
355.368	1.45
355.818	1.46
356.268	1.47
356.718	1.47
357.168	1.47
357.617	1.46
358.067	1.45
358.517	1.46
358.966	1.46
359.416	1.46
359.865	1.46
360.315	1.46
360.764	1.47
361.213	1.47
361.663	1.46
362.112	1.47
362.561	1.48
363.01	1.49
363.459	1.48
363.908	1.48
364.357	1.48
364.806	1.48
365.255	1.48
365.703	1.48
366.152	1.49
366.601	1.5
367.05	1.5
367.498	1.5
367.947	1.5
368.395	1.51
368.844	1.53
369.292	1.52
369.74	1.54
370.189	1.55
370.637	1.55
371.085	1.55
371.533	1.56
371.981	1.56
372.429	1.58
372.877	1.58
373.325	1.59
373.773	1.59
374.221	1.61
374.669	1.61
375.116	1.62
375.564	1.63
376.012	1.64
376.459	1.66
376.907	1.68
377.354	1.69
377.801	1.72
378.249	1.73
378.696	1.76
379.143	1.78
379.591	1.81
380.038	1.83
380.485	1.86
380.932	1.88
381.379	1.91
381.826	1.93
382.273	1.96
382.72	1.96
383.166	1.98
383.613	2
384.06	2.01
384.506	2.03
384.953	2.06
385.4	2.08
385.846	2.1
386.292	2.13
386.739	2.14
387.185	2.16
387.631	2.2
388.078	2.24
388.524	2.27
388.97	2.3
389.416	2.34
389.862	2.37
390.308	2.4
390.754	2.44
391.2	2.47
391.645	2.5
392.091	2.55
392.537	2.58
392.983	2.61
393.428	2.65
393.874	2.68
394.319	2.71
394.765	2.74
395.21	2.77
395.655	2.79
396.101	2.81
396.546	2.84
396.991	2.85
397.436	2.88
397.881	2.91
398.326	2.92
398.771	2.95
399.216	2.96
399.661	2.97
400.106	3
400.551	3.02
400.995	3.03
401.44	3.05
401.885	3.07
402.329	3.09
402.774	3.1
403.218	3.14
403.663	3.16
404.107	3.17
404.551	3.19
404.995	3.19
405.44	3.19
405.884	3.2
406.328	3.21
406.772	3.2
407.216	3.21
407.66	3.2
408.104	3.16
408.547	3.16
408.991	3.17
409.435	3.18
409.879	3.19
410.322	3.2
410.766	3.22
411.209	3.23
411.653	3.24
412.096	3.26
412.54	3.27
412.983	3.29
413.426	3.33
413.869	3.34
414.312	3.34
414.756	3.35
415.199	3.35
415.642	3.34
416.085	3.35
416.527	3.34
416.97	3.33
417.413	3.33
417.856	3.32
418.298	3.3
418.741	3.29
419.184	3.28
419.626	3.28
420.069	3.29
420.511	3.3
420.953	3.31
421.396	3.32
421.838	3.32
422.28	3.33
422.722	3.35
423.164	3.35
423.606	3.36
424.048	3.37
424.49	3.36
424.932	3.35
425.374	3.33
425.816	3.3
426.258	3.29
426.699	3.28
427.141	3.27
427.582	3.25
428.024	3.25
428.465	3.24
428.907	3.23
429.348	3.22
429.789	3.21
430.231	3.23
430.672	3.25
431.113	3.26
431.554	3.26
431.995	3.27
432.436	3.28
432.877	3.3
433.318	3.33
433.759	3.35
434.2	3.36
434.64	3.38
435.081	3.38
435.522	3.39
435.962	3.4
436.403	3.43
436.843	3.43
437.284	3.42
437.724	3.42
438.164	3.39
438.604	3.41
439.045	3.43
439.485	3.45
439.925	3.45
440.365	3.46
440.805	3.47
441.245	3.49
441.685	3.53
442.125	3.55
442.564	3.56
443.004	3.59
443.444	3.61
443.883	3.63
444.323	3.62
444.762	3.65
445.202	3.69
445.641	3.72
446.081	3.74
446.52	3.76
446.959	3.8
447.398	3.85
447.837	3.87
448.276	3.9
448.716	3.93
449.154	3.98
449.593	4
450.032	4.01
450.471	4.02
450.91	4.02
451.349	4.05
451.787	4.05
452.226	4.05
452.664	4.07
453.103	4.06
453.541	4.08
453.98	4.07
454.418	4.06
454.856	4.06
455.295	4.05
455.733	4.04
456.171	4.03
456.609	4.02
457.047	4.01
457.485	4
457.923	4.01
458.361	3.99
458.798	3.99
459.236	3.99
459.674	3.99
460.111	3.99
460.549	4
460.987	4.01
461.424	4.01
461.862	4.02
462.299	4.03
462.736	4.03
463.173	4.04
463.611	4.06
464.048	4.08
464.485	4.09
464.922	4.1
465.359	4.1
465.796	4.14
466.233	4.14
466.67	4.15
467.106	4.16
467.543	4.16
467.98	4.15
468.416	4.12
468.853	4.12
469.29	4.1
469.726	4.1
470.162	4.11
470.599	4.07
471.035	4.06
471.471	4.05
471.907	4.04
472.344	4.03
472.78	4.04
473.216	4.04
473.652	4.05
474.088	4.05
474.523	4.06
474.959	4.07
475.395	4.06
475.831	4.06
476.266	4.07
476.702	4.08
477.138	4.08
477.573	4.09
478.008	4.1
478.444	4.1
478.879	4.11
479.314	4.11
479.75	4.11
480.185	4.1
480.62	4.1
481.055	4.09
481.49	4.09
481.925	4.1
482.36	4.11
482.795	4.12
483.229	4.13
483.664	4.14
484.099	4.15
484.534	4.15
484.968	4.17
485.403	4.19
485.837	4.21
486.271	4.24
486.706	4.25
487.14	4.26
487.574	4.28
488.009	4.31
488.443	4.32
488.877	4.36
489.311	4.4
489.745	4.43
490.179	4.48
490.613	4.53
491.046	4.57
491.48	4.61
491.914	4.66
492.348	4.7
492.781	4.76
493.215	4.81
493.648	4.87
494.082	4.93
494.515	4.99
494.948	5.04
495.382	5.09
495.815	5.16
496.248	5.24
496.681	5.31
497.114	5.39
497.547	5.47
497.98	5.56
498.413	5.65
498.846	5.73
499.279	5.82
499.711	5.91
500.144	6.02
500.577	6.13
501.009	6.23
501.442	6.35
501.874	6.47
502.306	6.58
502.739	6.73
503.171	6.86
503.603	6.99
504.036	7.12
504.468	7.26
504.9	7.39
505.332	7.53
505.764	7.68
506.196	7.83
506.627	7.99
507.059	8.13
507.491	8.27
507.923	8.43
508.354	8.61
508.786	8.78
509.217	8.97
509.649	9.16
510.08	9.34
510.512	9.54
510.943	9.73
511.374	9.92
511.805	10.12
512.237	10.31
512.668	10.49
513.099	10.67
513.53	10.87
513.961	11.08
514.391	11.28
514.822	11.5
515.253	11.69
515.684	11.9
516.114	12.11
516.545	12.33
516.975	12.54
517.406	12.76
517.836	12.96
518.267	13.19
518.697	13.39
519.127	13.58
519.558	13.76
519.988	13.95
520.418	14.13
520.848	14.3
521.278	14.47
521.708	14.91
522.138	15.08
522.567	15.25
522.997	15.39
523.427	15.55
523.857	15.71
524.286	15.85
524.716	16.01
525.145	16.16
525.575	16.29
526.004	16.43
526.433	16.31
526.863	16.42
527.292	16.55
527.721	16.66
528.15	16.77
528.579	16.88
529.008	16.98
529.437	17.07
529.866	17.16
530.295	17.25
530.724	17.34
531.152	17.42
531.581	17.5
532.01	17.58
532.438	17.65
532.867	17.72
533.295	17.77
533.723	17.83
534.152	17.88
534.58	17.93
535.008	17.97
535.436	18.02
535.865	18.06
536.293	18.08
536.721	18.1
537.149	18.14
537.576	18.17
538.004	18.21
538.432	18.23
538.86	18.26
539.287	18.27
539.715	18.31
540.143	18.31
540.57	18.33
540.998	18.35
541.425	18.39
541.852	18.4
542.28	18.43
542.707	18.45
543.134	18.47
543.561	18.49
543.988	18.53
544.415	18.53
544.842	18.55
545.269	18.57
545.696	18.59
546.123	18.6
546.549	18.62
546.976	18.64
547.403	18.65
547.829	18.66
548.256	18.67
548.682	18.68
549.108	18.69
549.535	18.72
549.961	18.72
550.387	18.71
550.813	18.72
551.24	18.72
551.666	18.71
552.092	18.71
552.518	18.71
552.943	18.7
553.369	18.69
553.795	18.68
554.221	18.67
554.646	18.64
555.072	18.64
555.498	18.59
555.923	18.56
556.349	18.52
556.774	18.47
557.199	18.43
557.625	18.38
558.05	18.35
558.475	18.3
558.9	18.25
559.325	18.21
559.75	18.14
560.175	18.11
560.6	18.04
561.025	17.98
561.449	17.91
561.874	17.84
562.299	17.78
562.723	17.69
563.148	17.61
563.572	17.51
563.997	17.42
564.421	17.34
564.846	17.25
565.27	17.16
565.694	17.06
566.118	16.97
566.542	16.9
566.966	16.8
567.39	16.72
567.814	16.62
568.238	16.53
568.662	16.44
569.086	16.36
569.509	16.26
569.933	16.18
570.357	16.1
570.78	16.01
571.204	15.93
571.627	15.85
572.05	15.76
572.474	15.71
572.897	15.64
573.32	15.55
573.743	15.46
574.166	15.39
574.589	15.3
575.012	15.23
575.435	15.16
575.858	15.08
576.281	15.01
576.704	14.94
577.126	14.86
577.549	14.77
577.972	14.71
578.394	14.64
578.817	14.58
579.239	14.52
579.661	14.47
580.084	14.4
580.506	14.35
580.928	14.28
581.35	14.22
581.772	14.16
582.194	14.11
582.616	14.05
583.038	14
583.46	13.94
583.882	13.89
584.303	13.84
584.725	13.78
585.147	13.76
585.568	13.72
585.99	13.67
586.411	13.63
586.833	13.59
587.254	13.55
587.675	13.49
588.096	13.44
588.518	13.41
588.939	13.38
589.36	13.35
589.781	13.28
590.202	13.26
590.623	13.23
591.043	13.18
591.464	13.15
591.885	13.12
592.305	13.11
592.726	13.09
593.147	13.05
593.567	13.01
593.987	12.97
594.408	12.94
594.828	12.91
595.248	12.89
595.669	12.88
596.089	12.86
596.509	12.84
596.929	12.8
597.349	12.78
597.769	12.76
598.189	12.74
598.608	12.73
599.028	12.71
599.448	12.68
599.867	12.65
600.287	12.63
600.706	12.61
601.126	12.59
601.545	12.57
601.965	12.54
602.384	12.52
602.803	12.48
603.222	12.45
603.641	12.41
604.061	12.39
604.48	12.34
604.898	12.29
605.317	12.25
605.736	12.2
606.155	12.16
606.574	12.1
606.992	12.04
607.411	11.99
607.829	11.91
608.248	11.85
608.666	11.79
609.085	11.73
609.503	11.69
609.921	11.63
610.339	11.56
610.758	11.51
611.176	11.44
611.594	11.4
612.012	11.34
612.43	11.31
612.847	11.25
613.265	11.19
613.683	11.13
614.101	11.08
614.518	11.01
614.936	10.96
615.353	10.91
615.771	10.87
616.188	10.82
616.606	10.78
617.023	10.73
617.44	10.71
617.857	10.66
618.274	10.62
618.691	10.58
619.108	10.55
619.525	10.51
619.942	10.48
620.359	10.45
620.776	10.43
621.192	10.4
621.609	10.37
622.026	10.34
622.442	10.33
622.859	10.31
623.275	10.29
623.691	10.29
624.108	10.27
624.524	10.26
624.94	10.25
625.356	10.23
625.772	10.2
626.188	10.19
626.604	10.18
627.02	10.15
627.436	10.15
627.852	10.14
628.268	10.12
628.683	10.12
629.099	10.11
629.514	10.09
629.93	10.08
630.345	10.07
630.761	10.04
631.176	10.02
631.591	10.01
632.007	9.99
632.422	9.95
632.837	9.91
633.252	9.86
633.667	9.81
634.082	9.76
634.497	9.71
634.911	9.65
635.326	9.6
635.741	9.54
636.155	9.46
636.57	9.39
636.984	9.32
637.399	9.25
637.813	9.16
638.228	9.07
638.642	8.98
639.056	8.89
639.47	8.82
639.884	8.74
640.298	8.63
640.712	8.54
641.126	8.44
641.54	8.35
641.954	8.24
642.368	8.16
642.781	8.08
643.195	7.99
643.609	7.9
644.022	7.8
644.436	7.7
644.849	7.62
645.262	7.54
645.676	7.46
646.089	7.39
646.502	7.34
646.915	7.27
647.328	7.21
647.741	7.16
648.154	7.1
648.567	7.06
648.98	7.01
649.393	6.98
649.805	6.94
650.218	6.9
650.631	6.87
651.043	6.83
651.456	6.79
651.868	6.75
652.28	6.71
652.693	6.69
653.105	6.65
653.517	6.61
653.929	6.56
654.341	6.52
654.753	6.47
655.165	6.42
655.577	6.37
655.989	6.3
656.401	6.25
656.813	6.19
657.224	6.12
657.636	6.04
658.047	5.97
658.459	5.9
658.87	5.82
659.282	5.73
659.693	5.66
660.104	5.57
660.515	5.49
660.926	5.41
661.338	5.32
661.749	5.24
662.159	5.16
662.57	5.09
662.981	5.01
663.392	4.93
663.803	4.87
664.213	4.79
664.624	4.73
665.035	4.66
665.445	4.6
665.855	4.55
666.266	4.51
666.676	4.47
667.086	4.41
667.497	4.37
667.907	4.33
668.317	4.3
668.727	4.28
669.137	4.25
669.547	4.24
669.956	4.22
670.366	4.21
670.776	4.19
671.186	4.18
671.595	4.17
672.005	4.16
672.414	4.17
672.824	4.17
673.233	4.17
673.642	4.18
674.052	4.18
674.461	4.2
674.87	4.2
675.279	4.23
675.688	4.26
676.097	4.29
676.506	4.32
676.915	4.35
677.323	4.37
677.732	4.39
678.141	4.43
678.549	4.46
678.958	4.5
679.366	4.56
679.775	4.61
680.183	4.68
680.592	4.76
681	4.84
681.408	4.93
681.816	5.04
682.224	5.16
682.632	5.29
683.04	5.42
683.448	5.58
683.856	5.73
684.264	5.9
684.671	6.07
685.079	6.25
685.487	6.46
685.894	6.69
686.302	6.92
686.709	7.18
687.116	7.46
687.524	7.75
687.931	8.05
688.338	8.38
688.745	8.71
689.152	9.06
689.559	9.43
689.966	9.8
690.373	10.19
690.78	10.57
691.187	10.96
691.593	11.34
692	11.74
692.407	12.14
692.813	12.54
693.22	12.94
693.626	13.34
694.032	13.74
694.439	14.13
694.845	14.53
695.251	14.91
695.657	15.3
696.063	15.7
696.469	16.08
696.875	16.47
697.281	16.84
697.687	17.22
698.093	17.58
698.498	17.92
698.904	18.27
699.31	18.62
699.715	18.98
700.12	19.32
700.526	19.64
700.931	19.97
701.337	20.27
701.742	20.56
702.147	20.85
702.552	21.15
702.957	21.42
703.362	21.7
703.767	21.93
704.172	22.17
704.577	22.42
704.981	22.66
705.386	22.88
705.791	23.11
706.195	23.35
706.6	23.57
707.004	23.79
707.408	24.02
707.813	24.24
708.217	24.47
708.621	24.69
709.025	24.89
709.43	25.09
709.834	25.3
710.237	25.5
710.641	25.69
711.045	25.88
711.449	26.06
711.853	26.25
712.256	26.4
712.66	26.57
713.064	26.71
713.467	26.87
713.87	27.04
714.274	27.19
714.677	27.35
715.08	27.49
715.484	27.65
715.887	27.82
716.29	27.94
716.693	28.08
717.096	28.22
717.499	28.37
717.901	28.51
718.304	28.62
718.707	28.77
719.109	28.9
719.512	29.02
719.915	29.14
720.317	29.23
720.719	29.29
721.122	29.42
721.524	29.51
721.926	29.61
722.328	29.72
722.731	29.81
723.133	29.87
723.535	29.95
723.937	30.07
724.338	30.14
724.74	30.24
725.142	30.57
725.544	30.64
725.945	30.79
726.347	30.83
726.748	30.88
727.15	30.93
727.551	31.02
727.952	31.08
728.354	31.1
728.755	31.14
729.156	31.18
729.557	30.99
729.958	31.03
730.359	31.01
730.76	31.07
731.161	31.13
731.562	31.18
731.962	31.19
732.363	31.25
732.763	31.28
733.164	31.32
733.564	31.37
733.965	31.42
734.365	31.46
734.766	31.5
735.166	31.55
735.566	31.59
735.966	31.66
736.366	31.71
736.766	31.7
737.166	31.74
737.566	31.78
737.966	31.81
738.365	31.83
738.765	31.84
739.165	31.86
739.564	31.85
739.964	31.86
740.363	31.86
740.763	31.88
741.162	31.92
741.561	31.93
741.96	31.91
742.36	31.91
742.759	31.93
743.158	31.95
743.557	31.97
743.955	31.99
744.354	31.99
744.753	31.99
745.152	32
745.55	31.99
745.949	32
746.348	32.03
746.746	32.04
747.144	32.06
747.543	32.06
747.941	32.07
748.339	32.05
748.737	32.05
749.136	32.06
749.534	32.03
749.932	32.04
750.33	32.03
750.727	32.02
751.125	32.02
751.523	31.99
751.921	32.01
752.318	32.01
752.716	32.03
753.113	32.03
753.511	32.04
753.908	32.07
754.305	32.11
754.703	32.12
755.1	32.15
755.497	32.15
755.894	32.15
756.291	32.14
756.688	32.14
757.085	32.17
757.482	32.17
757.878	32.17
758.275	32.17
758.672	32.13
759.068	32.12
759.465	32.11
759.861	32.12
760.258	32.12
760.654	32.11
761.05	32.11
761.447	32.07
761.843	32.07
762.239	32.05
762.635	32.05
763.031	32.04
763.427	32.03
763.822	32.03
764.218	32.03
764.614	32.04
765.01	32.03
765.405	32.02
765.801	32.04
766.196	32.04
766.592	32.05
766.987	32.04
767.382	32.03
767.778	32.05
768.173	32.06
768.568	32.02
768.963	32.03
769.358	32.04
769.753	32.04
770.148	32.05
770.542	32.03
770.937	32.03
771.332	32.04
771.726	32.05
772.121	32.04
772.515	32.03
772.91	32.04
773.304	32.05
773.699	32.05
774.093	32.04
774.487	32.02
774.881	32.05
775.275	32.07
775.669	32.04
776.063	32.04
776.457	32.04
776.851	32.03
777.245	32
777.638	31.99
778.032	32.01
778.425	32.03
778.819	32.06
779.212	32.07
779.606	32.08
779.999	32.08
780.392	32.11
780.786	32.08
781.179	32.09
781.572	32.12
781.965	32.12
782.358	32.12
782.751	32.12
783.143	32.09
783.536	32.09
783.929	32.05
784.322	32.05
784.714	32.04
785.107	32.09
785.499	32.09
785.891	32.09
786.284	32.09
786.676	32.06
787.068	32.06
787.46	32.03
787.852	32.02
788.245	32.02
788.636	32
789.028	31.97
789.42	31.95
789.812	31.94
790.204	31.92
790.595	31.92
790.987	31.92
791.378	31.94
791.77	31.94
792.161	31.95
792.553	31.95
792.944	31.97
793.335	31.98
793.726	31.98
794.117	31.98
794.508	31.95
794.899	31.94
795.29	31.93
795.681	31.9
796.072	31.91
796.463	31.96
796.853	31.97
797.244	31.97
797.634	31.97
798.025	32
798.415	32
798.806	32.03
799.196	32.03
799.586	32.04
799.976	32.06
800.366	32.07
800.756	32.01
801.146	32
801.536	31.99
801.926	31.96
802.316	31.94
802.706	31.94
803.095	31.93
803.485	31.94
803.874	31.93
804.264	31.93
804.653	31.93
805.043	31.94
805.432	31.96
805.821	31.98
806.21	32.02
806.599	32.02
806.988	32.01
807.377	32
807.766	31.99
808.155	31.97
808.544	31.96
808.933	31.93
809.321	31.9
809.71	31.9
810.098	31.88
810.487	31.85
810.875	31.84
811.264	31.85
811.652	31.92
812.04	31.92
812.428	31.97
812.816	31.98
813.204	31.99
813.592	31.98
813.98	31.96
814.368	31.98
814.756	31.98
815.144	31.98
815.531	31.97
815.919	31.89
816.306	31.87
816.694	31.84
817.081	31.85
817.469	31.87
817.856	31.85
818.243	31.84
818.63	31.82
819.017	31.81
819.404	31.79
819.791	31.77
820.178	31.78
820.565	31.79
820.952	31.81
821.339	31.79
821.725	31.76
822.112	31.78
822.498	31.8
822.885	31.8
823.271	31.8
823.657	31.78
824.044	31.79
824.43	31.78
824.816	31.8
825.202	31.75
825.588	31.75
825.974	31.76
826.36	31.76
826.746	31.74
827.132	31.74
827.517	31.73
827.903	31.75
828.289	31.76
828.674	31.76
829.06	31.72
829.445	31.73
829.83	31.72
830.216	31.7
830.601	31.69
830.986	31.7
831.371	31.69
831.756	31.69
832.141	31.69
832.526	31.68
832.911	31.67
833.295	31.67
833.68	31.67
834.065	31.65
834.449	31.64
834.834	31.64
835.218	31.64
835.603	31.64
835.987	31.63
836.371	31.6
836.755	31.59
837.139	31.58
837.524	31.59
837.908	31.6
838.291	31.62
838.675	31.62
839.059	31.62
839.443	31.59
839.827	31.56
840.21	31.56
840.594	31.56
840.977	31.58
841.361	31.58
841.744	31.55
842.127	31.52
842.511	31.49
842.894	31.48
843.277	31.47
843.66	31.47
844.043	31.48
844.426	31.49
844.809	31.47
845.191	31.47
845.574	31.47
845.957	31.5
846.339	31.51
846.722	31.52
847.104	31.55
847.487	31.54
847.869	31.56
848.252	31.56
848.634	31.55
849.016	31.57
849.398	31.57
849.78	31.56
850.162	31.54
850.544	31.53
850.926	31.53
851.307	31.51
851.689	31.53
852.071	31.52
852.452	31.51
852.834	31.52
853.215	31.51
853.597	31.51
853.978	31.52
854.359	31.52
854.741	31.53
855.122	31.51
855.503	31.49
855.884	31.48
856.265	31.47
856.646	31.44
857.026	31.45
857.407	31.45
857.788	31.43
858.169	31.44
858.549	31.43
858.93	31.42
859.31	31.42
859.69	31.44
860.071	31.46
860.451	31.48
860.831	31.47
861.211	31.45
861.591	31.42
861.971	31.42
862.351	31.41
862.731	31.42
863.111	31.42
863.491	31.42
863.87	31.4
864.25	31.36
864.629	31.34
865.009	31.34
865.388	31.35
865.768	31.36
866.147	31.36
866.526	31.37
866.905	31.36
867.284	31.36
867.663	31.38
868.042	31.38
868.421	31.38
868.8	31.38
869.179	31.38
869.558	31.39
869.936	31.39
870.315	31.37
870.693	31.37
871.072	31.38
871.45	31.38
871.828	31.38
872.207	31.4
872.585	31.39
872.963	31.39
873.341	31.38
873.719	31.37
874.097	31.37
874.475	31.38
874.853	31.35
875.23	31.35
875.608	31.33
875.986	31.35
876.363	31.32
876.741	31.33
877.118	31.32
877.495	31.34
877.873	31.34
878.25	31.35
878.627	31.34
879.004	31.33
879.381	31.3
879.758	31.3
880.135	31.26
880.512	31.27
880.889	31.26
881.265	31.25
881.642	31.24
882.019	31.26
882.395	31.25
882.772	31.25
883.148	31.24
883.524	31.26
883.901	31.28
884.277	31.28
884.653	31.25
885.029	31.24
885.405	31.25
885.781	31.23
886.157	31.2
886.532	31.19
886.908	31.19
887.284	31.21
887.659	31.19
888.035	31.17
888.411	31.16
888.786	31.18
889.161	31.19
889.537	31.18
889.912	31.2
890.287	31.19
890.662	31.18
891.037	31.17
891.412	31.14
891.787	31.13
892.162	31.15
892.536	31.14
892.911	31.15
893.286	31.13
893.66	31.13
894.035	31.12
894.409	31.13
894.784	31.12
895.158	31.12
895.532	31.14
895.906	31.15
896.281	31.16
896.655	31.15
897.029	31.14
897.402	31.14
897.776	31.14
898.15	31.13
898.524	31.13
898.898	31.14
899.271	31.15
899.645	31.17
900.018	31.17
900.392	31.16
900.765	31.16
901.138	31.15
901.511	31.16
901.884	31.18
902.258	31.17
902.631	31.18
903.003	31.17
903.376	31.15
903.749	31.12
904.122	31.12
904.495	31.14
904.867	31.14
905.24	31.14
905.612	31.15
905.985	31.13
906.357	31.15
906.729	31.15
907.102	31.15
907.474	31.17
907.846	31.18
908.218	31.17
908.59	31.17
908.962	31.15
909.334	31.18
909.705	31.18
910.077	31.2
910.449	31.19
910.82	31.21
911.192	31.22
911.563	31.2
911.935	31.18
912.306	31.18
912.677	31.18
913.048	31.21
913.419	31.17
913.79	31.19
914.161	31.17
914.532	31.17
914.903	31.18
915.274	31.16
915.645	31.17
916.015	31.2
916.386	31.2
916.756	31.19
917.127	31.18
917.497	31.21
917.868	31.2
918.238	31.21
918.608	31.21
918.978	31.19
919.348	31.21
919.718	31.2
920.088	31.2
920.458	31.23
920.828	31.23
921.198	31.22
921.567	31.23
921.937	31.24
922.306	31.23
922.676	31.22
923.045	31.25
923.415	31.26
923.784	31.28
924.153	31.3
924.522	31.29
924.891	31.29
925.26	31.3
925.629	31.32
925.998	31.33
926.367	31.33
926.736	31.38
927.104	31.34
927.473	31.33
927.842	31.33
928.21	31.33
928.578	31.33
928.947	31.36
929.315	31.36
929.683	31.37
930.051	31.35
930.42	31.37
930.788	31.33
931.156	31.36
931.523	31.39
931.891	31.43
932.259	31.46
932.627	31.51
932.994	31.52
933.362	31.55
933.729	31.57
934.097	31.63
934.464	31.67
934.831	31.72
935.199	31.73
935.566	31.73
935.933	31.7
936.3	31.68
936.667	31.63
937.034	31.67
937.401	31.68
937.767	31.66
938.134	31.62
938.501	31.58
938.867	31.57
939.234	31.58
939.6	31.53
939.967	31.57
940.333	31.54
940.699	31.56
941.065	31.45
941.431	31.41
941.798	31.4
942.163	31.37
942.529	31.35
942.895	31.31
943.261	31.27
943.627	31.27
943.992	31.24
944.358	31.22
944.723	31.23
945.089	31.16
945.454	31.18
945.82	31.16
946.185	31.15
946.55	31.13
946.915	31.11
947.28	31.06
947.645	31.09
948.01	31.1
948.375	31.1
948.74	31.04
949.104	31.06
949.469	30.99
949.834	30.95
950.198	30.95
950.562	30.94
950.927	30.92
951.291	30.9
951.655	30.85
952.02	30.81
952.384	30.77
952.748	30.79
953.112	30.82
953.476	30.84
953.839	30.81
954.203	30.78
954.567	30.74
954.931	30.71
955.294	30.71
955.658	30.76
956.021	30.75
956.385	30.73
956.748	30.71
957.111	30.68
957.474	30.66
957.837	30.67
958.2	30.64
958.563	30.68
958.926	30.72
959.289	30.74
959.652	30.69
960.015	30.7
960.377	30.68
960.74	30.71
961.102	30.7
961.465	30.75
961.827	30.85
962.189	30.92
962.552	30.9
962.914	30.89
963.276	30.91
963.638	30.93
964	30.89
964.362	30.94
964.724	30.88
965.085	30.9
965.447	30.84
965.809	30.75
966.17	30.72
966.532	30.74
966.893	30.76
967.255	30.75
967.616	30.77
967.977	30.83
968.338	30.87
968.699	30.93
969.061	30.94
969.421	30.99
969.782	31.04
970.143	31.06
970.504	31.1
970.865	31.1
971.225	31.13
971.586	31.11
971.946	31.1
972.307	31.05
972.667	31.04
973.027	31.08
973.388	31.09
973.748	31.07
974.108	31.12
974.468	31.05
974.828	31.1
975.188	31.08
975.548	31.06
975.907	31.09
976.267	31.1
976.627	31.1
976.986	31.06
977.346	31.02
977.705	31.03
978.064	31.05
978.424	31.14
978.783	31.07
979.142	31.12
979.501	31.18
979.86	31.19
980.219	31.25
980.578	31.26
980.937	31.3
981.296	31.36
981.654	31.32
982.013	31.28
982.371	31.25
982.73	31.38
983.088	31.31
983.447	31.26
983.805	31.28
984.163	31.21
984.521	31.2
984.879	31.19
985.237	31.26
985.595	31.4
985.953	31.4
986.311	31.34
986.669	31.22
987.026	31.22
987.384	31.31
987.741	31.21
988.099	31.28
988.456	31.3
988.814	31.35
989.171	31.22
989.528	31.06
989.885	30.96
990.242	31.01
990.599	31.08
990.956	31.04
991.313	30.95
991.67	31.06
992.027	31.25
992.383	31.29
992.74	31.39
993.096	31.49
993.453	31.58
993.809	31.75
994.165	31.78
994.522	31.95
994.878	32.1
995.234	32.2
995.59	32.21
995.946	32.03
996.302	32.04
996.658	31.97
997.013	31.97
997.369	32
997.725	31.99
998.08	32.06
998.436	31.85
998.791	31.83
999.147	31.81
999.502	31.85
999.857	31.82
1000.212	31.74
1000.567	31.73
1000.922	31.62
1001.277	31.58
1001.632	31.41
1001.987	31.3
1002.342	31.24
1002.696	31.2
1003.051	31.31
1003.406	31.3
1003.76	31.33
1004.114	31.37
1004.469	31.41
1004.823	31.78
1005.177	31.7
1005.531	31.86
1005.885	31.93
1006.239	32.06
1006.593	32.25
1006.947	32.11
1007.301	32.05
1007.655	31.9
1008.008	31.95
1008.362	31.92
1008.715	31.75
1009.069	31.82
1009.422	31.96
1009.776	31.91
1010.129	31.82
1010.482	31.63
1010.835	31.71
1011.188	31.73
1011.541	31.97
1011.894	32.01
1012.247	32.05
1012.6	32.01
1012.952	32.06
1013.305	31.9
1013.657	32.15
1014.01	32.3
1014.362	32.33
1014.715	32.48
1015.067	32.54
1015.419	32.5
1015.771	32.57
1016.123	32.61
1016.475	32.56
1016.827	32.55
1017.179	32.66
1017.531	32.56
1017.883	32.5
1018.234	32.76
1018.586	32.73
1018.938	33.13
1019.289	33.07
1019.64	32.82
1019.992	32.82
1020.343	32.79
1020.694	32.95
1021.045	32.98
1021.396	32.84
1021.747	32.98
1022.098	32.86
1022.449	32.71
1022.8	32.61
1023.151	32.61
1023.501	33.04
1023.852	32.88
1024.202	33.17
1024.553	32.85
1024.903	33.14
1025.253	33.32
1025.604	33.39
1025.954	33.23
1026.304	33.25
1026.654	33.04
1027.004	33.05
1027.354	32.7
1027.703	32.82
1028.053	32.73
1028.403	33.08
1028.753	32.35
1029.102	32.18
1029.452	31.8
1029.801	31.77
1030.15	31.67
1030.499	31.35
897.758	2111.44
901.051	2111.13
904.343	2097.91
907.636	2143.38
910.928	2088.62
914.22	2080.85
917.511	2049.91
920.803	1961.91
924.094	1950.32
927.384	1906.44
930.675	1818.75
933.965	1803.91
937.255	1701.07
940.544	1634.39
943.834	1545.48
947.123	1529.09
950.411	1441.39
953.7	1408.94
956.988	1330.46
960.276	1273.47
963.563	1251.72
966.851	1209.13
970.138	1199.04
973.424	1158.96
976.711	1165.79
979.997	1107.81
983.283	1104.72
986.568	1079.58
989.853	1042.04
993.138	1024.45
996.423	986.23
999.708	959.69
1002.992	949.61
1006.275	902
1009.559	893.95
1012.842	860.15
1016.125	836.16
1019.408	818.5
1022.69	806.16
1025.972	793.68
1029.254	772.43
1032.536	758.3
1035.817	740.47
1039.098	728.84
1042.379	712.9
1045.659	704.55
1048.939	687.21
1052.219	673.42
1055.498	659.84
1058.778	646.56
1062.057	628.28
1065.335	621.04
1068.614	613.13
1071.892	606.2
1075.17	585.15
1078.447	574.25
1081.724	570.67
1085.001	565.28
1088.278	552.68
1091.554	543.35
1094.83	541.63
1098.106	538.31
1101.382	532.83
1104.657	529.61
1107.932	519.9
1111.206	524.04
1114.481	510.78
1117.755	503.55
1121.029	499.89
1124.302	501.19
1127.575	489.31
1130.848	482.89
1134.121	476.99
1137.393	475.19
1140.665	463.34
1143.937	462.32
1147.208	455.64
1150.48	456.14
1153.75	450.82
1157.021	442.24
1160.291	441.41
1163.561	437.61
1166.831	437.36
1170.101	435.48
1173.37	432.11
1176.639	434.08
1179.907	428.22
1183.176	425.48
1186.444	423.98
1189.711	423.25
1192.979	422.62
1196.246	418.38
1199.513	420.27
1202.78	418.08
1206.046	418.04
1209.312	414.11
1212.578	414.76
1215.843	418.96
1219.108	415.05
1222.373	424.48
1225.638	427.79
1228.902	435.93
1232.166	435.93
1235.43	439.52
1238.693	445.83
1241.956	446.5
1245.219	455.78
1248.482	453.97
1251.744	454.02
1255.006	456.61
1258.268	444.96
1261.529	440.27
1264.79	435.1
1268.051	432.98
1271.312	426.83
1274.572	420.78
1277.832	417.12
1281.092	409.01
1284.351	406.68
1287.61	405.97
1290.869	399.53
1294.128	396.38
1297.386	395.74
1300.644	391.61
1303.902	393.85
1307.159	391.68
1310.416	392.61
1313.673	392.89
1316.93	396.83
1320.186	397.42
1323.442	399.19
1326.697	407.71
1329.953	408.11
1333.208	411.06
1336.463	416.02
1339.717	416.32
1342.972	421.05
1346.226	424.43
1349.479	424.23
1352.733	428.4
1355.986	429.23
1359.238	429.3
1362.491	432.29
1365.743	437.15
1368.995	437.69
1372.247	435.18
1375.498	436.37
1378.749	443.46
1382	436.82
1385.251	440.77
1388.501	437.5
1391.751	442.75
1395	440.17
1398.25	437.53
1401.499	436.71
1404.748	436.53
1407.996	434.32
1411.244	432.22
1414.492	430.51
1417.74	428.83
1420.987	420.69
1424.234	423.15
1427.481	414.99
1430.728	416.51
1433.974	410.37
1437.22	407.8
1440.465	406.39
1443.711	405.3
1446.956	403.33
1450.201	396.01
1453.445	392.49
1456.689	392.16
1459.933	383.52
1463.177	381.6
1466.42	374.24
1469.663	370.5
1472.906	367.79
1476.148	357.78
1479.391	352.12
1482.633	347.28
1485.874	342.77
1489.115	340.64
1492.356	334.89
1495.597	334.04
1498.838	328.2
1502.078	325.94
1505.318	323.98
1508.557	323.88
1511.797	323.4
1515.036	321.6
1518.274	319.9
1521.513	315.36
1524.751	315.24
1527.989	314.47
1531.227	312.7
1534.464	314.27
1537.701	311.13
1540.938	309.9
1544.174	304.65
1547.41	303.9
1550.646	302.37
1553.882	302.81
1557.117	299.01
1560.352	295.73
1563.587	294.93
1566.821	292.73
1570.055	288.04
1573.289	285.5
1576.523	285.28
1579.756	283.47
1582.989	281.01
1586.222	280.68
1589.454	278.17
1592.686	280.13
1595.918	279.64
1599.15	278.18
1602.381	277.71
1605.612	278.08
1608.843	280.06
1612.073	278.99
1615.303	280.38
1618.533	281.2
1621.762	279.51
1624.992	279.92
1628.221	279.81
1631.449	278.94
1634.678	277.94
1637.906	279.81
1641.134	279.27
1644.361	278.58
1647.588	279.92
1650.815	278.24
1654.042	276.2
1657.269	278.76
1660.495	279.15
1663.72	276.04
1666.946	277.85
1670.171	278.8
1673.396	278.19
1676.621	278.34
1679.845	277.99
1683.069	277.81
1686.293	279.66
1689.517	282
1692.74	281.07
1695.963	282.61
1699.185	287.65
1702.408	286.87
1705.63	287.96
1708.852	289.51
1712.073	290.16
1715.294	291.1
1718.515	292.14
1721.736	292.15
1724.956	292.38
1728.176	292.47
1731.396	295.38
1734.616	294.13
1737.835	295.61
1741.054	293.82
1744.272	294.29
1747.491	297.88
1750.709	298.41
1753.927	299.01
1757.144	298.05
1760.361	300.87
1763.578	300.81
1766.795	299.8
1770.011	301.83
1773.227	302.36
1776.443	306.49
1779.658	308.89
1782.874	307.42
1786.089	309.7
1789.303	310.86
1792.518	314.83
1795.732	313.79
1798.945	318.68
1802.159	318.4
1805.372	320.37
1808.585	326.32
1811.797	328.08
1815.01	326.89
1818.222	330.14
1821.434	330.81
1824.645	332.68
1827.856	339.25
1831.067	343.44
1834.278	340.02
1837.488	343.3
1840.698	346.21
1843.908	342.25
1847.117	344.38
1850.326	347.43
1853.535	346.43
1856.744	354.64
1859.952	354.17
1863.16	352.9
1866.368	350.61
1869.575	358.28
1872.782	352.81
1875.989	352.02
1879.196	351.78
1882.402	351.13
1885.608	353.83
1888.814	357.12
1892.019	356.06
1895.224	356.32
1898.429	353.93
1901.634	357.91
1904.838	357.65
1908.042	363.58
1911.246	365.77
1914.449	368.73
1917.652	369.52
1920.855	368.29
1924.058	367.07
1927.26	365.63
1930.462	368.14
1933.664	373.39
1936.865	369.21
1940.066	370.18
1943.267	366.63
1946.467	365.42
1949.668	368.67
1952.868	372.41
1956.067	372.06
1959.267	372
1962.466	373.28
1965.665	370.86
1968.863	371.33
1972.061	376.06
1975.259	379.45
1978.457	383.38
1981.654	385.5
1984.852	386.11
1988.048	383.9
1991.245	388.03
1994.441	394.02
1997.637	395.78
2000.833	403.59
2004.028	408.53
2007.223	411.26
2010.418	415.72
2013.613	421.75
2016.807	427.64
2020.001	429.75
2023.194	436.59
2026.388	446.28
2029.581	454.72
2032.774	460.3
2035.966	467.79
2039.158	470.03
2042.35	479.26
2045.542	480.63
2048.733	487.63
2051.924	494.22
2055.115	503.06
2058.306	503.11
2061.496	510.14
2064.686	509.22
2067.875	516.81
2071.065	519.92
2074.254	516.18
2077.442	520.65
2080.631	523.88
2083.819	529.77
2087.007	528.32
2090.195	534.44
2093.382	539.59
2096.569	533.46
2099.756	543.84
2102.942	545.2
2106.128	551.31
2109.314	564.12
2112.5	562.54
2115.685	575.1
2118.87	575.53
2122.055	588.86
2125.239	593.42
2128.424	602.04
2131.608	606.95
2134.791	613.63
2137.974	617.33
2141.157	617.89
2144.34	618.55
2147.523	628.54
2150.705	622.81
2153.887	628.87
2157.068	630.19
2160.25	624.19
2163.431	625.57
2166.611	631.43
2169.792	645.29
2172.972	652.58
2176.152	654.44
2179.331	664.51
2182.511	677.42
2185.69	686.27
2188.868	700.28
2192.047	702.3
2195.225	722.15
2198.403	740.73
2201.58	753.98
2204.758	767.89
2207.935	783.71
2211.111	800.18
2214.288	809.63
2217.464	811.94
2220.64	820.94
2223.815	833.4
2226.991	866.18
2230.166	870.56
2233.34	887.08
2236.515	902
2239.689	902.8
2242.863	907.22
2246.036	937.53
2249.209	926.21
2252.382	940.88
2255.555	972.01
2258.727	973.55
2261.9	980.04
2265.071	987.94
2268.243	1003.16
2271.414	1015.45
2274.585	1042.05
2277.756	1051.45
2280.926	1054.42
2284.096	1079.43
2287.266	1106.63
2290.436	1115.2
2293.605	1143.91
2296.774	1181.29
2299.942	1217.61
2303.111	1226.16
2306.279	1256.94
2309.447	1269.17
2312.614	1304.08
2315.781	1343.03
2318.948	1408.27
2322.115	1382.08
2325.281	1457.75
2328.447	1425.01
2331.613	1486.1
2334.779	1469.05
2337.944	1530.77
2341.109	1549.56
2344.274	1590.05
2347.438	1649.09
2350.602	1648.99
2353.766	1698.93
2356.929	1724.58
2360.092	1709.45
2363.255	1842.85
2366.418	1829.37
2369.58	1872.92
2372.742	1983.33
2375.904	2030.68
2379.066	2018.7
2382.227	1976.73
2385.388	2142.2
2388.548	2149.03
2391.709	2182.67
2394.869	2438.76
2398.029	2317.11
2401.188	2388.36
2404.347	2372.71
2407.506	2343.7
2410.665	2408.53
2413.823	2556.79
2416.981	2709.6
2420.139	2617.44
2423.296	2583.83
2426.453	2695.52
2429.61	2584.24
2432.767	2716.1
2435.923	2695.94
2439.079	2925.83
2442.235	2963.8
2445.391	2935.49
2448.546	2917.93
2451.701	2835.88
2454.855	2838.99
2458.009	3010.8
2461.163	3120.72
2464.317	3248.58
2467.471	3329.93
2470.624	3328.53
2473.777	3249.27
2476.929	3175.77
2480.082	3091.37
2483.234	3048.29
2486.385	3191.96
2489.537	3204.27
2492.688	3334.11
2495.839	3232.8
2498.989	3168.18
2502.14	3191.43
2505.29	3230.06
2508.439	3286.5
2511.589	3270.48
2514.738	3559.76
2517.887	3490.15
2521.035	3695
2524.183	3717.59
2527.331	3749.89
2530.479	3758.02
2533.627	3777.34
