Data from N_3_HIR_WI_4N_Splice17_14-07-36-740.txt Node
Date: Sat Mar 07 14:07:36 EST 2020
User: sa697716
Spectrometer: NQ5500242
Trigger mode: 0
Integration Time (sec): 1.450000E-1
Scans to average: 20
Nonlinearity correction enabled: false
Boxcar width: 5
Storing dark spectrum: false
XAxis mode: Wavelengths
Number of Pixels in Spectrum: 512
>>>>>Begin Spectral Data<<<<<
187.83	181.96
188.298	202.16
188.766	177.77
189.233	144.16
189.701	124.94
190.169	131.75
190.636	109.3
191.104	21.79
191.571	-252.74
192.039	-86.07
192.506	-659.39
192.974	140.25
193.441	188.87
193.908	103.44
194.375	70.09
194.842	-36.08
195.31	-28.48
195.777	-188.92
196.244	36.7
196.711	53.74
197.177	59.5
197.644	58.89
198.111	59.55
198.578	59.54
199.045	59.78
199.511	59.6
199.978	59.59
200.445	59.34
200.911	59.41
201.378	59.35
201.844	59.3
202.31	58.81
202.777	58.44
203.243	58.05
203.709	57.72
204.176	57.26
204.642	56.84
205.108	56.51
205.574	56.31
206.04	55.5
206.506	54.88
206.972	54.22
207.438	53.7
207.903	52.85
208.369	52.15
208.835	51.14
209.301	49.76
209.766	48.41
210.232	47.04
210.697	45.39
211.163	44.2
211.628	43.13
212.094	42.12
212.559	41.02
213.024	40.16
213.49	39.13
213.955	38.11
214.42	37.19
214.885	35.99
215.35	34.67
215.815	32.73
216.28	30.32
216.745	27.4
217.21	24.54
217.675	21.87
218.14	19.57
218.604	17.52
219.069	15.85
219.534	14.47
219.998	13.31
220.463	12.32
220.927	11.47
221.392	10.82
221.856	10.28
222.32	9.81
222.785	9.44
223.249	9.09
223.713	8.79
224.177	8.54
224.642	8.28
225.106	8.02
225.57	7.76
226.034	7.56
226.497	7.37
226.961	7.19
227.425	7.02
227.889	6.85
228.353	6.7
228.816	6.56
229.28	6.41
229.744	6.28
230.207	6.16
230.671	6.06
231.134	5.96
231.597	5.87
232.061	5.78
232.524	5.69
232.987	5.6
233.45	5.53
233.914	5.45
234.377	5.37
234.84	5.3
235.303	5.25
235.766	5.18
236.229	5.11
236.691	5.04
237.154	4.98
237.617	4.93
238.08	4.88
238.542	4.81
239.005	4.76
239.468	4.71
239.93	4.67
240.393	4.62
240.855	4.57
241.317	4.53
241.78	4.48
242.242	4.43
242.704	4.39
243.166	4.34
243.629	4.32
244.091	4.26
244.553	4.21
245.015	4.17
245.477	4.12
245.939	4.08
246.4	4.04
246.862	4
247.324	3.98
247.786	3.93
248.247	3.9
248.709	3.84
249.17	3.8
249.632	3.77
250.093	3.74
250.555	3.71
251.016	3.68
251.477	3.64
251.939	3.62
252.4	3.59
252.861	3.56
253.322	3.54
253.783	3.52
254.244	3.51
254.705	3.48
255.166	3.46
255.627	3.43
256.088	3.42
256.549	3.4
257.009	3.38
257.47	3.35
257.931	3.33
258.391	3.3
258.852	3.27
259.312	3.24
259.773	3.21
260.233	3.19
260.694	3.17
261.154	3.13
261.614	3.11
262.074	3.08
262.534	3.05
262.994	3.03
263.455	3
263.915	2.98
264.374	2.96
264.834	2.94
265.294	2.91
265.754	2.9
266.214	2.88
266.673	2.86
267.133	2.84
267.593	2.82
268.052	2.81
268.512	2.8
268.971	2.79
269.431	2.78
269.89	2.76
270.349	2.76
270.809	2.74
271.268	2.73
271.727	2.72
272.186	2.72
272.645	2.71
273.104	2.7
273.563	2.69
274.022	2.68
274.481	2.67
274.94	2.67
275.399	2.66
275.857	2.66
276.316	2.66
276.775	2.65
277.233	2.65
277.692	2.64
278.15	2.64
278.609	2.64
279.067	2.64
279.525	2.64
279.984	2.64
280.442	2.64
280.9	2.64
281.358	2.64
281.816	2.64
282.274	2.64
282.732	2.64
283.19	2.64
283.648	2.64
284.106	2.64
284.564	2.64
285.021	2.64
285.479	2.65
285.937	2.65
286.394	2.65
286.852	2.64
287.309	2.64
287.767	2.63
288.224	2.63
288.682	2.62
289.139	2.61
289.596	2.59
290.053	2.57
290.511	2.55
290.968	2.54
291.425	2.52
291.882	2.5
292.339	2.48
292.796	2.47
293.252	2.46
293.709	2.44
294.166	2.44
294.623	2.43
295.079	2.43
295.536	2.43
295.992	2.42
296.449	2.42
296.905	2.43
297.362	2.42
297.818	2.42
298.274	2.41
298.731	2.41
299.187	2.4
299.643	2.39
300.099	2.38
300.555	2.38
301.011	2.37
301.467	2.36
301.923	2.35
302.379	2.35
302.835	2.36
303.291	2.36
303.746	2.37
304.202	2.38
304.658	2.38
305.113	2.38
305.569	2.38
306.024	2.39
306.479	2.4
306.935	2.4
307.39	2.4
307.845	2.4
308.301	2.4
308.756	2.4
309.211	2.4
309.666	2.41
310.121	2.41
310.576	2.43
311.031	2.43
311.486	2.43
311.94	2.44
312.395	2.43
312.85	2.44
313.305	2.44
313.759	2.44
314.214	2.45
314.668	2.44
315.123	2.44
315.577	2.44
316.032	2.44
316.486	2.43
316.94	2.43
317.394	2.43
317.849	2.41
318.303	2.41
318.757	2.4
319.211	2.39
319.665	2.38
320.119	2.37
320.572	2.36
321.026	2.35
321.48	2.35
321.934	2.34
322.387	2.33
322.841	2.33
323.295	2.32
323.748	2.33
324.202	2.33
324.655	2.32
325.108	2.32
325.562	2.32
326.015	2.33
326.468	2.32
326.921	2.33
327.374	2.33
327.827	2.33
328.28	2.34
328.733	2.34
329.186	2.35
329.639	2.35
330.092	2.36
330.545	2.36
330.997	2.36
331.45	2.37
331.903	2.38
332.355	2.39
332.808	2.39
333.26	2.4
333.713	2.39
334.165	2.39
334.617	2.4
335.069	2.4
335.522	2.4
335.974	2.41
336.426	2.41
336.878	2.4
337.33	2.41
337.782	2.42
338.234	2.42
338.686	2.43
339.137	2.44
339.589	2.43
340.041	2.43
340.493	2.42
340.944	2.41
341.396	2.4
341.847	2.38
342.299	2.37
342.75	2.35
343.201	2.33
343.653	2.32
344.104	2.3
344.555	2.3
345.006	2.28
345.457	2.28
345.908	2.28
346.359	2.28
346.81	2.28
347.261	2.28
347.712	2.28
348.163	2.28
348.613	2.28
349.064	2.28
349.515	2.28
349.965	2.28
350.416	2.27
350.866	2.28
351.317	2.28
351.767	2.29
352.217	2.29
352.668	2.3
353.118	2.3
353.568	2.31
354.018	2.32
354.468	2.34
354.918	2.35
355.368	2.36
355.818	2.37
356.268	2.38
356.718	2.39
357.168	2.4
357.617	2.41
358.067	2.43
358.517	2.45
358.966	2.47
359.416	2.49
359.865	2.52
360.315	2.56
360.764	2.59
361.213	2.61
361.663	2.65
362.112	2.69
362.561	2.74
363.01	2.78
363.459	2.8
363.908	2.85
364.357	2.9
364.806	2.94
365.255	2.99
365.703	3.06
366.152	3.14
366.601	3.21
367.05	3.28
367.498	3.36
367.947	3.46
368.395	3.56
368.844	3.66
369.292	3.75
369.74	3.86
370.189	3.96
370.637	4.07
371.085	4.16
371.533	4.27
371.981	4.38
372.429	4.49
372.877	4.61
373.325	4.72
373.773	4.84
374.221	4.97
374.669	5.09
375.116	5.21
375.564	5.33
376.012	5.45
376.459	5.58
376.907	5.72
377.354	5.85
377.801	5.98
378.249	6.1
378.696	6.23
379.143	6.36
379.591	6.49
380.038	6.63
380.485	6.76
380.932	6.89
381.379	7.01
381.826	7.12
382.273	7.24
382.72	7.34
383.166	7.46
383.613	7.58
384.06	7.67
384.506	7.77
384.953	7.86
385.4	7.96
385.846	8.05
386.292	8.15
386.739	8.23
387.185	8.32
387.631	8.41
388.078	8.49
388.524	8.57
388.97	8.64
389.416	8.71
389.862	8.78
390.308	8.86
390.754	8.93
391.2	8.98
391.645	9.04
392.091	9.1
392.537	9.16
392.983	9.22
393.428	9.28
393.874	9.33
394.319	9.39
394.765	9.42
395.21	9.45
395.655	9.48
396.101	9.53
396.546	9.56
396.991	9.6
397.436	9.62
397.881	9.67
398.326	9.7
398.771	9.73
399.216	9.76
399.661	9.78
400.106	9.8
400.551	9.8
400.995	9.78
401.44	9.77
401.885	9.75
402.329	9.74
402.774	9.71
403.218	9.71
403.663	9.71
404.107	9.71
404.551	9.69
404.995	9.66
405.44	9.65
405.884	9.65
406.328	9.64
406.772	9.64
407.216	9.63
407.66	9.62
408.104	9.58
408.547	9.55
408.991	9.52
409.435	9.5
409.879	9.5
410.322	9.51
410.766	9.52
411.209	9.54
411.653	9.54
412.096	9.54
412.54	9.54
412.983	9.54
413.426	9.57
413.869	9.58
414.312	9.6
414.756	9.62
415.199	9.61
415.642	9.59
416.085	9.58
416.527	9.56
416.97	9.53
417.413	9.5
417.856	9.48
418.298	9.43
418.741	9.42
419.184	9.39
419.626	9.38
420.069	9.36
420.511	9.35
420.953	9.34
421.396	9.35
421.838	9.35
422.28	9.37
422.722	9.39
423.164	9.4
423.606	9.4
424.048	9.39
424.49	9.37
424.932	9.34
425.374	9.28
425.816	9.19
426.258	9.12
426.699	9.08
427.141	9.03
427.582	9.01
428.024	9.02
428.465	9.04
428.907	9.04
429.348	9.03
429.789	9.04
430.231	9.09
430.672	9.18
431.113	9.27
431.554	9.33
431.995	9.38
432.436	9.42
432.877	9.44
433.318	9.46
433.759	9.51
434.2	9.57
434.64	9.62
435.081	9.66
435.522	9.71
435.962	9.74
436.403	9.81
436.843	9.85
437.284	9.89
437.724	9.94
438.164	9.98
438.604	10.04
439.045	10.09
439.485	10.13
439.925	10.17
440.365	10.21
440.805	10.27
441.245	10.32
441.685	10.39
442.125	10.46
442.564	10.53
443.004	10.61
443.444	10.69
443.883	10.77
444.323	10.86
444.762	10.96
445.202	11.07
445.641	11.17
446.081	11.28
446.52	11.37
446.959	11.49
447.398	11.59
447.837	11.68
448.276	11.76
448.716	11.82
449.154	11.9
449.593	11.97
450.032	12.03
450.471	12.06
450.91	12.09
451.349	12.13
451.787	12.13
452.226	12.16
452.664	12.18
453.103	12.2
453.541	12.23
453.98	12.26
454.418	12.26
454.856	12.27
455.295	12.28
455.733	12.27
456.171	12.28
456.609	12.28
457.047	12.28
457.485	12.3
457.923	12.32
458.361	12.33
458.798	12.35
459.236	12.37
459.674	12.4
460.111	12.41
460.549	12.46
460.987	12.5
461.424	12.53
461.862	12.56
462.299	12.58
462.736	12.6
463.173	12.64
463.611	12.67
464.048	12.69
464.485	12.7
464.922	12.74
465.359	12.77
465.796	12.79
466.233	12.81
466.67	12.84
467.106	12.87
467.543	12.89
467.98	12.92
468.416	12.94
468.853	12.98
469.29	13.01
469.726	13.04
470.162	13.05
470.599	13.08
471.035	13.1
471.471	13.1
471.907	13.12
472.344	13.14
472.78	13.16
473.216	13.16
473.652	13.18
474.088	13.19
474.523	13.2
474.959	13.21
475.395	13.2
475.831	13.22
476.266	13.23
476.702	13.23
477.138	13.24
477.573	13.24
478.008	13.27
478.444	13.25
478.879	13.25
479.314	13.23
479.75	13.22
480.185	13.22
480.62	13.21
481.055	13.19
481.49	13.15
481.925	13.12
482.36	13.09
482.795	13.07
483.229	13.07
483.664	13.08
484.099	13.11
484.534	13.13
484.968	13.16
485.403	13.21
485.837	13.27
486.271	13.36
486.706	13.44
487.14	13.52
487.574	13.61
488.009	13.7
488.443	13.8
488.877	13.89
489.311	14
489.745	14.12
490.179	14.24
490.613	14.37
491.046	14.5
491.48	14.62
491.914	14.77
492.348	14.92
492.781	15.08
493.215	15.24
493.648	15.41
494.082	15.57
494.515	15.73
494.948	15.91
495.382	16.08
495.815	16.27
496.248	16.48
496.681	16.68
497.114	16.87
497.547	17.06
497.98	17.26
498.413	17.48
498.846	17.7
499.279	17.93
499.711	18.16
500.144	18.41
500.577	18.66
501.009	18.91
501.442	19.17
501.874	19.45
502.306	19.74
502.739	20.03
503.171	20.3
503.603	20.6
504.036	20.89
504.468	21.18
504.9	21.46
505.332	21.78
505.764	22.08
506.196	22.38
506.627	22.69
507.059	22.99
507.491	23.31
507.923	23.63
508.354	23.96
508.786	24.28
509.217	24.61
509.649	24.93
510.08	25.25
510.512	25.57
510.943	25.89
511.374	26.21
511.805	26.53
512.237	26.81
512.668	27.11
513.099	27.4
513.53	27.69
513.961	28
514.391	28.31
514.822	28.6
515.253	28.91
515.684	29.2
516.114	29.5
516.545	29.79
516.975	30.11
517.406	30.43
517.836	30.73
518.267	31.04
518.697	31.31
519.127	31.59
519.558	31.86
519.988	32.12
520.418	32.39
520.848	32.65
521.278	32.89
521.708	33.22
522.138	33.42
522.567	33.63
522.997	33.81
523.427	34.03
523.857	34.23
524.286	34.43
524.716	34.63
525.145	34.81
525.575	34.99
526.004	35.17
526.433	35.24
526.863	35.42
527.292	35.61
527.721	35.77
528.15	35.89
528.579	36.01
529.008	36.13
529.437	36.22
529.866	36.32
530.295	36.42
530.724	36.55
531.152	36.66
531.581	36.75
532.01	36.83
532.438	36.92
532.867	37.01
533.295	37.1
533.723	37.17
534.152	37.26
534.58	37.34
535.008	37.36
535.436	37.39
535.865	37.41
536.293	37.43
536.721	37.46
537.149	37.5
537.576	37.52
538.004	37.58
538.432	37.6
538.86	37.63
539.287	37.66
539.715	37.71
540.143	37.74
540.57	37.8
540.998	37.84
541.425	37.88
541.852	37.93
542.28	37.99
542.707	37.99
543.134	38.05
543.561	38.09
543.988	38.12
544.415	38.16
544.842	38.19
545.269	38.23
545.696	38.29
546.123	38.33
546.549	38.37
546.976	38.4
547.403	38.46
547.829	38.48
548.256	38.51
548.682	38.55
549.108	38.59
549.535	38.64
549.961	38.65
550.387	38.67
550.813	38.68
551.24	38.7
551.666	38.73
552.092	38.74
552.518	38.75
552.943	38.79
553.369	38.79
553.795	38.78
554.221	38.77
554.646	38.75
555.072	38.74
555.498	38.73
555.923	38.7
556.349	38.67
556.774	38.62
557.199	38.59
557.625	38.53
558.05	38.49
558.475	38.47
558.9	38.41
559.325	38.4
559.75	38.36
560.175	38.31
560.6	38.26
561.025	38.2
561.449	38.14
561.874	38.05
562.299	37.98
562.723	37.92
563.148	37.82
563.572	37.75
563.997	37.64
564.421	37.51
564.846	37.41
565.27	37.29
565.694	37.18
566.118	37.05
566.542	36.96
566.966	36.83
567.39	36.7
567.814	36.56
568.238	36.42
568.662	36.31
569.086	36.2
569.509	36.09
569.933	35.99
570.357	35.86
570.78	35.75
571.204	35.63
571.627	35.52
572.05	35.41
572.474	35.34
572.897	35.24
573.32	35.15
573.743	35.05
574.166	34.95
574.589	34.85
575.012	34.78
575.435	34.72
575.858	34.65
576.281	34.59
576.704	34.54
577.126	34.45
577.549	34.37
577.972	34.31
578.394	34.24
578.817	34.19
579.239	34.14
579.661	34.07
580.084	34
580.506	33.94
580.928	33.88
581.35	33.82
581.772	33.76
582.194	33.71
582.616	33.64
583.038	33.6
583.46	33.51
583.882	33.45
584.303	33.39
584.725	33.3
585.147	33.22
585.568	33.14
585.99	33.07
586.411	33
586.833	32.93
587.254	32.87
587.675	32.81
588.096	32.77
588.518	32.72
588.939	32.69
589.36	32.67
589.781	32.66
590.202	32.64
590.623	32.61
591.043	32.58
591.464	32.56
591.885	32.53
592.305	32.52
592.726	32.5
593.147	32.48
593.567	32.43
593.987	32.4
594.408	32.34
594.828	32.29
595.248	32.25
595.669	32.23
596.089	32.18
596.509	32.13
596.929	32.09
597.349	32.03
597.769	31.97
598.189	31.93
598.608	31.89
599.028	31.86
599.448	31.82
599.867	31.78
600.287	31.74
600.706	31.69
601.126	31.64
601.545	31.59
601.965	31.55
602.384	31.51
602.803	31.46
603.222	31.39
603.641	31.33
604.061	31.27
604.48	31.19
604.898	31.09
605.317	31.02
605.736	30.94
606.155	30.85
606.574	30.76
606.992	30.68
607.411	30.59
607.829	30.47
608.248	30.38
608.666	30.28
609.085	30.2
609.503	30.13
609.921	30.03
610.339	29.94
610.758	29.87
611.176	29.77
611.594	29.67
612.012	29.59
612.43	29.52
612.847	29.43
613.265	29.36
613.683	29.28
614.101	29.2
614.518	29.11
614.936	29.04
615.353	28.94
615.771	28.86
616.188	28.8
616.606	28.72
617.023	28.67
617.44	28.62
617.857	28.54
618.274	28.49
618.691	28.42
619.108	28.37
619.525	28.3
619.942	28.24
620.359	28.21
620.776	28.15
621.192	28.1
621.609	28.06
622.026	28
622.442	27.96
622.859	27.92
623.275	27.88
623.691	27.84
624.108	27.82
624.524	27.78
624.94	27.76
625.356	27.75
625.772	27.72
626.188	27.71
626.604	27.7
627.02	27.7
627.436	27.69
627.852	27.68
628.268	27.69
628.683	27.67
629.099	27.67
629.514	27.65
629.93	27.63
630.345	27.62
630.761	27.56
631.176	27.53
631.591	27.47
632.007	27.43
632.422	27.38
632.837	27.32
633.252	27.26
633.667	27.19
634.082	27.11
634.497	27.02
634.911	26.94
635.326	26.86
635.741	26.75
636.155	26.65
636.57	26.54
636.984	26.42
637.399	26.28
637.813	26.14
638.228	25.98
638.642	25.83
639.056	25.66
639.47	25.51
639.884	25.32
640.298	25.14
640.712	24.96
641.126	24.76
641.54	24.57
641.954	24.39
642.368	24.19
642.781	24.02
643.195	23.83
643.609	23.64
644.022	23.46
644.436	23.3
644.849	23.13
645.262	22.96
645.676	22.81
646.089	22.67
646.502	22.53
646.915	22.41
647.328	22.3
647.741	22.17
648.154	22.07
648.567	21.96
648.98	21.85
649.393	21.76
649.805	21.68
650.218	21.59
650.631	21.51
651.043	21.4
651.456	21.3
651.868	21.17
652.28	21.07
652.693	20.97
653.105	20.85
653.517	20.74
653.929	20.63
654.341	20.5
654.753	20.35
655.165	20.21
655.577	20.07
655.989	19.92
656.401	19.78
656.813	19.62
657.224	19.44
657.636	19.26
658.047	19.07
658.459	18.86
658.87	18.66
659.282	18.46
659.693	18.25
660.104	18.04
660.515	17.81
660.926	17.59
661.338	17.37
661.749	17.16
662.159	16.94
662.57	16.73
662.981	16.53
663.392	16.33
663.803	16.14
664.213	15.94
664.624	15.75
665.035	15.57
665.445	15.41
665.855	15.23
666.266	15.07
666.676	14.92
667.086	14.77
667.497	14.63
667.907	14.49
668.317	14.36
668.727	14.24
669.137	14.12
669.547	14.02
669.956	13.91
670.366	13.84
670.776	13.75
671.186	13.68
671.595	13.61
672.005	13.55
672.414	13.51
672.824	13.46
673.233	13.44
673.642	13.42
674.052	13.4
674.461	13.38
674.87	13.38
675.279	13.39
675.688	13.4
676.097	13.42
676.506	13.46
676.915	13.52
677.323	13.59
677.732	13.67
678.141	13.77
678.549	13.89
678.958	14.03
679.366	14.19
679.775	14.37
680.183	14.58
680.592	14.82
681	15.08
681.408	15.37
681.816	15.69
682.224	16.04
682.632	16.4
683.04	16.79
683.448	17.22
683.856	17.68
684.264	18.17
684.671	18.68
685.079	19.22
685.487	19.78
685.894	20.37
686.302	20.97
686.709	21.59
687.116	22.22
687.524	22.88
687.931	23.56
688.338	24.21
688.745	24.89
689.152	25.57
689.559	26.23
689.966	26.89
690.373	27.57
690.78	28.21
691.187	28.85
691.593	29.48
692	30.09
692.407	30.66
692.813	31.25
693.22	31.78
693.626	32.32
694.032	32.86
694.439	33.37
694.845	33.85
695.251	34.33
695.657	34.77
696.063	35.2
696.469	35.61
696.875	36.02
697.281	36.41
697.687	36.8
698.093	37.18
698.498	37.52
698.904	37.85
699.31	38.17
699.715	38.49
700.12	38.8
700.526	39.09
700.931	39.39
701.337	39.68
701.742	39.94
702.147	40.2
702.552	40.45
702.957	40.69
703.362	40.93
703.767	41.14
704.172	41.33
704.577	41.55
704.981	41.77
705.386	41.98
705.791	42.15
706.195	42.36
706.6	42.56
707.004	42.72
707.408	42.89
707.813	43.05
708.217	43.22
708.621	43.4
709.025	43.53
709.43	43.64
709.834	43.79
710.237	43.94
710.641	44.04
711.045	44.14
711.449	44.26
711.853	44.4
712.256	44.51
712.66	44.59
713.064	44.68
713.467	44.81
713.87	44.91
714.274	44.97
714.677	45.05
715.08	45.14
715.484	45.23
715.887	45.33
716.29	45.39
716.693	45.48
717.096	45.59
717.499	45.69
717.901	45.78
718.304	45.88
718.707	46
719.109	46.1
719.512	46.19
719.915	46.28
720.317	46.33
720.719	46.39
721.122	46.45
721.524	46.51
721.926	46.55
722.328	46.6
722.731	46.66
723.133	46.7
723.535	46.75
723.937	46.81
724.338	46.85
724.74	46.94
725.142	47.05
725.544	47.11
725.945	47.19
726.347	47.23
726.748	47.26
727.15	47.3
727.551	47.35
727.952	47.39
728.354	47.46
728.755	47.49
729.156	47.5
729.557	47.5
729.958	47.53
730.359	47.55
730.76	47.61
731.161	47.65
731.562	47.68
731.962	47.7
732.363	47.71
732.763	47.71
733.164	47.75
733.564	47.77
733.965	47.78
734.365	47.8
734.766	47.82
735.166	47.83
735.566	47.87
735.966	47.9
736.366	47.9
736.766	47.89
737.166	47.91
737.566	47.93
737.966	47.95
738.365	47.96
738.765	47.97
739.165	47.98
739.564	48
739.964	47.96
740.363	47.96
740.763	47.96
741.162	47.98
741.561	47.96
741.96	47.94
742.36	47.95
742.759	47.95
743.158	47.94
743.557	47.93
743.955	47.93
744.354	47.95
744.753	47.97
745.152	48.02
745.55	48.05
745.949	48.12
746.348	48.13
746.746	48.14
747.144	48.19
747.543	48.21
747.941	48.28
748.339	48.28
748.737	48.3
749.136	48.29
749.534	48.28
749.932	48.28
750.33	48.26
750.727	48.29
751.125	48.32
751.523	48.31
751.921	48.32
752.318	48.31
752.716	48.33
753.113	48.32
753.511	48.32
753.908	48.32
754.305	48.3
754.703	48.28
755.1	48.23
755.497	48.15
755.894	48.06
756.291	47.95
756.688	47.83
757.085	47.74
757.482	47.67
757.878	47.58
758.275	47.49
758.672	47.43
759.068	47.38
759.465	47.32
759.861	47.29
760.258	47.29
760.654	47.32
761.05	47.38
761.447	47.42
761.843	47.44
762.239	47.49
762.635	47.54
763.031	47.58
763.427	47.63
763.822	47.71
764.218	47.81
764.614	47.87
765.01	47.93
765.405	47.96
765.801	47.98
766.196	48.04
766.592	48.06
766.987	48.13
767.382	48.15
767.778	48.17
768.173	48.18
768.568	48.18
768.963	48.2
769.358	48.22
769.753	48.24
770.148	48.25
770.542	48.27
770.937	48.3
771.332	48.28
771.726	48.32
772.121	48.34
772.515	48.35
772.91	48.36
773.304	48.38
773.699	48.39
774.093	48.38
774.487	48.4
774.881	48.4
775.275	48.38
775.669	48.36
776.063	48.3
776.457	48.28
776.851	48.26
777.245	48.25
777.638	48.23
778.032	48.21
778.425	48.26
778.819	48.25
779.212	48.25
779.606	48.27
779.999	48.3
780.392	48.34
780.786	48.34
781.179	48.35
781.572	48.38
781.965	48.42
782.358	48.41
782.751	48.37
783.143	48.37
783.536	48.35
783.929	48.34
784.322	48.31
784.714	48.34
785.107	48.38
785.499	48.39
785.891	48.35
786.284	48.32
786.676	48.34
787.068	48.34
787.46	48.33
787.852	48.38
788.245	48.4
788.636	48.4
789.028	48.38
789.42	48.34
789.812	48.35
790.204	48.36
790.595	48.38
790.987	48.37
791.378	48.41
791.77	48.43
792.161	48.42
792.553	48.39
792.944	48.37
793.335	48.36
793.726	48.4
794.117	48.38
794.508	48.36
794.899	48.35
795.29	48.35
795.681	48.3
796.072	48.3
796.463	48.29
796.853	48.28
797.244	48.3
797.634	48.3
798.025	48.3
798.415	48.3
798.806	48.32
799.196	48.34
799.586	48.36
799.976	48.37
800.366	48.37
800.756	48.35
801.146	48.38
801.536	48.38
801.926	48.37
802.316	48.38
802.706	48.39
803.095	48.37
803.485	48.35
803.874	48.32
804.264	48.33
804.653	48.34
805.043	48.34
805.432	48.3
805.821	48.31
806.21	48.34
806.599	48.31
806.988	48.3
807.377	48.3
807.766	48.3
808.155	48.29
808.544	48.29
808.933	48.28
809.321	48.28
809.71	48.3
810.098	48.28
810.487	48.22
810.875	48.22
811.264	48.2
811.652	48.21
812.04	48.2
812.428	48.22
812.816	48.19
813.204	48.16
813.592	48.15
813.98	48.16
814.368	48.16
814.756	48.17
815.144	48.16
815.531	48.15
815.919	48.14
816.306	48.13
816.694	48.12
817.081	48.13
817.469	48.13
817.856	48.1
818.243	48.06
818.63	48.03
819.017	48.02
819.404	47.99
819.791	47.98
820.178	47.96
820.565	47.92
820.952	47.9
821.339	47.9
821.725	47.91
822.112	47.94
822.498	47.97
822.885	48.02
823.271	48.01
823.657	47.99
824.044	48
824.43	48.02
824.816	48.02
825.202	48
825.588	47.98
825.974	47.96
826.36	47.95
826.746	47.91
827.132	47.9
827.517	47.9
827.903	47.93
828.289	47.95
828.674	47.94
829.06	47.92
829.445	47.9
829.83	47.9
830.216	47.87
830.601	47.82
830.986	47.81
831.371	47.77
831.756	47.76
832.141	47.75
832.526	47.71
832.911	47.67
833.295	47.66
833.68	47.67
834.065	47.65
834.449	47.64
834.834	47.64
835.218	47.65
835.603	47.65
835.987	47.61
836.371	47.59
836.755	47.56
837.139	47.53
837.524	47.54
837.908	47.54
838.291	47.54
838.675	47.53
839.059	47.49
839.443	47.47
839.827	47.43
840.21	47.43
840.594	47.43
840.977	47.43
841.361	47.45
841.744	47.42
842.127	47.38
842.511	47.34
842.894	47.35
843.277	47.35
843.66	47.3
844.043	47.32
844.426	47.32
844.809	47.31
845.191	47.29
845.574	47.28
845.957	47.3
846.339	47.29
846.722	47.31
847.104	47.33
847.487	47.32
847.869	47.34
848.252	47.34
848.634	47.32
849.016	47.33
849.398	47.34
849.78	47.32
850.162	47.3
850.544	47.3
850.926	47.31
851.307	47.28
851.689	47.31
852.071	47.33
852.452	47.32
852.834	47.34
853.215	47.32
853.597	47.33
853.978	47.33
854.359	47.33
854.741	47.32
855.122	47.32
855.503	47.3
855.884	47.27
856.265	47.25
856.646	47.26
857.026	47.27
857.407	47.28
857.788	47.27
858.169	47.3
858.549	47.32
858.93	47.34
859.31	47.35
859.69	47.38
860.071	47.41
860.451	47.4
860.831	47.39
861.211	47.38
861.591	47.36
861.971	47.36
862.351	47.33
862.731	47.33
863.111	47.29
863.491	47.25
863.87	47.23
864.25	47.2
864.629	47.2
865.009	47.19
865.388	47.18
865.768	47.2
866.147	47.19
866.526	47.2
866.905	47.2
867.284	47.22
867.663	47.25
868.042	47.27
868.421	47.3
868.8	47.3
869.179	47.32
869.558	47.29
869.936	47.28
870.315	47.28
870.693	47.27
871.072	47.28
871.45	47.27
871.828	47.26
872.207	47.27
872.585	47.25
872.963	47.24
873.341	47.24
873.719	47.3
874.097	47.32
874.475	47.32
874.853	47.33
875.23	47.32
875.608	47.32
875.986	47.34
876.363	47.35
876.741	47.36
877.118	47.39
877.495	47.38
877.873	47.37
878.25	47.37
878.627	47.39
879.004	47.39
879.381	47.41
879.758	47.37
880.135	47.35
880.512	47.31
880.889	47.29
881.265	47.25
881.642	47.27
882.019	47.25
882.395	47.25
882.772	47.22
883.148	47.21
883.524	47.19
883.901	47.19
884.277	47.19
884.653	47.18
885.029	47.16
885.405	47.16
885.781	47.12
886.157	47.09
886.532	47.08
886.908	47.05
887.284	47.03
887.659	46.99
888.035	46.97
888.411	46.96
888.786	46.95
889.161	46.98
889.537	46.97
889.912	46.95
890.287	46.95
890.662	46.9
891.037	46.9
891.412	46.87
891.787	46.87
892.162	46.87
892.536	46.86
892.911	46.84
893.286	46.8
893.66	46.79
894.035	46.78
894.409	46.76
894.784	46.78
895.158	46.77
895.532	46.78
895.906	46.76
896.281	46.76
896.655	46.75
897.029	46.75
897.402	46.75
897.776	46.76
898.15	46.76
898.524	46.76
898.898	46.75
899.271	46.77
899.645	46.76
900.018	46.77
900.392	46.8
900.765	46.82
901.138	46.82
901.511	46.85
901.884	46.84
902.258	46.86
902.631	46.87
903.003	46.88
903.376	46.87
903.749	46.88
904.122	46.91
904.495	46.9
904.867	46.89
905.24	46.94
905.612	46.93
905.985	46.95
906.357	46.95
906.729	46.96
907.102	46.97
907.474	47.01
907.846	47.02
908.218	47.02
908.59	47.03
908.962	47.02
909.334	47
909.705	47.01
910.077	47
910.449	47
910.82	46.99
911.192	47
911.563	46.97
911.935	46.97
912.306	47.01
912.677	47.02
913.048	47.05
913.419	47.05
913.79	47.06
914.161	47.07
914.532	47.06
914.903	47.08
915.274	47.1
915.645	47.11
916.015	47.11
916.386	47.09
916.756	47.08
917.127	47.08
917.497	47.1
917.868	47.1
918.238	47.1
918.608	47.14
918.978	47.13
919.348	47.1
919.718	47.1
920.088	47.14
920.458	47.14
920.828	47.14
921.198	47.11
921.567	47.09
921.937	47.11
922.306	47.09
922.676	47.09
923.045	47.1
923.415	47.11
923.784	47.09
924.153	47.09
924.522	47.08
924.891	47.07
925.26	47.1
925.629	47.11
925.998	47.1
926.367	47.11
926.736	47.1
927.104	47.07
927.473	47.04
927.842	47.02
928.21	47
928.578	46.99
928.947	46.97
929.315	46.93
929.683	46.88
930.051	46.83
930.42	46.79
930.788	46.73
931.156	46.72
931.523	46.72
931.891	46.78
932.259	46.75
932.627	46.72
932.994	46.68
933.362	46.66
933.729	46.66
934.097	46.65
934.464	46.67
934.831	46.67
935.199	46.67
935.566	46.64
935.933	46.51
936.3	46.45
936.667	46.44
937.034	46.47
937.401	46.47
937.767	46.48
938.134	46.48
938.501	46.48
938.867	46.52
939.234	46.56
939.6	46.57
939.967	46.69
940.333	46.75
940.699	46.81
941.065	46.83
941.431	46.87
941.798	46.87
942.163	46.9
942.529	46.91
942.895	46.97
943.261	46.97
943.627	47
943.992	47
944.358	47.04
944.723	47.05
945.089	46.99
945.454	47.01
945.82	47.02
946.185	47.1
946.55	47.09
946.915	47.07
947.28	47.05
947.645	47.05
948.01	47.04
948.375	47
948.74	46.97
949.104	47.03
949.469	47.01
949.834	46.95
950.198	46.87
950.562	46.84
950.927	46.77
951.291	46.69
951.655	46.62
952.02	46.55
952.384	46.52
952.748	46.47
953.112	46.42
953.476	46.39
953.839	46.33
954.203	46.3
954.567	46.28
954.931	46.27
955.294	46.26
955.658	46.32
956.021	46.32
956.385	46.26
956.748	46.24
957.111	46.21
957.474	46.2
957.837	46.22
958.2	46.22
958.563	46.17
958.926	46.16
959.289	46.17
959.652	46.1
960.015	46.1
960.377	46.13
960.74	46.15
961.102	46.17
961.465	46.17
961.827	46.19
962.189	46.22
962.552	46.23
962.914	46.22
963.276	46.25
963.638	46.26
964	46.26
964.362	46.27
964.724	46.26
965.085	46.22
965.447	46.17
965.809	46.12
966.17	46.08
966.532	46.06
966.893	46.08
967.255	46.06
967.616	46.08
967.977	46.05
968.338	46.05
968.699	46.03
969.061	46.06
969.421	46.12
969.782	46.14
970.143	46.1
970.504	46.13
970.865	46.17
971.225	46.19
971.586	46.19
971.946	46.19
972.307	46.2
972.667	46.22
973.027	46.21
973.388	46.17
973.748	46.2
974.108	46.29
974.468	46.28
974.828	46.28
975.188	46.27
975.548	46.2
975.907	46.21
976.267	46.18
976.627	46.15
976.986	46.18
977.346	46.18
977.705	46.17
978.064	46.15
978.424	46.17
978.783	46.1
979.142	46.07
979.501	46.12
979.86	46.19
980.219	46.27
980.578	46.31
980.937	46.31
981.296	46.29
981.654	46.25
982.013	46.21
982.371	46.23
982.73	46.28
983.088	46.23
983.447	46.21
983.805	46.18
984.163	46.15
984.521	46.13
984.879	46.12
985.237	46.22
985.595	46.33
985.953	46.36
986.311	46.28
986.669	46.24
987.026	46.33
987.384	46.39
987.741	46.36
988.099	46.37
988.456	46.37
988.814	46.38
989.171	46.36
989.528	46.3
989.885	46.31
990.242	46.39
990.599	46.44
990.956	46.47
991.313	46.53
991.67	46.58
992.027	46.65
992.383	46.7
992.74	46.78
993.096	46.75
993.453	46.78
993.809	46.79
994.165	46.83
994.522	46.86
994.878	46.86
995.234	46.78
995.59	46.73
995.946	46.77
996.302	46.76
996.658	46.68
997.013	46.77
997.369	46.81
997.725	46.84
998.08	46.97
998.436	46.98
998.791	47.03
999.147	47.04
999.502	47.22
999.857	47.13
1000.212	47.09
1000.567	47.17
1000.922	47.17
1001.277	47.13
1001.632	47.08
1001.987	46.97
1002.342	46.95
1002.696	46.85
1003.051	46.99
1003.406	46.92
1003.76	47.13
1004.114	47.17
1004.469	47.29
1004.823	47.43
1005.177	47.49
1005.531	47.65
1005.885	47.61
1006.239	47.65
1006.593	47.95
1006.947	47.91
1007.301	47.9
1007.655	47.78
1008.008	47.93
1008.362	47.88
1008.715	47.71
1009.069	47.84
1009.422	47.81
1009.776	47.92
1010.129	48.06
1010.482	47.9
1010.835	47.93
1011.188	48.05
1011.541	48.14
1011.894	48.09
1012.247	48.12
1012.6	48.31
1012.952	48.18
1013.305	48.32
1013.657	48.34
1014.01	48.48
1014.362	48.58
1014.715	48.77
1015.067	48.9
1015.419	48.92
1015.771	48.93
1016.123	49.02
1016.475	49.16
1016.827	49.52
1017.179	49.56
1017.531	49.6
1017.883	49.44
1018.234	49.61
1018.586	49.8
1018.938	49.83
1019.289	49.95
1019.64	50.25
1019.992	50.33
1020.343	50.13
1020.694	50.1
1021.045	50.02
1021.396	50.09
1021.747	50.23
1022.098	50.31
1022.449	50.06
1022.8	50.17
1023.151	50.2
1023.501	50.1
1023.852	50.09
1024.202	50.06
1024.553	50.14
1024.903	50.48
1025.253	50.75
1025.604	50.89
1025.954	50.63
1026.304	50.79
1026.654	50.49
1027.004	50.54
1027.354	50.7
1027.703	50.76
1028.053	51.1
1028.403	51
1028.753	50.66
1029.102	50.63
1029.452	50.59
1029.801	50.8
1030.15	50.73
1030.499	50.93
897.758	1218.94
901.051	1226.78
904.343	1222.76
907.636	1242.21
910.928	1208.57
914.22	1205.36
917.511	1187.98
920.803	1139.13
924.094	1134.31
927.384	1107.02
930.675	1062.83
933.965	1055.38
937.255	992.11
940.544	952.78
943.834	906.95
947.123	899.37
950.411	847.39
953.7	829.68
956.988	787.69
960.276	752.9
963.563	739.3
966.851	713.58
970.138	709.3
973.424	687.67
976.711	691.76
979.997	658.78
983.283	654.95
986.568	642.06
989.853	622.56
993.138	610.46
996.423	589.71
999.708	575.09
1002.992	567.14
1006.275	542.95
1009.559	537.37
1012.842	518.44
1016.125	504.21
1019.408	494.56
1022.69	489.47
1025.972	480.28
1029.254	468.48
1032.536	460.6
1035.817	451.27
1039.098	446.31
1042.379	436.34
1045.659	431.89
1048.939	421.64
1052.219	413.62
1055.498	409.33
1058.778	398.86
1062.057	389.72
1065.335	385.61
1068.614	381.66
1071.892	377.93
1075.17	366.65
1078.447	360.26
1081.724	357.98
1085.001	354.96
1088.278	348.99
1091.554	341.09
1094.83	342.61
1098.106	340.19
1101.382	337.57
1104.657	334
1107.932	328.26
1111.206	330.83
1114.481	322.16
1117.755	319.13
1121.029	316.39
1124.302	314.68
1127.575	310.02
1130.848	305.9
1134.121	302.41
1137.393	300.41
1140.665	295.85
1143.937	294.36
1147.208	290.84
1150.48	290.96
1153.75	286.3
1157.021	282.55
1160.291	282.54
1163.561	278.94
1166.831	278.45
1170.101	276.95
1173.37	275.96
1176.639	276.06
1179.907	273.39
1183.176	270.81
1186.444	270.96
1189.711	271.29
1192.979	270.31
1196.246	269.15
1199.513	270
1202.78	269.41
1206.046	268.95
1209.312	266.73
1212.578	266.83
1215.843	268.28
1219.108	267.76
1222.373	272.17
1225.638	273.59
1228.902	277.91
1232.166	277.3
1235.43	279.33
1238.693	283.06
1241.956	284.52
1245.219	289.2
1248.482	289.22
1251.744	290.03
1255.006	290.11
1258.268	284.17
1261.529	281.91
1264.79	279.92
1268.051	279.5
1271.312	275.85
1274.572	270.68
1277.832	269.12
1281.092	264.3
1284.351	262.55
1287.61	262.59
1290.869	257.64
1294.128	255.5
1297.386	256.49
1300.644	252.83
1303.902	253.96
1307.159	253.15
1310.416	253.9
1313.673	252.47
1316.93	255.1
1320.186	254.66
1323.442	255.16
1326.697	260.46
1329.953	261.34
1333.208	260.95
1336.463	265.05
1339.717	264.75
1342.972	267.96
1346.226	270.07
1349.479	271.21
1352.733	272.64
1355.986	273.64
1359.238	273.62
1362.491	273.77
1365.743	276.31
1368.995	276.66
1372.247	274.64
1375.498	274.76
1378.749	276.06
1382	272.27
1385.251	273.49
1388.501	271
1391.751	272.1
1395	269.83
1398.25	267.54
1401.499	265.33
1404.748	264.81
1407.996	262.34
1411.244	260.54
1414.492	258.56
1417.74	256.01
1420.987	251.37
1424.234	251.19
1427.481	247.09
1430.728	247.47
1433.974	244.93
1437.22	242.5
1440.465	241.54
1443.711	239.42
1446.956	238.72
1450.201	235.49
1453.445	233.34
1456.689	232.48
1459.933	228.81
1463.177	226.88
1466.42	223.38
1469.663	221.13
1472.906	219.77
1476.148	213.61
1479.391	211.58
1482.633	209.44
1485.874	206.67
1489.115	205.49
1492.356	203.18
1495.597	202.85
1498.838	199.74
1502.078	198.38
1505.318	197.7
1508.557	197.55
1511.797	198.58
1515.036	196.74
1518.274	196.46
1521.513	194.82
1524.751	194.88
1527.989	194.52
1531.227	193.14
1534.464	194.55
1537.701	193.68
1540.938	193.12
1544.174	190.48
1547.41	190.11
1550.646	189.94
1553.882	189.4
1557.117	187.88
1560.352	186.34
1563.587	186.23
1566.821	185.31
1570.055	183.87
1573.289	182.15
1576.523	182.11
1579.756	181.64
1582.989	180.26
1586.222	179.78
1589.454	179.24
1592.686	180.37
1595.918	180.08
1599.15	179.06
1602.381	179.71
1605.612	179.25
1608.843	180.17
1612.073	179.61
1615.303	180.61
1618.533	181.19
1621.762	180.45
1624.992	180.36
1628.221	180.23
1631.449	179.64
1634.678	179.81
1637.906	180.75
1641.134	180.86
1644.361	180.37
1647.588	181.21
1650.815	180.29
1654.042	179.71
1657.269	181.45
1660.495	181.57
1663.72	180.78
1666.946	181.55
1670.171	181.95
1673.396	181.54
1676.621	181.59
1679.845	182.06
1683.069	182.5
1686.293	183.63
1689.517	184.57
1692.74	184.32
1695.963	185.05
1699.185	186.93
1702.408	186.79
1705.63	187.44
1708.852	187.7
1712.073	188.05
1715.294	188.52
1718.515	189.14
1721.736	188.45
1724.956	189.37
1728.176	189.25
1731.396	190.47
1734.616	189.39
1737.835	190.59
1741.054	189.07
1744.272	190
1747.491	191.54
1750.709	191.71
1753.927	191.61
1757.144	191.25
1760.361	191.26
1763.578	191.73
1766.795	191.17
1770.011	193.32
1773.227	192.96
1776.443	195.42
1779.658	195.32
1782.874	194.64
1786.089	194.81
1789.303	195.5
1792.518	198
1795.732	197.69
1798.945	199.63
1802.159	199.86
1805.372	199.52
1808.585	202.96
1811.797	203.44
1815.01	203.38
1818.222	205.31
1821.434	208.12
1824.645	207.92
1827.856	210.89
1831.067	212.61
1834.278	212.69
1837.488	213.65
1840.698	215.13
1843.908	213.21
1847.117	214.03
1850.326	216.3
1853.535	215.03
1856.744	217.06
1859.952	217.22
1863.16	215.34
1866.368	213.85
1869.575	214.51
1872.782	211.83
1875.989	211.3
1879.196	210.09
1882.402	209.16
1885.608	208.83
1888.814	209.05
1892.019	208.21
1895.224	207.66
1898.429	207.72
1901.634	208.31
1904.838	208.63
1908.042	210.59
1911.246	211.53
1914.449	213.1
1917.652	212.16
1920.855	212.07
1924.058	212.33
1927.26	210.88
1930.462	211.63
1933.664	212.64
1936.865	211.73
1940.066	210.74
1943.267	209.82
1946.467	209.4
1949.668	210.26
1952.868	213.69
1956.067	214.33
1959.267	212.79
1962.466	213.88
1965.665	212.9
1968.863	213.9
1972.061	216.91
1975.259	218.59
1978.457	220.06
1981.654	221.38
1984.852	222.17
1988.048	220.9
1991.245	223.25
1994.441	226.95
1997.637	228.3
2000.833	232.68
2004.028	236.34
2007.223	237.27
2010.418	241.05
2013.613	245.5
2016.807	248.66
2020.001	250.75
2023.194	254.72
2026.388	260.52
2029.581	265.85
2032.774	268.37
2035.966	273.45
2039.158	272.97
2042.35	278.43
2045.542	279.57
2048.733	284.42
2051.924	287.17
2055.115	292.21
2058.306	292.76
2061.496	294.31
2064.686	296.11
2067.875	301.34
2071.065	302.98
2074.254	300.45
2077.442	305.48
2080.631	307.14
2083.819	309.3
2087.007	310.16
2090.195	313.4
2093.382	315.8
2096.569	314.03
2099.756	318.78
2102.942	319.43
2106.128	321.81
2109.314	331.58
2112.5	329.13
2115.685	336.3
2118.87	336.23
2122.055	344.12
2125.239	346.19
2128.424	351.43
2131.608	353.75
2134.791	360
2137.974	361.51
2141.157	361.74
2144.34	361.51
2147.523	368.43
2150.705	365.58
2153.887	369.31
2157.068	369.32
2160.25	366.47
2163.431	367.75
2166.611	373.05
2169.792	377.02
2172.972	381.89
2176.152	385.2
2179.331	390.71
2182.511	395.11
2185.69	399.77
2188.868	407.33
2192.047	408.82
2195.225	420.58
2198.403	431.13
2201.58	438.96
2204.758	448.82
2207.935	456.77
2211.111	466.21
2214.288	470.04
2217.464	471.56
2220.64	479.71
2223.815	486.36
2226.991	506.32
2230.166	507.09
2233.34	514.93
2236.515	522.57
2239.689	522.48
2242.863	525.62
2246.036	541.05
2249.209	536.03
2252.382	547.79
2255.555	562.02
2258.727	565.37
2261.9	568.06
2265.071	573.43
2268.243	584.02
2271.414	592.08
2274.585	603.79
2277.756	610.29
2280.926	610.94
2284.096	628.64
2287.266	639.16
2290.436	644.91
2293.605	659.07
2296.774	680.75
2299.942	698.54
2303.111	702.61
2306.279	717.79
2309.447	728.81
2312.614	747.71
2315.781	772.13
2318.948	806.75
2322.115	794.47
2325.281	839.96
2328.447	823.92
2331.613	853.24
2334.779	848.72
2337.944	880.43
2341.109	887.29
2344.274	910.66
2347.438	944.04
2350.602	945.06
2353.766	971.47
2356.929	986.65
2360.092	979.18
2363.255	1048.37
2366.418	1046.36
2369.58	1066.27
2372.742	1137.28
2375.904	1167.68
2379.066	1161.56
2382.227	1135.94
2385.388	1228.93
2388.548	1233.38
2391.709	1251.35
2394.869	1391.7
2398.029	1332.33
2401.188	1374.28
2404.347	1368.74
2407.506	1342.02
2410.665	1380.47
2413.823	1461.13
2416.981	1550.13
2420.139	1506.83
2423.296	1487.02
2426.453	1554.69
2429.61	1489.68
2432.767	1559.01
2435.923	1540.74
2439.079	1685.31
2442.235	1710.91
2445.391	1697.28
2448.546	1682.81
2451.701	1635.59
2454.855	1627.51
2458.009	1730.87
2461.163	1795.37
2464.317	1869.27
2467.471	1914.97
2470.624	1917.23
2473.777	1866.56
2476.929	1816.23
2480.082	1761.39
2483.234	1745.92
2486.385	1832.85
2489.537	1837.38
2492.688	1903.14
2495.839	1847.09
2498.989	1809.04
2502.14	1816.94
2505.29	1832.52
2508.439	1856.67
2511.589	1857.43
2514.738	2018.35
2517.887	1976.68
2521.035	2091.77
2524.183	2106.74
2527.331	2120.19
2530.479	2113.42
2533.627	2124.46
