Data from N_3_DIV_PA_2N_Splice17_14-11-26-819.txt Node
Date: Sat Mar 07 14:11:26 EST 2020
User: sa697716
Spectrometer: NQ5500242
Trigger mode: 0
Integration Time (sec): 1.450000E-1
Scans to average: 20
Nonlinearity correction enabled: false
Boxcar width: 5
Storing dark spectrum: false
XAxis mode: Wavelengths
Number of Pixels in Spectrum: 512
>>>>>Begin Spectral Data<<<<<
187.83	176.65
188.298	194.17
188.766	171.98
189.233	152.65
189.701	142.25
190.169	148.16
190.636	153.9
191.104	216.03
191.571	180.55
192.039	276.06
192.506	-3.6
192.974	136.19
193.441	119.76
193.908	68.51
194.375	77.01
194.842	22.34
195.31	-50.52
195.777	-410.6
196.244	35.87
196.711	59.37
197.177	65.43
197.644	65.2
198.111	65.17
198.578	66.26
199.045	66.54
199.511	66.68
199.978	66.68
200.445	67.34
200.911	67.78
201.378	67.92
201.844	68.11
202.31	67.51
202.777	67.86
203.243	67.87
203.709	67.6
204.176	66.96
204.642	66.64
205.108	66.55
205.574	66.01
206.04	65.46
206.506	64.81
206.972	64.53
207.438	64.32
207.903	63.2
208.369	62.19
208.835	61.53
209.301	60.65
209.766	59.3
210.232	57.96
210.697	56.8
211.163	55.61
211.628	54.75
212.094	53.4
212.559	52.46
213.024	51.47
213.49	50.65
213.955	49.5
214.42	48.75
214.885	47.79
215.35	46.6
215.815	44.72
216.28	42.69
216.745	40.23
217.21	38
217.675	35.69
218.14	33.87
218.604	32.07
219.069	30.63
219.534	29.35
219.998	28.3
220.463	27.37
220.927	26.57
221.392	25.91
221.856	25.35
222.32	24.87
222.785	24.41
223.249	23.96
223.713	23.57
224.177	23.21
224.642	22.85
225.106	22.48
225.57	22.1
226.034	21.81
226.497	21.51
226.961	21.24
227.425	20.93
227.889	20.65
228.353	20.38
228.816	20.08
229.28	19.79
229.744	19.54
230.207	19.28
230.671	19.06
231.134	18.8
231.597	18.56
232.061	18.3
232.524	18.07
232.987	17.85
233.45	17.62
233.914	17.43
234.377	17.22
234.84	17.02
235.303	16.83
235.766	16.63
236.229	16.45
236.691	16.27
237.154	16.12
237.617	15.96
238.08	15.81
238.542	15.65
239.005	15.51
239.468	15.36
239.93	15.22
240.393	15.08
240.855	14.93
241.317	14.79
241.78	14.64
242.242	14.48
242.704	14.34
243.166	14.19
243.629	14.06
244.091	13.91
244.553	13.78
245.015	13.64
245.477	13.51
245.939	13.38
246.4	13.26
246.862	13.14
247.324	13.03
247.786	12.91
248.247	12.8
248.709	12.68
249.17	12.56
249.632	12.46
250.093	12.36
250.555	12.26
251.016	12.17
251.477	12.07
251.939	11.98
252.4	11.89
252.861	11.8
253.322	11.71
253.783	11.63
254.244	11.56
254.705	11.48
255.166	11.42
255.627	11.34
256.088	11.25
256.549	11.19
257.009	11.12
257.47	11.04
257.931	10.97
258.391	10.9
258.852	10.81
259.312	10.75
259.773	10.68
260.233	10.61
260.694	10.53
261.154	10.45
261.614	10.39
262.074	10.32
262.534	10.26
262.994	10.21
263.455	10.16
263.915	10.1
264.374	10.05
264.834	9.99
265.294	9.94
265.754	9.91
266.214	9.88
266.673	9.83
267.133	9.8
267.593	9.77
268.052	9.73
268.512	9.7
268.971	9.68
269.431	9.64
269.89	9.61
270.349	9.58
270.809	9.55
271.268	9.51
271.727	9.47
272.186	9.44
272.645	9.41
273.104	9.37
273.563	9.33
274.022	9.3
274.481	9.27
274.94	9.24
275.399	9.2
275.857	9.17
276.316	9.14
276.775	9.11
277.233	9.09
277.692	9.05
278.15	9.02
278.609	8.99
279.067	8.96
279.525	8.93
279.984	8.9
280.442	8.86
280.9	8.83
281.358	8.81
281.816	8.78
282.274	8.75
282.732	8.72
283.19	8.68
283.648	8.66
284.106	8.64
284.564	8.61
285.021	8.6
285.479	8.58
285.937	8.55
286.394	8.53
286.852	8.49
287.309	8.46
287.767	8.43
288.224	8.4
288.682	8.37
289.139	8.32
289.596	8.28
290.053	8.23
290.511	8.19
290.968	8.15
291.425	8.11
291.882	8.08
292.339	8.04
292.796	8.01
293.252	7.97
293.709	7.93
294.166	7.91
294.623	7.89
295.079	7.86
295.536	7.84
295.992	7.81
296.449	7.78
296.905	7.76
297.362	7.73
297.818	7.7
298.274	7.69
298.731	7.66
299.187	7.63
299.643	7.59
300.099	7.57
300.555	7.54
301.011	7.51
301.467	7.49
301.923	7.46
302.379	7.44
302.835	7.42
303.291	7.39
303.746	7.37
304.202	7.36
304.658	7.34
305.113	7.33
305.569	7.32
306.024	7.3
306.479	7.28
306.935	7.27
307.39	7.26
307.845	7.25
308.301	7.23
308.756	7.23
309.211	7.21
309.666	7.2
310.121	7.18
310.576	7.17
311.031	7.15
311.486	7.14
311.94	7.13
312.395	7.12
312.85	7.11
313.305	7.1
313.759	7.09
314.214	7.07
314.668	7.05
315.123	7.03
315.577	7.01
316.032	7
316.486	6.98
316.94	6.95
317.394	6.92
317.849	6.9
318.303	6.87
318.757	6.84
319.211	6.81
319.665	6.79
320.119	6.77
320.572	6.74
321.026	6.72
321.48	6.69
321.934	6.67
322.387	6.65
322.841	6.63
323.295	6.62
323.748	6.6
324.202	6.59
324.655	6.57
325.108	6.56
325.562	6.55
326.015	6.54
326.468	6.53
326.921	6.52
327.374	6.5
327.827	6.49
328.28	6.48
328.733	6.46
329.186	6.45
329.639	6.45
330.092	6.44
330.545	6.42
330.997	6.41
331.45	6.4
331.903	6.4
332.355	6.4
332.808	6.39
333.26	6.39
333.713	6.38
334.165	6.37
334.617	6.36
335.069	6.36
335.522	6.36
335.974	6.36
336.426	6.35
336.878	6.34
337.33	6.33
337.782	6.31
338.234	6.32
338.686	6.31
339.137	6.32
339.589	6.29
340.041	6.27
340.493	6.25
340.944	6.22
341.396	6.21
341.847	6.2
342.299	6.17
342.75	6.16
343.201	6.11
343.653	6.09
344.104	6.05
344.555	6.03
345.006	6.01
345.457	5.99
345.908	5.98
346.359	5.96
346.81	5.94
347.261	5.93
347.712	5.91
348.163	5.91
348.613	5.9
349.064	5.9
349.515	5.9
349.965	5.89
350.416	5.88
350.866	5.87
351.317	5.86
351.767	5.85
352.217	5.84
352.668	5.84
353.118	5.83
353.568	5.82
354.018	5.82
354.468	5.82
354.918	5.81
355.368	5.82
355.818	5.81
356.268	5.81
356.718	5.8
357.168	5.79
357.617	5.78
358.067	5.78
358.517	5.79
358.966	5.78
359.416	5.77
359.865	5.76
360.315	5.75
360.764	5.76
361.213	5.74
361.663	5.73
362.112	5.73
362.561	5.73
363.01	5.71
363.459	5.68
363.908	5.68
364.357	5.67
364.806	5.66
365.255	5.65
365.703	5.65
366.152	5.66
366.601	5.66
367.05	5.67
367.498	5.65
367.947	5.66
368.395	5.67
368.844	5.67
369.292	5.66
369.74	5.67
370.189	5.65
370.637	5.64
371.085	5.62
371.533	5.61
371.981	5.6
372.429	5.58
372.877	5.57
373.325	5.56
373.773	5.54
374.221	5.52
374.669	5.51
375.116	5.5
375.564	5.49
376.012	5.49
376.459	5.47
376.907	5.47
377.354	5.48
377.801	5.48
378.249	5.48
378.696	5.48
379.143	5.49
379.591	5.48
380.038	5.48
380.485	5.49
380.932	5.48
381.379	5.49
381.826	5.49
382.273	5.49
382.72	5.48
383.166	5.48
383.613	5.47
384.06	5.46
384.506	5.46
384.953	5.46
385.4	5.47
385.846	5.47
386.292	5.47
386.739	5.48
387.185	5.47
387.631	5.49
388.078	5.49
388.524	5.5
388.97	5.51
389.416	5.51
389.862	5.53
390.308	5.53
390.754	5.54
391.2	5.56
391.645	5.56
392.091	5.6
392.537	5.61
392.983	5.64
393.428	5.66
393.874	5.66
394.319	5.69
394.765	5.7
395.21	5.71
395.655	5.73
396.101	5.76
396.546	5.78
396.991	5.79
397.436	5.8
397.881	5.83
398.326	5.87
398.771	5.89
399.216	5.93
399.661	5.97
400.106	6
400.551	6
400.995	6.01
401.44	6.03
401.885	6.03
402.329	6.05
402.774	6.06
403.218	6.08
403.663	6.11
404.107	6.12
404.551	6.12
404.995	6.14
405.44	6.16
405.884	6.18
406.328	6.2
406.772	6.21
407.216	6.23
407.66	6.24
408.104	6.24
408.547	6.24
408.991	6.25
409.435	6.25
409.879	6.26
410.322	6.27
410.766	6.29
411.209	6.31
411.653	6.34
412.096	6.36
412.54	6.38
412.983	6.39
413.426	6.43
413.869	6.45
414.312	6.49
414.756	6.52
415.199	6.55
415.642	6.57
416.085	6.59
416.527	6.6
416.97	6.59
417.413	6.6
417.856	6.61
418.298	6.59
418.741	6.59
419.184	6.58
419.626	6.57
420.069	6.57
420.511	6.57
420.953	6.56
421.396	6.57
421.838	6.6
422.28	6.58
422.722	6.61
423.164	6.62
423.606	6.64
424.048	6.66
424.49	6.68
424.932	6.68
425.374	6.67
425.816	6.65
426.258	6.63
426.699	6.61
427.141	6.6
427.582	6.6
428.024	6.62
428.465	6.62
428.907	6.61
429.348	6.6
429.789	6.59
430.231	6.61
430.672	6.62
431.113	6.66
431.554	6.68
431.995	6.7
432.436	6.69
432.877	6.68
433.318	6.68
433.759	6.69
434.2	6.69
434.64	6.7
435.081	6.72
435.522	6.73
435.962	6.74
436.403	6.78
436.843	6.8
437.284	6.79
437.724	6.81
438.164	6.82
438.604	6.84
439.045	6.84
439.485	6.85
439.925	6.85
440.365	6.86
440.805	6.86
441.245	6.86
441.685	6.87
442.125	6.91
442.564	6.93
443.004	6.94
443.444	6.95
443.883	6.98
444.323	6.98
444.762	7.01
445.202	7.04
445.641	7.06
446.081	7.09
446.52	7.09
446.959	7.13
447.398	7.15
447.837	7.18
448.276	7.21
448.716	7.23
449.154	7.28
449.593	7.29
450.032	7.3
450.471	7.29
450.91	7.28
451.349	7.31
451.787	7.3
452.226	7.29
452.664	7.29
453.103	7.27
453.541	7.26
453.98	7.25
454.418	7.25
454.856	7.24
455.295	7.25
455.733	7.22
456.171	7.2
456.609	7.19
457.047	7.16
457.485	7.15
457.923	7.13
458.361	7.11
458.798	7.09
459.236	7.07
459.674	7.06
460.111	7.04
460.549	7.05
460.987	7.04
461.424	7.06
461.862	7.06
462.299	7.06
462.736	7.06
463.173	7.06
463.611	7.05
464.048	7.05
464.485	7.05
464.922	7.05
465.359	7.05
465.796	7.05
466.233	7.04
466.67	7.05
467.106	7.05
467.543	7.04
467.98	7.04
468.416	7.04
468.853	7.05
469.29	7.04
469.726	7.05
470.162	7.04
470.599	7.05
471.035	7.03
471.471	7.02
471.907	7.01
472.344	7.02
472.78	7.04
473.216	7.03
473.652	7.04
474.088	7.04
474.523	7.03
474.959	7.04
475.395	7.04
475.831	7.03
476.266	7.03
476.702	7.03
477.138	7.01
477.573	7.01
478.008	7
478.444	6.99
478.879	6.99
479.314	6.97
479.75	6.96
480.185	6.94
480.62	6.95
481.055	6.94
481.49	6.93
481.925	6.93
482.36	6.92
482.795	6.91
483.229	6.91
483.664	6.91
484.099	6.91
484.534	6.92
484.968	6.92
485.403	6.93
485.837	6.95
486.271	6.97
486.706	6.98
487.14	7.01
487.574	7.04
488.009	7.06
488.443	7.08
488.877	7.12
489.311	7.14
489.745	7.18
490.179	7.22
490.613	7.27
491.046	7.31
491.48	7.35
491.914	7.4
492.348	7.46
492.781	7.52
493.215	7.6
493.648	7.66
494.082	7.73
494.515	7.81
494.948	7.88
495.382	7.97
495.815	8.06
496.248	8.16
496.681	8.26
497.114	8.36
497.547	8.46
497.98	8.57
498.413	8.69
498.846	8.81
499.279	8.94
499.711	9.06
500.144	9.2
500.577	9.34
501.009	9.49
501.442	9.63
501.874	9.79
502.306	9.96
502.739	10.13
503.171	10.32
503.603	10.52
504.036	10.72
504.468	10.92
504.9	11.12
505.332	11.34
505.764	11.57
506.196	11.81
506.627	12.06
507.059	12.31
507.491	12.57
507.923	12.83
508.354	13.1
508.786	13.39
509.217	13.69
509.649	13.98
510.08	14.3
510.512	14.6
510.943	14.91
511.374	15.22
511.805	15.56
512.237	15.88
512.668	16.22
513.099	16.54
513.53	16.89
513.961	17.24
514.391	17.59
514.822	17.94
515.253	18.29
515.684	18.66
516.114	19.02
516.545	19.39
516.975	19.75
517.406	20.11
517.836	20.48
518.267	20.85
518.697	21.19
519.127	21.53
519.558	21.88
519.988	22.23
520.418	22.56
520.848	22.9
521.278	23.22
521.708	23.56
522.138	23.89
522.567	24.19
522.997	24.48
523.427	24.78
523.857	25.08
524.286	25.35
524.716	25.64
525.145	25.91
525.575	26.16
526.004	26.41
526.433	26.64
526.863	26.86
527.292	27.09
527.721	27.3
528.15	27.49
528.579	27.7
529.008	27.89
529.437	28.05
529.866	28.21
530.295	28.37
530.724	28.52
531.152	28.65
531.581	28.8
532.01	28.92
532.438	29.06
532.867	29.16
533.295	29.26
533.723	29.35
534.152	29.44
534.58	29.52
535.008	29.58
535.436	29.67
535.865	29.75
536.293	29.81
536.721	29.87
537.149	29.93
537.576	29.99
538.004	30.05
538.432	30.09
538.86	30.13
539.287	30.15
539.715	30.21
540.143	30.24
540.57	30.28
540.998	30.31
541.425	30.34
541.852	30.36
542.28	30.4
542.707	30.43
543.134	30.47
543.561	30.5
543.988	30.56
544.415	30.58
544.842	30.61
545.269	30.64
545.696	30.67
546.123	30.72
546.549	30.76
546.976	30.82
547.403	30.86
547.829	30.89
548.256	30.93
548.682	30.96
549.108	31
549.535	31.04
549.961	31.06
550.387	31.07
550.813	31.07
551.24	31.08
551.666	31.05
552.092	31.04
552.518	31.04
552.943	31.02
553.369	31.01
553.795	30.99
554.221	30.96
554.646	30.92
555.072	30.9
555.498	30.85
555.923	30.8
556.349	30.75
556.774	30.7
557.199	30.63
557.625	30.58
558.05	30.49
558.475	30.41
558.9	30.3
559.325	30.23
559.75	30.14
560.175	30.03
560.6	29.92
561.025	29.81
561.449	29.69
561.874	29.58
562.299	29.43
562.723	29.3
563.148	29.16
563.572	29.01
563.997	28.85
564.421	28.67
564.846	28.53
565.27	28.35
565.694	28.2
566.118	28.01
566.542	27.82
566.966	27.64
567.39	27.45
567.814	27.26
568.238	27.08
568.662	26.9
569.086	26.71
569.509	26.52
569.933	26.34
570.357	26.13
570.78	25.94
571.204	25.76
571.627	25.58
572.05	25.41
572.474	25.25
572.897	25.09
573.32	24.92
573.743	24.77
574.166	24.62
574.589	24.48
575.012	24.35
575.435	24.22
575.858	24.09
576.281	23.96
576.704	23.84
577.126	23.71
577.549	23.58
577.972	23.46
578.394	23.34
578.817	23.23
579.239	23.12
579.661	23.01
580.084	22.9
580.506	22.81
580.928	22.7
581.35	22.6
581.772	22.5
582.194	22.43
582.616	22.35
583.038	22.27
583.46	22.16
583.882	22.08
584.303	21.99
584.725	21.9
585.147	21.83
585.568	21.75
585.99	21.67
586.411	21.59
586.833	21.49
587.254	21.4
587.675	21.33
588.096	21.27
588.518	21.2
588.939	21.15
589.36	21.08
589.781	21.03
590.202	20.99
590.623	20.95
591.043	20.91
591.464	20.87
591.885	20.83
592.305	20.79
592.726	20.78
593.147	20.73
593.567	20.7
593.987	20.65
594.408	20.6
594.828	20.55
595.248	20.51
595.669	20.47
596.089	20.43
596.509	20.4
596.929	20.36
597.349	20.32
597.769	20.28
598.189	20.22
598.608	20.19
599.028	20.15
599.448	20.1
599.867	20.04
600.287	19.99
600.706	19.94
601.126	19.88
601.545	19.82
601.965	19.75
602.384	19.7
602.803	19.63
603.222	19.55
603.641	19.48
604.061	19.41
604.48	19.34
604.898	19.24
605.317	19.16
605.736	19.07
606.155	18.97
606.574	18.87
606.992	18.78
607.411	18.69
607.829	18.57
608.248	18.46
608.666	18.36
609.085	18.26
609.503	18.17
609.921	18.06
610.339	17.97
610.758	17.88
611.176	17.78
611.594	17.68
612.012	17.58
612.43	17.51
612.847	17.42
613.265	17.33
613.683	17.26
614.101	17.17
614.518	17.08
614.936	16.99
615.353	16.89
615.771	16.83
616.188	16.74
616.606	16.66
617.023	16.58
617.44	16.51
617.857	16.44
618.274	16.36
618.691	16.29
619.108	16.24
619.525	16.18
619.942	16.13
620.359	16.08
620.776	16.04
621.192	15.99
621.609	15.96
622.026	15.92
622.442	15.89
622.859	15.85
623.275	15.81
623.691	15.78
624.108	15.76
624.524	15.73
624.94	15.7
625.356	15.69
625.772	15.67
626.188	15.65
626.604	15.64
627.02	15.62
627.436	15.6
627.852	15.59
628.268	15.58
628.683	15.55
629.099	15.53
629.514	15.51
629.93	15.47
630.345	15.44
630.761	15.39
631.176	15.34
631.591	15.27
632.007	15.22
632.422	15.16
632.837	15.09
633.252	15.02
633.667	14.94
634.082	14.84
634.497	14.76
634.911	14.66
635.326	14.55
635.741	14.46
636.155	14.35
636.57	14.24
636.984	14.11
637.399	13.97
637.813	13.84
638.228	13.7
638.642	13.56
639.056	13.4
639.47	13.26
639.884	13.12
640.298	12.96
640.712	12.8
641.126	12.64
641.54	12.48
641.954	12.33
642.368	12.19
642.781	12.04
643.195	11.9
643.609	11.76
644.022	11.62
644.436	11.5
644.849	11.36
645.262	11.24
645.676	11.12
646.089	11.02
646.502	10.92
646.915	10.82
647.328	10.74
647.741	10.66
648.154	10.58
648.567	10.52
648.98	10.45
649.393	10.4
649.805	10.35
650.218	10.3
650.631	10.25
651.043	10.2
651.456	10.16
651.868	10.11
652.28	10.06
652.693	10.01
653.105	9.95
653.517	9.88
653.929	9.82
654.341	9.74
654.753	9.65
655.165	9.58
655.577	9.5
655.989	9.39
656.401	9.31
656.813	9.22
657.224	9.11
657.636	9
658.047	8.91
658.459	8.78
658.87	8.68
659.282	8.57
659.693	8.46
660.104	8.35
660.515	8.25
660.926	8.13
661.338	8.02
661.749	7.93
662.159	7.82
662.57	7.73
662.981	7.65
663.392	7.56
663.803	7.48
664.213	7.4
664.624	7.32
665.035	7.26
665.445	7.21
665.855	7.15
666.266	7.1
666.676	7.07
667.086	7.03
667.497	6.99
667.907	6.97
668.317	6.95
668.727	6.91
669.137	6.89
669.547	6.88
669.956	6.85
670.366	6.84
670.776	6.83
671.186	6.82
671.595	6.83
672.005	6.82
672.414	6.81
672.824	6.81
673.233	6.83
673.642	6.86
674.052	6.87
674.461	6.88
674.87	6.91
675.279	6.94
675.688	6.96
676.097	6.99
676.506	7.03
676.915	7.08
677.323	7.13
677.732	7.18
678.141	7.23
678.549	7.29
678.958	7.37
679.366	7.45
679.775	7.51
680.183	7.59
680.592	7.7
681	7.81
681.408	7.93
681.816	8.07
682.224	8.22
682.632	8.39
683.04	8.57
683.448	8.76
683.856	8.97
684.264	9.23
684.671	9.5
685.079	9.79
685.487	10.12
685.894	10.47
686.302	10.85
686.709	11.26
687.116	11.7
687.524	12.17
687.931	12.69
688.338	13.23
688.745	13.78
689.152	14.36
689.559	14.98
689.966	15.59
690.373	16.23
690.78	16.9
691.187	17.56
691.593	18.25
692	18.96
692.407	19.66
692.813	20.39
693.22	21.11
693.626	21.84
694.032	22.57
694.439	23.3
694.845	24.04
695.251	24.77
695.657	25.5
696.063	26.21
696.469	26.92
696.875	27.63
697.281	28.31
697.687	28.98
698.093	29.66
698.498	30.29
698.904	30.94
699.31	31.58
699.715	32.17
700.12	32.77
700.526	33.37
700.931	33.94
701.337	34.49
701.742	35.03
702.147	35.57
702.552	36.1
702.957	36.62
703.362	37.13
703.767	37.6
704.172	38.1
704.577	38.58
704.981	39.04
705.386	39.48
705.791	39.93
706.195	40.39
706.6	40.84
707.004	41.25
707.408	41.67
707.813	42.06
708.217	42.46
708.621	42.86
709.025	43.2
709.43	43.56
709.834	43.94
710.237	44.28
710.641	44.61
711.045	44.93
711.449	45.27
711.853	45.6
712.256	45.92
712.66	46.23
713.064	46.53
713.467	46.86
713.87	47.18
714.274	47.42
714.677	47.74
715.08	48.02
715.484	48.31
715.887	48.58
716.29	48.86
716.693	49.1
717.096	49.37
717.499	49.64
717.901	49.89
718.304	50.13
718.707	50.39
719.109	50.62
719.512	50.86
719.915	51.08
720.317	51.26
720.719	51.42
721.122	51.63
721.524	51.84
721.926	52.02
722.328	52.21
722.731	52.4
723.133	52.6
723.535	52.78
723.937	52.95
724.338	53.1
724.74	53.27
725.142	53.49
725.544	53.66
725.945	53.79
726.347	53.91
726.748	54.03
727.15	54.14
727.551	54.27
727.952	54.36
728.354	54.48
728.755	54.59
729.156	54.69
729.557	54.76
729.958	54.84
730.359	54.94
730.76	55.06
731.161	55.17
731.562	55.28
731.962	55.31
732.363	55.41
732.763	55.48
733.164	55.57
733.564	55.66
733.965	55.73
734.365	55.82
734.766	55.87
735.166	55.93
735.566	55.97
735.966	56.01
736.366	56.1
736.766	56.13
737.166	56.19
737.566	56.22
737.966	56.26
738.365	56.3
738.765	56.34
739.165	56.38
739.564	56.41
739.964	56.43
740.363	56.44
740.763	56.46
741.162	56.5
741.561	56.5
741.96	56.53
742.36	56.55
742.759	56.55
743.158	56.55
743.557	56.57
743.955	56.62
744.354	56.67
744.753	56.74
745.152	56.79
745.55	56.82
745.949	56.87
746.348	56.9
746.746	56.94
747.144	57.02
747.543	57.06
747.941	57.09
748.339	57.09
748.737	57.11
749.136	57.11
749.534	57.11
749.932	57.11
750.33	57.1
750.727	57.13
751.125	57.12
751.523	57.09
751.921	57.08
752.318	57.06
752.716	57.06
753.113	57.04
753.511	57.04
753.908	57.06
754.305	57.06
754.703	57.04
755.1	57.01
755.497	57
755.894	56.97
756.291	56.96
756.688	56.95
757.085	56.96
757.482	56.96
757.878	56.93
758.275	56.9
758.672	56.92
759.068	56.96
759.465	56.97
759.861	56.97
760.258	57.01
760.654	56.99
761.05	57.03
761.447	57.03
761.843	57.03
762.239	57.04
762.635	57.04
763.031	57.02
763.427	56.97
763.822	56.95
764.218	56.97
764.614	56.97
765.01	56.99
765.405	56.95
765.801	56.93
766.196	56.92
766.592	56.89
766.987	56.92
767.382	56.92
767.778	56.97
768.173	57.01
768.568	56.98
768.963	56.97
769.358	56.97
769.753	56.97
770.148	56.98
770.542	56.99
770.937	57.03
771.332	57
771.726	56.99
772.121	56.98
772.515	56.92
772.91	56.93
773.304	56.94
773.699	56.91
774.093	56.92
774.487	56.91
774.881	56.91
775.275	56.86
775.669	56.84
776.063	56.82
776.457	56.81
776.851	56.79
777.245	56.76
777.638	56.73
778.032	56.75
778.425	56.76
778.819	56.77
779.212	56.77
779.606	56.79
779.999	56.8
780.392	56.82
780.786	56.82
781.179	56.87
781.572	56.94
781.965	56.97
782.358	56.96
782.751	56.95
783.143	56.97
783.536	56.97
783.929	56.99
784.322	57.01
784.714	57.03
785.107	57.08
785.499	57.08
785.891	57.07
786.284	57.1
786.676	57.12
787.068	57.11
787.46	57.11
787.852	57.13
788.245	57.15
788.636	57.15
789.028	57.14
789.42	57.1
789.812	57.11
790.204	57.12
790.595	57.12
790.987	57.14
791.378	57.18
791.77	57.19
792.161	57.19
792.553	57.17
792.944	57.16
793.335	57.19
793.726	57.23
794.117	57.23
794.508	57.23
794.899	57.23
795.29	57.21
795.681	57.2
796.072	57.19
796.463	57.21
796.853	57.25
797.244	57.28
797.634	57.26
798.025	57.27
798.415	57.3
798.806	57.28
799.196	57.28
799.586	57.3
799.976	57.32
800.366	57.33
800.756	57.36
801.146	57.39
801.536	57.41
801.926	57.43
802.316	57.46
802.706	57.49
803.095	57.51
803.485	57.51
803.874	57.52
804.264	57.54
804.653	57.53
805.043	57.51
805.432	57.51
805.821	57.53
806.21	57.55
806.599	57.53
806.988	57.51
807.377	57.55
807.766	57.58
808.155	57.59
808.544	57.62
808.933	57.65
809.321	57.68
809.71	57.69
810.098	57.71
810.487	57.68
810.875	57.68
811.264	57.7
811.652	57.71
812.04	57.71
812.428	57.77
812.816	57.78
813.204	57.76
813.592	57.74
813.98	57.78
814.368	57.78
814.756	57.84
815.144	57.85
815.531	57.84
815.919	57.83
816.306	57.86
816.694	57.85
817.081	57.87
817.469	57.89
817.856	57.91
818.243	57.89
818.63	57.88
819.017	57.84
819.404	57.85
819.791	57.87
820.178	57.89
820.565	57.87
820.952	57.83
821.339	57.78
821.725	57.79
822.112	57.8
822.498	57.81
822.885	57.84
823.271	57.84
823.657	57.81
824.044	57.79
824.43	57.81
824.816	57.81
825.202	57.82
825.588	57.8
825.974	57.79
826.36	57.77
826.746	57.75
827.132	57.72
827.517	57.71
827.903	57.73
828.289	57.74
828.674	57.69
829.06	57.69
829.445	57.69
829.83	57.67
830.216	57.65
830.601	57.65
830.986	57.63
831.371	57.63
831.756	57.64
832.141	57.58
832.526	57.57
832.911	57.56
833.295	57.53
833.68	57.53
834.065	57.54
834.449	57.53
834.834	57.5
835.218	57.49
835.603	57.45
835.987	57.42
836.371	57.41
836.755	57.39
837.139	57.37
837.524	57.37
837.908	57.37
838.291	57.37
838.675	57.35
839.059	57.36
839.443	57.35
839.827	57.36
840.21	57.34
840.594	57.36
840.977	57.35
841.361	57.36
841.744	57.31
842.127	57.28
842.511	57.23
842.894	57.22
843.277	57.19
843.66	57.17
844.043	57.16
844.426	57.17
844.809	57.16
845.191	57.16
845.574	57.13
845.957	57.15
846.339	57.15
846.722	57.18
847.104	57.21
847.487	57.21
847.869	57.21
848.252	57.22
848.634	57.22
849.016	57.23
849.398	57.23
849.78	57.24
850.162	57.25
850.544	57.24
850.926	57.23
851.307	57.2
851.689	57.22
852.071	57.21
852.452	57.21
852.834	57.22
853.215	57.19
853.597	57.17
853.978	57.17
854.359	57.17
854.741	57.19
855.122	57.19
855.503	57.18
855.884	57.17
856.265	57.18
856.646	57.17
857.026	57.18
857.407	57.2
857.788	57.22
858.169	57.22
858.549	57.21
858.93	57.21
859.31	57.19
859.69	57.2
860.071	57.23
860.451	57.21
860.831	57.21
861.211	57.2
861.591	57.19
861.971	57.15
862.351	57.16
862.731	57.17
863.111	57.14
863.491	57.17
863.87	57.17
864.25	57.15
864.629	57.16
865.009	57.18
865.388	57.17
865.768	57.16
866.147	57.2
866.526	57.19
866.905	57.2
867.284	57.22
867.663	57.22
868.042	57.21
868.421	57.22
868.8	57.2
869.179	57.2
869.558	57.2
869.936	57.2
870.315	57.19
870.693	57.21
871.072	57.21
871.45	57.23
871.828	57.22
872.207	57.25
872.585	57.25
872.963	57.27
873.341	57.29
873.719	57.32
874.097	57.33
874.475	57.33
874.853	57.33
875.23	57.35
875.608	57.35
875.986	57.38
876.363	57.38
876.741	57.4
877.118	57.42
877.495	57.43
877.873	57.42
878.25	57.45
878.627	57.5
879.004	57.49
879.381	57.51
879.758	57.51
880.135	57.5
880.512	57.48
880.889	57.47
881.265	57.47
881.642	57.46
882.019	57.45
882.395	57.39
882.772	57.36
883.148	57.33
883.524	57.29
883.901	57.28
884.277	57.27
884.653	57.23
885.029	57.19
885.405	57.18
885.781	57.18
886.157	57.18
886.532	57.19
886.908	57.19
887.284	57.22
887.659	57.21
888.035	57.17
888.411	57.15
888.786	57.18
889.161	57.2
889.537	57.19
889.912	57.18
890.287	57.17
890.662	57.14
891.037	57.13
891.412	57.1
891.787	57.05
892.162	57.05
892.536	57.04
892.911	57.01
893.286	56.98
893.66	56.94
894.035	56.91
894.409	56.87
894.784	56.87
895.158	56.82
895.532	56.81
895.906	56.79
896.281	56.76
896.655	56.73
897.029	56.74
897.402	56.7
897.776	56.7
898.15	56.68
898.524	56.7
898.898	56.69
899.271	56.68
899.645	56.68
900.018	56.7
900.392	56.71
900.765	56.74
901.138	56.74
901.511	56.75
901.884	56.77
902.258	56.78
902.631	56.77
903.003	56.81
903.376	56.84
903.749	56.83
904.122	56.88
904.495	56.9
904.867	56.93
905.24	56.94
905.612	56.98
905.985	57.01
906.357	57.02
906.729	57.03
907.102	57.01
907.474	57.04
907.846	57.06
908.218	57.04
908.59	57.06
908.962	57.04
909.334	57.06
909.705	57.05
910.077	57.05
910.449	57.06
910.82	57.09
911.192	57.12
911.563	57.14
911.935	57.16
912.306	57.18
912.677	57.21
913.048	57.22
913.419	57.19
913.79	57.2
914.161	57.22
914.532	57.23
914.903	57.25
915.274	57.24
915.645	57.23
916.015	57.2
916.386	57.2
916.756	57.19
917.127	57.2
917.497	57.22
917.868	57.25
918.238	57.22
918.608	57.27
918.978	57.27
919.348	57.32
919.718	57.32
920.088	57.36
920.458	57.39
920.828	57.36
921.198	57.35
921.567	57.36
921.937	57.36
922.306	57.4
922.676	57.35
923.045	57.31
923.415	57.22
923.784	57.22
924.153	57.19
924.522	57.19
924.891	57.23
925.26	57.22
925.629	57.24
925.998	57.22
926.367	57.22
926.736	57.21
927.104	57.23
927.473	57.24
927.842	57.22
928.21	57.22
928.578	57.17
928.947	57.18
929.315	57.14
929.683	57.09
930.051	57.08
930.42	57.03
930.788	57.01
931.156	56.97
931.523	56.93
931.891	56.91
932.259	56.89
932.627	56.86
932.994	56.78
933.362	56.75
933.729	56.73
934.097	56.67
934.464	56.64
934.831	56.62
935.199	56.61
935.566	56.57
935.933	56.45
936.3	56.39
936.667	56.39
937.034	56.42
937.401	56.42
937.767	56.38
938.134	56.35
938.501	56.38
938.867	56.41
939.234	56.45
939.6	56.56
939.967	56.7
940.333	56.77
940.699	56.82
941.065	56.79
941.431	56.86
941.798	56.93
942.163	57.05
942.529	57.08
942.895	57.12
943.261	57.11
943.627	57.13
943.992	57.17
944.358	57.17
944.723	57.17
945.089	57.17
945.454	57.2
945.82	57.24
946.185	57.29
946.55	57.28
946.915	57.31
947.28	57.32
947.645	57.31
948.01	57.3
948.375	57.24
948.74	57.23
949.104	57.31
949.469	57.28
949.834	57.2
950.198	57.1
950.562	57.07
950.927	56.97
951.291	56.92
951.655	56.87
952.02	56.79
952.384	56.78
952.748	56.74
953.112	56.61
953.476	56.58
953.839	56.56
954.203	56.59
954.567	56.54
954.931	56.53
955.294	56.52
955.658	56.55
956.021	56.54
956.385	56.52
956.748	56.47
957.111	56.49
957.474	56.47
957.837	56.48
958.2	56.43
958.563	56.44
958.926	56.45
959.289	56.46
959.652	56.41
960.015	56.42
960.377	56.41
960.74	56.44
961.102	56.46
961.465	56.5
961.827	56.52
962.189	56.56
962.552	56.53
962.914	56.5
963.276	56.51
963.638	56.53
964	56.55
964.362	56.59
964.724	56.55
965.085	56.48
965.447	56.46
965.809	56.45
966.17	56.4
966.532	56.37
966.893	56.39
967.255	56.36
967.616	56.36
967.977	56.35
968.338	56.34
968.699	56.38
969.061	56.39
969.421	56.45
969.782	56.36
970.143	56.36
970.504	56.38
970.865	56.43
971.225	56.4
971.586	56.39
971.946	56.38
972.307	56.34
972.667	56.3
973.027	56.36
973.388	56.27
973.748	56.31
974.108	56.35
974.468	56.37
974.828	56.33
975.188	56.31
975.548	56.35
975.907	56.38
976.267	56.44
976.627	56.43
976.986	56.38
977.346	56.38
977.705	56.37
978.064	56.37
978.424	56.32
978.783	56.32
979.142	56.37
979.501	56.29
979.86	56.31
980.219	56.26
980.578	56.32
980.937	56.33
981.296	56.34
981.654	56.34
982.013	56.33
982.371	56.37
982.73	56.35
983.088	56.33
983.447	56.37
983.805	56.3
984.163	56.29
984.521	56.25
984.879	56.24
985.237	56.26
985.595	56.32
985.953	56.32
986.311	56.29
986.669	56.32
987.026	56.31
987.384	56.33
987.741	56.32
988.099	56.37
988.456	56.37
988.814	56.44
989.171	56.47
989.528	56.43
989.885	56.46
990.242	56.46
990.599	56.52
990.956	56.54
991.313	56.54
991.67	56.61
992.027	56.62
992.383	56.62
992.74	56.64
993.096	56.59
993.453	56.67
993.809	56.64
994.165	56.69
994.522	56.67
994.878	56.72
995.234	56.75
995.59	56.7
995.946	56.69
996.302	56.84
996.658	56.86
997.013	56.86
997.369	56.74
997.725	56.79
998.08	56.81
998.436	56.82
998.791	56.83
999.147	56.81
999.502	56.91
999.857	56.93
1000.212	56.79
1000.567	56.83
1000.922	56.89
1001.277	57.04
1001.632	57.06
1001.987	57.14
1002.342	57.11
1002.696	57.11
1003.051	57.28
1003.406	57.31
1003.76	57.46
1004.114	57.42
1004.469	57.39
1004.823	57.72
1005.177	57.75
1005.531	57.92
1005.885	57.95
1006.239	58.01
1006.593	58.09
1006.947	58.01
1007.301	57.97
1007.655	57.87
1008.008	58.01
1008.362	58.08
1008.715	57.87
1009.069	57.94
1009.422	57.87
1009.776	57.87
1010.129	57.86
1010.482	58.02
1010.835	58.07
1011.188	58.25
1011.541	58.33
1011.894	58.4
1012.247	58.31
1012.6	58.31
1012.952	58.21
1013.305	58.2
1013.657	58.15
1014.01	58.27
1014.362	58.05
1014.715	58.12
1015.067	58.14
1015.419	58.17
1015.771	58.05
1016.123	58.26
1016.475	58.48
1016.827	58.67
1017.179	58.74
1017.531	58.87
1017.883	58.89
1018.234	58.98
1018.586	58.96
1018.938	58.9
1019.289	58.92
1019.64	59.13
1019.992	59.12
1020.343	59.2
1020.694	59.08
1021.045	59.24
1021.396	59.37
1021.747	59.59
1022.098	59.96
1022.449	59.98
1022.8	60.25
1023.151	60.29
1023.501	60.37
1023.852	60.38
1024.202	60.18
1024.553	60.22
1024.903	60.11
1025.253	60.12
1025.604	59.84
1025.954	59.24
1026.304	59.58
1026.654	59.44
1027.004	59.59
1027.354	59.7
1027.703	59.59
1028.053	59.78
1028.403	59.96
1028.753	59.9
1029.102	60.02
1029.452	60.28
1029.801	60.89
1030.15	60.71
1030.499	60.65
897.758	1031.45
901.051	1038.33
904.343	1033.71
907.636	1049.75
910.928	1023.72
914.22	1019.42
917.511	1001.46
920.803	964.84
924.094	959.74
927.384	936.99
930.675	901.93
933.965	897.13
937.255	844.94
940.544	813.45
943.834	775.99
947.123	768.12
950.411	727.42
953.7	715.28
956.988	673.55
960.276	649.06
963.563	638.63
966.851	614.24
970.138	610.5
973.424	591.83
976.711	595.18
979.997	567.24
983.283	565.05
986.568	553.27
989.853	537.21
993.138	528.98
996.423	508.25
999.708	495.17
1002.992	489.77
1006.275	470.47
1009.559	465.61
1012.842	448.36
1016.125	437.41
1019.408	428.14
1022.69	424.75
1025.972	415.76
1029.254	405.93
1032.536	399.26
1035.817	393.22
1039.098	387.98
1042.379	378.35
1045.659	375.11
1048.939	366.54
1052.219	359.72
1055.498	356.37
1058.778	346.6
1062.057	340.31
1065.335	337.07
1068.614	333.14
1071.892	329.29
1075.17	320.53
1078.447	315.47
1081.724	312.39
1085.001	310.78
1088.278	304.77
1091.554	298.3
1094.83	299.81
1098.106	296.91
1101.382	293.93
1104.657	292.04
1107.932	287.25
1111.206	288.46
1114.481	282.98
1117.755	280.47
1121.029	277.64
1124.302	277.24
1127.575	273.17
1130.848	269.35
1134.121	267.01
1137.393	265.99
1140.665	261.37
1143.937	258.92
1147.208	258.34
1150.48	256.27
1153.75	252.98
1157.021	250.21
1160.291	250.27
1163.561	246.98
1166.831	246.94
1170.101	245.09
1173.37	245.39
1176.639	245.7
1179.907	243.92
1183.176	240.75
1186.444	240.68
1189.711	241.34
1192.979	240.11
1196.246	238.9
1199.513	239.93
1202.78	238.8
1206.046	238.55
1209.312	235.35
1212.578	235.54
1215.843	237.08
1219.108	236.05
1222.373	240.57
1225.638	241.59
1228.902	245.29
1232.166	244.67
1235.43	246.25
1238.693	249.7
1241.956	251.31
1245.219	255.36
1248.482	255.32
1251.744	255.43
1255.006	257.29
1258.268	250.68
1261.529	248.78
1264.79	247.42
1268.051	246.43
1271.312	243.26
1274.572	240.22
1277.832	238.18
1281.092	234.06
1284.351	232.94
1287.61	233.32
1290.869	228.18
1294.128	227.31
1297.386	227.84
1300.644	225.04
1303.902	226.68
1307.159	225.99
1310.416	225.48
1313.673	224.85
1316.93	227.62
1320.186	226.96
1323.442	226.97
1326.697	231.26
1329.953	232.17
1333.208	232.5
1336.463	235.51
1339.717	234.52
1342.972	238.62
1346.226	240.51
1349.479	241.1
1352.733	241.64
1355.986	243.58
1359.238	243.47
1362.491	243.79
1365.743	245.94
1368.995	246.2
1372.247	244.43
1375.498	244.88
1378.749	244.03
1382	242.09
1385.251	243.42
1388.501	241.65
1391.751	241.55
1395	241.04
1398.25	239.22
1401.499	237.06
1404.748	236.04
1407.996	235.31
1411.244	233.82
1414.492	233
1417.74	229.62
1420.987	226.01
1424.234	225.94
1427.481	223.04
1430.728	222.69
1433.974	220.47
1437.22	219.34
1440.465	218.95
1443.711	216.33
1446.956	215.84
1450.201	213.32
1453.445	212.11
1456.689	211.46
1459.933	207.67
1463.177	206.43
1466.42	203.05
1469.663	201.3
1472.906	199.9
1476.148	194.92
1479.391	193.55
1482.633	191.76
1485.874	189.28
1489.115	188.36
1492.356	186.4
1495.597	186.7
1498.838	183.79
1502.078	183.19
1505.318	182.8
1508.557	182.43
1511.797	182.66
1515.036	181.03
1518.274	180.4
1521.513	179.88
1524.751	179.14
1527.989	178.93
1531.227	177.8
1534.464	178.67
1537.701	178.13
1540.938	177.58
1544.174	175.43
1547.41	175.65
1550.646	175.42
1553.882	174.98
1557.117	173.02
1560.352	172.49
1563.587	172.08
1566.821	171.32
1570.055	170.29
1573.289	168.52
1576.523	168.5
1579.756	167.83
1582.989	166.77
1586.222	166.52
1589.454	166.67
1592.686	167.47
1595.918	166.42
1599.15	165.54
1602.381	166.29
1605.612	165.79
1608.843	166.23
1612.073	165.86
1615.303	166.84
1618.533	167.1
1621.762	167.23
1624.992	166.77
1628.221	166.56
1631.449	166.77
1634.678	166.92
1637.906	167.24
1641.134	166.89
1644.361	166.75
1647.588	167.27
1650.815	166.72
1654.042	165.63
1657.269	166.23
1660.495	166.23
1663.72	166.06
1666.946	167.04
1670.171	167.36
1673.396	166.71
1676.621	166.99
1679.845	167.75
1683.069	167.7
1686.293	168.32
1689.517	169.82
1692.74	169.39
1695.963	170.12
1699.185	171.38
1702.408	170.91
1705.63	171.5
1708.852	171.86
1712.073	172.26
1715.294	171.97
1718.515	173.51
1721.736	173.31
1724.956	173.55
1728.176	173.59
1731.396	174.51
1734.616	173.36
1737.835	174.37
1741.054	173.2
1744.272	174.35
1747.491	175.55
1750.709	176.07
1753.927	175.16
1757.144	174.76
1760.361	175.02
1763.578	175.41
1766.795	174.52
1770.011	177.06
1773.227	176.27
1776.443	178.69
1779.658	178.65
1782.874	178.71
1786.089	178.31
1789.303	179.08
1792.518	181.73
1795.732	181.14
1798.945	182.44
1802.159	183.15
1805.372	182.54
1808.585	185.72
1811.797	185.73
1815.01	186.03
1818.222	186.8
1821.434	190.32
1824.645	190.45
1827.856	192.89
1831.067	194.87
1834.278	194.31
1837.488	195.47
1840.698	196.71
1843.908	194.95
1847.117	195.32
1850.326	196.79
1853.535	196.22
1856.744	196.98
1859.952	196.67
1863.16	194.79
1866.368	192.79
1869.575	193.88
1872.782	190.68
1875.989	190.12
1879.196	188.6
1882.402	187
1885.608	186.16
1888.814	185.47
1892.019	183.87
1895.224	182.89
1898.429	181.79
1901.634	182.14
1904.838	182.22
1908.042	183.41
1911.246	182.58
1914.449	183.79
1917.652	183.77
1920.855	183.65
1924.058	183.45
1927.26	182.35
1930.462	183.02
1933.664	184.81
1936.865	182.92
1940.066	181.97
1943.267	181.87
1946.467	182.18
1949.668	182.73
1952.868	185.15
1956.067	185.51
1959.267	185.74
1962.466	186.95
1965.665	185.68
1968.863	186.95
1972.061	190.29
1975.259	192.53
1978.457	193.54
1981.654	195.04
1984.852	195.85
1988.048	195.05
1991.245	197.93
1994.441	199.74
1997.637	201.34
2000.833	206.93
2004.028	208.95
2007.223	209.89
2010.418	212.46
2013.613	215.84
2016.807	218.69
2020.001	221.48
2023.194	224.69
2026.388	228.83
2029.581	234.94
2032.774	236.85
2035.966	240.11
2039.158	240.63
2042.35	245.84
2045.542	246.36
2048.733	250.52
2051.924	254.58
2055.115	257.79
2058.306	258.82
2061.496	260.5
2064.686	260.93
2067.875	265.44
2071.065	266.86
2074.254	265.05
2077.442	268.91
2080.631	270.88
2083.819	273.38
2087.007	273.44
2090.195	275.92
2093.382	278.92
2096.569	277.75
2099.756	281.48
2102.942	282.54
2106.128	283.72
2109.314	291.8
2112.5	290.25
2115.685	295.56
2118.87	295.62
2122.055	300.88
2125.239	302.82
2128.424	305.31
2131.608	309.1
2134.791	313.28
2137.974	314.61
2141.157	315.88
2144.34	315.23
2147.523	321.17
2150.705	319.51
2153.887	323.34
2157.068	323.36
2160.25	321.17
2163.431	322.48
2166.611	325.51
2169.792	330.96
2172.972	334.2
2176.152	338.38
2179.331	342.51
2182.511	345.67
2185.69	349.7
2188.868	357.17
2192.047	357.54
2195.225	368.33
2198.403	378.18
2201.58	382.73
2204.758	390.58
2207.935	397.82
2211.111	404.09
2214.288	407.72
2217.464	409.9
2220.64	416.12
2223.815	419.31
2226.991	436.56
2230.166	436.95
2233.34	442.92
2236.515	450.45
2239.689	451.58
2242.863	453.41
2246.036	464.41
2249.209	460.98
2252.382	469.91
2255.555	482.5
2258.727	484.52
2261.9	488.24
2265.071	492.12
2268.243	501.21
2271.414	507.67
2274.585	516.05
2277.756	521.31
2280.926	523.91
2284.096	538.6
2287.266	548.14
2290.436	552.25
2293.605	564.83
2296.774	580.95
2299.942	600.41
2303.111	602.94
2306.279	614.4
2309.447	624.04
2312.614	639.5
2315.781	659.46
2318.948	686.85
2322.115	676.63
2325.281	717.02
2328.447	700.94
2331.613	726.94
2334.779	719.09
2337.944	747.36
2341.109	756.58
2344.274	777.06
2347.438	806.71
2350.602	803.59
2353.766	830.56
2356.929	845.02
2360.092	834.71
2363.255	897.79
2366.418	894.91
2369.58	912.32
2372.742	970.43
2375.904	994.37
2379.066	987.94
2382.227	965.77
2385.388	1050.45
2388.548	1047.73
2391.709	1059.58
2394.869	1179.12
2398.029	1127.28
2401.188	1161.36
2404.347	1151.79
2407.506	1130.46
2410.665	1165.73
2413.823	1233.85
2416.981	1307.72
2420.139	1268.32
2423.296	1251.26
2426.453	1312.33
2429.61	1264.56
2432.767	1320.46
2435.923	1306.41
2439.079	1430.07
2442.235	1453.43
2445.391	1437.63
2448.546	1424.68
2451.701	1383.05
2454.855	1378.33
2458.009	1470.41
2461.163	1528.92
2464.317	1577.91
2467.471	1614.89
2470.624	1621.64
2473.777	1576.51
2476.929	1530.72
2480.082	1485.92
2483.234	1473.82
2486.385	1547.98
2489.537	1554.22
2492.688	1602.4
2495.839	1554.13
2498.989	1524.94
2502.14	1533.46
2505.29	1541.57
2508.439	1566.44
2511.589	1566.71
2514.738	1702.94
2517.887	1665.66
2521.035	1762.27
2524.183	1772.57
2527.331	1787.8
2530.479	1773.76
2533.627	1785.18
