Data from N_3_DEC_OH_4N_Splice17_14-22-39-147.txt Node
Date: Sat Mar 07 14:22:39 EST 2020
User: sa697716
Spectrometer: NQ5500242
Trigger mode: 0
Integration Time (sec): 1.450000E-1
Scans to average: 20
Nonlinearity correction enabled: false
Boxcar width: 5
Storing dark spectrum: false
XAxis mode: Wavelengths
Number of Pixels in Spectrum: 512
>>>>>Begin Spectral Data<<<<<
187.83	85.64
188.298	107.71
188.766	97.05
189.233	84.43
189.701	76.73
190.169	77.86
190.636	27.63
191.104	-106.44
191.571	-238.33
192.039	47.7
192.506	-22.11
192.974	95.01
193.441	226.36
193.908	110.51
194.375	99.49
194.842	36.27
195.31	24.44
195.777	-272.65
196.244	32.31
196.711	62.9
197.177	68.63
197.644	69.61
198.111	69.62
198.578	70.02
199.045	70.45
199.511	70.51
199.978	70.99
200.445	71.4
200.911	71.76
201.378	72.28
201.844	72.28
202.31	71.87
202.777	71.73
203.243	71.7
203.709	71.36
204.176	71.11
204.642	70.51
205.108	69.89
205.574	69.28
206.04	68.46
206.506	67.59
206.972	67.33
207.438	66.47
207.903	65.56
208.369	64.31
208.835	62.89
209.301	61.15
209.766	59.37
210.232	57.69
210.697	55.65
211.163	54.37
211.628	52.99
212.094	51.4
212.559	50.19
213.024	49.07
213.49	47.89
213.955	46.71
214.42	45.69
214.885	44.38
215.35	42.68
215.815	40.44
216.28	37.32
216.745	34
217.21	30.65
217.675	27.63
218.14	24.89
218.604	22.58
219.069	20.61
219.534	18.96
219.998	17.62
220.463	16.5
220.927	15.56
221.392	14.76
221.856	14.15
222.32	13.62
222.785	13.12
223.249	12.69
223.713	12.29
224.177	11.98
224.642	11.67
225.106	11.33
225.57	11.04
226.034	10.8
226.497	10.58
226.961	10.33
227.425	10.12
227.889	9.94
228.353	9.74
228.816	9.56
229.28	9.39
229.744	9.22
230.207	9.08
230.671	8.91
231.134	8.76
231.597	8.64
232.061	8.52
232.524	8.39
232.987	8.26
233.45	8.15
233.914	8.03
234.377	7.9
234.84	7.81
235.303	7.72
235.766	7.65
236.229	7.56
236.691	7.46
237.154	7.38
237.617	7.31
238.08	7.23
238.542	7.16
239.005	7.1
239.468	7.04
239.93	6.96
240.393	6.91
240.855	6.82
241.317	6.75
241.78	6.69
242.242	6.62
242.704	6.56
243.166	6.49
243.629	6.44
244.091	6.37
244.553	6.31
245.015	6.26
245.477	6.2
245.939	6.15
246.4	6.1
246.862	6.05
247.324	5.99
247.786	5.94
248.247	5.89
248.709	5.83
249.17	5.77
249.632	5.73
250.093	5.69
250.555	5.64
251.016	5.6
251.477	5.56
251.939	5.52
252.4	5.49
252.861	5.46
253.322	5.42
253.783	5.4
254.244	5.38
254.705	5.34
255.166	5.32
255.627	5.29
256.088	5.27
256.549	5.24
257.009	5.21
257.47	5.18
257.931	5.14
258.391	5.1
258.852	5.07
259.312	5.03
259.773	5.01
260.233	4.97
260.694	4.94
261.154	4.9
261.614	4.87
262.074	4.84
262.534	4.81
262.994	4.79
263.455	4.77
263.915	4.74
264.374	4.72
264.834	4.7
265.294	4.68
265.754	4.66
266.214	4.64
266.673	4.62
267.133	4.62
267.593	4.61
268.052	4.59
268.512	4.59
268.971	4.58
269.431	4.57
269.89	4.56
270.349	4.55
270.809	4.54
271.268	4.54
271.727	4.52
272.186	4.51
272.645	4.5
273.104	4.5
273.563	4.48
274.022	4.48
274.481	4.47
274.94	4.46
275.399	4.45
275.857	4.44
276.316	4.44
276.775	4.44
277.233	4.44
277.692	4.43
278.15	4.43
278.609	4.43
279.067	4.43
279.525	4.43
279.984	4.42
280.442	4.41
280.9	4.41
281.358	4.4
281.816	4.4
282.274	4.39
282.732	4.38
283.19	4.38
283.648	4.38
284.106	4.37
284.564	4.37
285.021	4.37
285.479	4.37
285.937	4.37
286.394	4.37
286.852	4.36
287.309	4.36
287.767	4.35
288.224	4.33
288.682	4.32
289.139	4.3
289.596	4.29
290.053	4.27
290.511	4.24
290.968	4.23
291.425	4.21
291.882	4.19
292.339	4.17
292.796	4.15
293.252	4.14
293.709	4.13
294.166	4.12
294.623	4.1
295.079	4.09
295.536	4.09
295.992	4.07
296.449	4.07
296.905	4.06
297.362	4.05
297.818	4.04
298.274	4.04
298.731	4.04
299.187	4.03
299.643	4.02
300.099	4.02
300.555	4.01
301.011	4.01
301.467	4
301.923	3.99
302.379	3.99
302.835	3.99
303.291	3.99
303.746	3.98
304.202	3.99
304.658	3.99
305.113	3.99
305.569	3.99
306.024	3.99
306.479	3.99
306.935	3.99
307.39	4
307.845	4
308.301	4
308.756	4
309.211	4
309.666	4.01
310.121	4.01
310.576	4
311.031	4.01
311.486	4.01
311.94	4.02
312.395	4.02
312.85	4.02
313.305	4.02
313.759	4.02
314.214	4.01
314.668	4
315.123	4
315.577	4
316.032	4
316.486	3.99
316.94	3.99
317.394	3.97
317.849	3.96
318.303	3.95
318.757	3.93
319.211	3.92
319.665	3.9
320.119	3.89
320.572	3.88
321.026	3.88
321.48	3.86
321.934	3.84
322.387	3.84
322.841	3.84
323.295	3.83
323.748	3.83
324.202	3.83
324.655	3.83
325.108	3.83
325.562	3.83
326.015	3.83
326.468	3.83
326.921	3.84
327.374	3.83
327.827	3.83
328.28	3.84
328.733	3.84
329.186	3.84
329.639	3.85
330.092	3.85
330.545	3.85
330.997	3.85
331.45	3.86
331.903	3.87
332.355	3.87
332.808	3.88
333.26	3.88
333.713	3.88
334.165	3.88
334.617	3.9
335.069	3.9
335.522	3.91
335.974	3.91
336.426	3.91
336.878	3.91
337.33	3.91
337.782	3.9
338.234	3.91
338.686	3.91
339.137	3.92
339.589	3.91
340.041	3.9
340.493	3.88
340.944	3.86
341.396	3.85
341.847	3.85
342.299	3.82
342.75	3.81
343.201	3.79
343.653	3.77
344.104	3.74
344.555	3.73
345.006	3.71
345.457	3.72
345.908	3.72
346.359	3.72
346.81	3.71
347.261	3.72
347.712	3.72
348.163	3.71
348.613	3.71
349.064	3.71
349.515	3.71
349.965	3.71
350.416	3.7
350.866	3.69
351.317	3.69
351.767	3.68
352.217	3.68
352.668	3.68
353.118	3.68
353.568	3.68
354.018	3.69
354.468	3.69
354.918	3.69
355.368	3.7
355.818	3.71
356.268	3.71
356.718	3.71
357.168	3.7
357.617	3.7
358.067	3.7
358.517	3.71
358.966	3.71
359.416	3.72
359.865	3.72
360.315	3.72
360.764	3.72
361.213	3.72
361.663	3.73
362.112	3.73
362.561	3.75
363.01	3.74
363.459	3.73
363.908	3.72
364.357	3.72
364.806	3.72
365.255	3.73
365.703	3.74
366.152	3.75
366.601	3.75
367.05	3.75
367.498	3.74
367.947	3.74
368.395	3.75
368.844	3.76
369.292	3.77
369.74	3.77
370.189	3.77
370.637	3.76
371.085	3.75
371.533	3.75
371.981	3.75
372.429	3.77
372.877	3.76
373.325	3.76
373.773	3.75
374.221	3.74
374.669	3.74
375.116	3.73
375.564	3.73
376.012	3.73
376.459	3.73
376.907	3.74
377.354	3.74
377.801	3.75
378.249	3.76
378.696	3.76
379.143	3.78
379.591	3.78
380.038	3.79
380.485	3.79
380.932	3.8
381.379	3.81
381.826	3.82
382.273	3.81
382.72	3.8
383.166	3.81
383.613	3.8
384.06	3.79
384.506	3.79
384.953	3.8
385.4	3.8
385.846	3.81
386.292	3.82
386.739	3.81
387.185	3.82
387.631	3.84
388.078	3.83
388.524	3.85
388.97	3.86
389.416	3.88
389.862	3.89
390.308	3.91
390.754	3.91
391.2	3.93
391.645	3.94
392.091	3.97
392.537	3.98
392.983	4
393.428	4.01
393.874	4.02
394.319	4.03
394.765	4.04
395.21	4.04
395.655	4.05
396.101	4.06
396.546	4.07
396.991	4.08
397.436	4.09
397.881	4.12
398.326	4.13
398.771	4.16
399.216	4.18
399.661	4.21
400.106	4.24
400.551	4.25
400.995	4.25
401.44	4.27
401.885	4.28
402.329	4.3
402.774	4.3
403.218	4.33
403.663	4.34
404.107	4.35
404.551	4.36
404.995	4.37
405.44	4.37
405.884	4.39
406.328	4.4
406.772	4.42
407.216	4.43
407.66	4.45
408.104	4.46
408.547	4.46
408.991	4.47
409.435	4.48
409.879	4.5
410.322	4.53
410.766	4.55
411.209	4.58
411.653	4.6
412.096	4.61
412.54	4.61
412.983	4.62
413.426	4.65
413.869	4.68
414.312	4.71
414.756	4.73
415.199	4.74
415.642	4.74
416.085	4.76
416.527	4.76
416.97	4.76
417.413	4.76
417.856	4.77
418.298	4.77
418.741	4.77
419.184	4.77
419.626	4.77
420.069	4.77
420.511	4.78
420.953	4.79
421.396	4.79
421.838	4.8
422.28	4.82
422.722	4.84
423.164	4.86
423.606	4.86
424.048	4.87
424.49	4.88
424.932	4.89
425.374	4.88
425.816	4.87
426.258	4.88
426.699	4.86
427.141	4.84
427.582	4.84
428.024	4.84
428.465	4.85
428.907	4.85
429.348	4.84
429.789	4.83
430.231	4.86
430.672	4.87
431.113	4.9
431.554	4.93
431.995	4.96
432.436	4.96
432.877	4.97
433.318	4.98
433.759	5.01
434.2	5.03
434.64	5.05
435.081	5.06
435.522	5.08
435.962	5.11
436.403	5.13
436.843	5.15
437.284	5.17
437.724	5.18
438.164	5.18
438.604	5.18
439.045	5.19
439.485	5.2
439.925	5.2
440.365	5.2
440.805	5.18
441.245	5.18
441.685	5.2
442.125	5.21
442.564	5.23
443.004	5.24
443.444	5.25
443.883	5.25
444.323	5.25
444.762	5.26
445.202	5.27
445.641	5.29
446.081	5.3
446.52	5.29
446.959	5.31
447.398	5.32
447.837	5.32
448.276	5.31
448.716	5.33
449.154	5.34
449.593	5.34
450.032	5.34
450.471	5.33
450.91	5.32
451.349	5.32
451.787	5.31
452.226	5.29
452.664	5.29
453.103	5.29
453.541	5.27
453.98	5.27
454.418	5.25
454.856	5.23
455.295	5.23
455.733	5.2
456.171	5.19
456.609	5.17
457.047	5.16
457.485	5.14
457.923	5.13
458.361	5.12
458.798	5.11
459.236	5.12
459.674	5.11
460.111	5.1
460.549	5.11
460.987	5.12
461.424	5.12
461.862	5.13
462.299	5.13
462.736	5.12
463.173	5.13
463.611	5.13
464.048	5.13
464.485	5.16
464.922	5.16
465.359	5.16
465.796	5.15
466.233	5.15
466.67	5.16
467.106	5.15
467.543	5.17
467.98	5.17
468.416	5.18
468.853	5.17
469.29	5.16
469.726	5.16
470.162	5.16
470.599	5.16
471.035	5.15
471.471	5.15
471.907	5.15
472.344	5.16
472.78	5.16
473.216	5.15
473.652	5.15
474.088	5.14
474.523	5.14
474.959	5.13
475.395	5.13
475.831	5.13
476.266	5.13
476.702	5.12
477.138	5.1
477.573	5.1
478.008	5.09
478.444	5.08
478.879	5.08
479.314	5.07
479.75	5.07
480.185	5.05
480.62	5.04
481.055	5.03
481.49	5.01
481.925	5.02
482.36	5.01
482.795	5
483.229	4.99
483.664	4.99
484.099	4.97
484.534	4.96
484.968	4.96
485.403	4.96
485.837	4.96
486.271	4.96
486.706	4.96
487.14	4.96
487.574	4.96
488.009	4.98
488.443	4.98
488.877	5
489.311	5.02
489.745	5.05
490.179	5.07
490.613	5.09
491.046	5.11
491.48	5.12
491.914	5.16
492.348	5.19
492.781	5.23
493.215	5.25
493.648	5.29
494.082	5.31
494.515	5.33
494.948	5.36
495.382	5.4
495.815	5.44
496.248	5.49
496.681	5.52
497.114	5.57
497.547	5.6
497.98	5.65
498.413	5.7
498.846	5.75
499.279	5.8
499.711	5.85
500.144	5.91
500.577	5.97
501.009	6.02
501.442	6.08
501.874	6.14
502.306	6.21
502.739	6.28
503.171	6.35
503.603	6.43
504.036	6.5
504.468	6.58
504.9	6.65
505.332	6.73
505.764	6.82
506.196	6.91
506.627	7.01
507.059	7.1
507.491	7.19
507.923	7.29
508.354	7.41
508.786	7.53
509.217	7.64
509.649	7.76
510.08	7.89
510.512	8
510.943	8.13
511.374	8.25
511.805	8.38
512.237	8.5
512.668	8.64
513.099	8.75
513.53	8.87
513.961	9
514.391	9.14
514.822	9.27
515.253	9.4
515.684	9.53
516.114	9.66
516.545	9.79
516.975	9.94
517.406	10.07
517.836	10.2
518.267	10.35
518.697	10.48
519.127	10.6
519.558	10.72
519.988	10.86
520.418	10.97
520.848	11.1
521.278	11.23
521.708	11.44
522.138	11.56
522.567	11.67
522.997	11.77
523.427	11.89
523.857	12
524.286	12.1
524.716	12.2
525.145	12.3
525.575	12.4
526.004	12.49
526.433	12.48
526.863	12.55
527.292	12.64
527.721	12.73
528.15	12.8
528.579	12.89
529.008	12.98
529.437	13.04
529.866	13.11
530.295	13.17
530.724	13.23
531.152	13.3
531.581	13.36
532.01	13.43
532.438	13.48
532.867	13.53
533.295	13.58
533.723	13.61
534.152	13.65
534.58	13.69
535.008	13.72
535.436	13.78
535.865	13.81
536.293	13.83
536.721	13.86
537.149	13.89
537.576	13.92
538.004	13.94
538.432	13.97
538.86	14
539.287	14.02
539.715	14.07
540.143	14.08
540.57	14.1
540.998	14.12
541.425	14.14
541.852	14.17
542.28	14.19
542.707	14.22
543.134	14.25
543.561	14.28
543.988	14.31
544.415	14.32
544.842	14.33
545.269	14.37
545.696	14.4
546.123	14.43
546.549	14.46
546.976	14.49
547.403	14.49
547.829	14.5
548.256	14.51
548.682	14.53
549.108	14.55
549.535	14.58
549.961	14.6
550.387	14.6
550.813	14.62
551.24	14.63
551.666	14.64
552.092	14.66
552.518	14.7
552.943	14.7
553.369	14.71
553.795	14.72
554.221	14.72
554.646	14.71
555.072	14.72
555.498	14.71
555.923	14.71
556.349	14.7
556.774	14.69
557.199	14.68
557.625	14.67
558.05	14.65
558.475	14.62
558.9	14.61
559.325	14.6
559.75	14.58
560.175	14.56
560.6	14.54
561.025	14.49
561.449	14.45
561.874	14.4
562.299	14.36
562.723	14.31
563.148	14.26
563.572	14.2
563.997	14.15
564.421	14.09
564.846	14.02
565.27	13.96
565.694	13.91
566.118	13.85
566.542	13.79
566.966	13.72
567.39	13.66
567.814	13.59
568.238	13.53
568.662	13.47
569.086	13.4
569.509	13.34
569.933	13.28
570.357	13.22
570.78	13.15
571.204	13.09
571.627	13.05
572.05	12.99
572.474	12.94
572.897	12.89
573.32	12.85
573.743	12.81
574.166	12.76
574.589	12.71
575.012	12.67
575.435	12.63
575.858	12.6
576.281	12.57
576.704	12.54
577.126	12.52
577.549	12.49
577.972	12.46
578.394	12.43
578.817	12.4
579.239	12.37
579.661	12.33
580.084	12.31
580.506	12.29
580.928	12.25
581.35	12.23
581.772	12.19
582.194	12.17
582.616	12.14
583.038	12.12
583.46	12.1
583.882	12.07
584.303	12.05
584.725	12.02
585.147	11.99
585.568	11.97
585.99	11.95
586.411	11.91
586.833	11.88
587.254	11.86
587.675	11.83
588.096	11.81
588.518	11.8
588.939	11.78
589.36	11.76
589.781	11.74
590.202	11.72
590.623	11.7
591.043	11.68
591.464	11.67
591.885	11.65
592.305	11.63
592.726	11.63
593.147	11.61
593.567	11.59
593.987	11.56
594.408	11.54
594.828	11.52
595.248	11.51
595.669	11.5
596.089	11.47
596.509	11.46
596.929	11.43
597.349	11.4
597.769	11.38
598.189	11.36
598.608	11.35
599.028	11.35
599.448	11.33
599.867	11.31
600.287	11.28
600.706	11.28
601.126	11.27
601.545	11.26
601.965	11.26
602.384	11.25
602.803	11.24
603.222	11.23
603.641	11.21
604.061	11.2
604.48	11.18
604.898	11.15
605.317	11.13
605.736	11.11
606.155	11.1
606.574	11.07
606.992	11.04
607.411	11.02
607.829	10.96
608.248	10.93
608.666	10.91
609.085	10.89
609.503	10.87
609.921	10.85
610.339	10.83
610.758	10.81
611.176	10.77
611.594	10.75
612.012	10.72
612.43	10.73
612.847	10.7
613.265	10.67
613.683	10.64
614.101	10.61
614.518	10.58
614.936	10.55
615.353	10.51
615.771	10.49
616.188	10.47
616.606	10.45
617.023	10.43
617.44	10.42
617.857	10.41
618.274	10.39
618.691	10.38
619.108	10.36
619.525	10.35
619.942	10.34
620.359	10.33
620.776	10.33
621.192	10.32
621.609	10.32
622.026	10.3
622.442	10.3
622.859	10.29
623.275	10.29
623.691	10.28
624.108	10.28
624.524	10.29
624.94	10.29
625.356	10.28
625.772	10.28
626.188	10.28
626.604	10.28
627.02	10.27
627.436	10.27
627.852	10.28
628.268	10.28
628.683	10.28
629.099	10.28
629.514	10.28
629.93	10.28
630.345	10.26
630.761	10.23
631.176	10.21
631.591	10.19
632.007	10.16
632.422	10.12
632.837	10.09
633.252	10.04
633.667	9.99
634.082	9.93
634.497	9.87
634.911	9.82
635.326	9.76
635.741	9.7
636.155	9.64
636.57	9.58
636.984	9.51
637.399	9.43
637.813	9.35
638.228	9.27
638.642	9.18
639.056	9.08
639.47	9
639.884	8.91
640.298	8.83
640.712	8.75
641.126	8.66
641.54	8.58
641.954	8.5
642.368	8.44
642.781	8.36
643.195	8.3
643.609	8.24
644.022	8.17
644.436	8.11
644.849	8.04
645.262	7.98
645.676	7.93
646.089	7.87
646.502	7.83
646.915	7.78
647.328	7.75
647.741	7.72
648.154	7.69
648.567	7.66
648.98	7.64
649.393	7.63
649.805	7.62
650.218	7.6
650.631	7.6
651.043	7.59
651.456	7.57
651.868	7.56
652.28	7.55
652.693	7.55
653.105	7.55
653.517	7.54
653.929	7.54
654.341	7.54
654.753	7.51
655.165	7.5
655.577	7.49
655.989	7.48
656.401	7.47
656.813	7.45
657.224	7.42
657.636	7.39
658.047	7.36
658.459	7.32
658.87	7.29
659.282	7.25
659.693	7.22
660.104	7.19
660.515	7.15
660.926	7.12
661.338	7.08
661.749	7.04
662.159	7
662.57	6.98
662.981	6.95
663.392	6.93
663.803	6.91
664.213	6.88
664.624	6.86
665.035	6.83
665.445	6.82
665.855	6.8
666.266	6.79
666.676	6.8
667.086	6.78
667.497	6.76
667.907	6.75
668.317	6.75
668.727	6.74
669.137	6.74
669.547	6.74
669.956	6.74
670.366	6.74
670.776	6.74
671.186	6.74
671.595	6.75
672.005	6.76
672.414	6.78
672.824	6.79
673.233	6.82
673.642	6.84
674.052	6.86
674.461	6.88
674.87	6.91
675.279	6.94
675.688	6.98
676.097	7.03
676.506	7.07
676.915	7.12
677.323	7.17
677.732	7.21
678.141	7.26
678.549	7.32
678.958	7.39
679.366	7.46
679.775	7.52
680.183	7.59
680.592	7.67
681	7.75
681.408	7.85
681.816	7.95
682.224	8.06
682.632	8.18
683.04	8.31
683.448	8.45
683.856	8.6
684.264	8.77
684.671	8.94
685.079	9.13
685.487	9.34
685.894	9.56
686.302	9.79
686.709	10.03
687.116	10.29
687.524	10.56
687.931	10.84
688.338	11.15
688.745	11.45
689.152	11.76
689.559	12.11
689.966	12.44
690.373	12.78
690.78	13.13
691.187	13.49
691.593	13.85
692	14.2
692.407	14.55
692.813	14.89
693.22	15.26
693.626	15.62
694.032	15.97
694.439	16.32
694.845	16.67
695.251	17.01
695.657	17.33
696.063	17.67
696.469	18.01
696.875	18.34
697.281	18.66
697.687	18.97
698.093	19.26
698.498	19.53
698.904	19.82
699.31	20.09
699.715	20.35
700.12	20.61
700.526	20.88
700.931	21.12
701.337	21.37
701.742	21.61
702.147	21.83
702.552	22.08
702.957	22.3
703.362	22.53
703.767	22.74
704.172	22.95
704.577	23.16
704.981	23.36
705.386	23.55
705.791	23.74
706.195	23.92
706.6	24.12
707.004	24.29
707.408	24.48
707.813	24.65
708.217	24.81
708.621	24.98
709.025	25.14
709.43	25.29
709.834	25.46
710.237	25.61
710.641	25.76
711.045	25.9
711.449	26.06
711.853	26.22
712.256	26.36
712.66	26.5
713.064	26.63
713.467	26.75
713.87	26.89
714.274	27.02
714.677	27.13
715.08	27.27
715.484	27.39
715.887	27.52
716.29	27.63
716.693	27.75
717.096	27.88
717.499	27.99
717.901	28.12
718.304	28.21
718.707	28.34
719.109	28.46
719.512	28.57
719.915	28.65
720.317	28.73
720.719	28.81
721.122	28.9
721.524	28.99
721.926	29.1
722.328	29.19
722.731	29.28
723.133	29.35
723.535	29.43
723.937	29.51
724.338	29.59
724.74	29.66
725.142	29.77
725.544	29.83
725.945	29.9
726.347	29.94
726.748	29.98
727.15	30.03
727.551	30.11
727.952	30.15
728.354	30.21
728.755	30.25
729.156	30.3
729.557	30.32
729.958	30.37
730.359	30.41
730.76	30.47
731.161	30.53
731.562	30.59
731.962	30.61
732.363	30.66
732.763	30.7
733.164	30.76
733.564	30.81
733.965	30.86
734.365	30.9
734.766	30.94
735.166	30.98
735.566	31
735.966	31.03
736.366	31.06
736.766	31.09
737.166	31.13
737.566	31.15
737.966	31.19
738.365	31.22
738.765	31.25
739.165	31.27
739.564	31.31
739.964	31.35
740.363	31.36
740.763	31.39
741.162	31.4
741.561	31.38
741.96	31.4
742.36	31.41
742.759	31.43
743.158	31.45
743.557	31.48
743.955	31.49
744.354	31.52
744.753	31.57
745.152	31.61
745.55	31.65
745.949	31.71
746.348	31.76
746.746	31.78
747.144	31.82
747.543	31.85
747.941	31.88
748.339	31.88
748.737	31.89
749.136	31.89
749.534	31.88
749.932	31.89
750.33	31.9
750.727	31.89
751.125	31.89
751.523	31.89
751.921	31.89
752.318	31.88
752.716	31.88
753.113	31.9
753.511	31.91
753.908	31.93
754.305	31.91
754.703	31.9
755.1	31.9
755.497	31.89
755.894	31.86
756.291	31.85
756.688	31.84
757.085	31.85
757.482	31.83
757.878	31.82
758.275	31.8
758.672	31.81
759.068	31.83
759.465	31.83
759.861	31.84
760.258	31.86
760.654	31.88
761.05	31.9
761.447	31.9
761.843	31.9
762.239	31.91
762.635	31.92
763.031	31.94
763.427	31.93
763.822	31.93
764.218	31.95
764.614	31.95
765.01	31.94
765.405	31.95
765.801	31.94
766.196	31.96
766.592	31.96
766.987	31.96
767.382	31.96
767.778	31.98
768.173	32
768.568	32
768.963	32
769.358	32.03
769.753	32.04
770.148	32.04
770.542	32.05
770.937	32.1
771.332	32.13
771.726	32.14
772.121	32.14
772.515	32.16
772.91	32.17
773.304	32.2
773.699	32.2
774.093	32.2
774.487	32.23
774.881	32.25
775.275	32.25
775.669	32.24
776.063	32.23
776.457	32.26
776.851	32.27
777.245	32.27
777.638	32.27
778.032	32.31
778.425	32.36
778.819	32.38
779.212	32.4
779.606	32.41
779.999	32.43
780.392	32.48
780.786	32.48
781.179	32.49
781.572	32.52
781.965	32.53
782.358	32.53
782.751	32.53
783.143	32.55
783.536	32.54
783.929	32.54
784.322	32.55
784.714	32.54
785.107	32.55
785.499	32.59
785.891	32.63
786.284	32.66
786.676	32.69
787.068	32.68
787.46	32.71
787.852	32.76
788.245	32.78
788.636	32.8
789.028	32.82
789.42	32.84
789.812	32.83
790.204	32.84
790.595	32.83
790.987	32.83
791.378	32.84
791.77	32.84
792.161	32.85
792.553	32.84
792.944	32.86
793.335	32.88
793.726	32.89
794.117	32.91
794.508	32.89
794.899	32.9
795.29	32.91
795.681	32.93
796.072	32.93
796.463	32.94
796.853	32.96
797.244	32.98
797.634	32.99
798.025	33.01
798.415	33.02
798.806	33.06
799.196	33.08
799.586	33.09
799.976	33.12
800.366	33.14
800.756	33.16
801.146	33.2
801.536	33.19
801.926	33.2
802.316	33.21
802.706	33.25
803.095	33.26
803.485	33.26
803.874	33.27
804.264	33.29
804.653	33.32
805.043	33.32
805.432	33.32
805.821	33.34
806.21	33.38
806.599	33.4
806.988	33.4
807.377	33.38
807.766	33.41
808.155	33.4
808.544	33.41
808.933	33.42
809.321	33.43
809.71	33.43
810.098	33.42
810.487	33.41
810.875	33.4
811.264	33.41
811.652	33.44
812.04	33.45
812.428	33.48
812.816	33.45
813.204	33.46
813.592	33.45
813.98	33.46
814.368	33.48
814.756	33.48
815.144	33.49
815.531	33.48
815.919	33.49
816.306	33.5
816.694	33.47
817.081	33.5
817.469	33.5
817.856	33.52
818.243	33.53
818.63	33.54
819.017	33.55
819.404	33.57
819.791	33.57
820.178	33.57
820.565	33.56
820.952	33.6
821.339	33.59
821.725	33.6
822.112	33.62
822.498	33.61
822.885	33.59
823.271	33.58
823.657	33.56
824.044	33.56
824.43	33.56
824.816	33.55
825.202	33.54
825.588	33.54
825.974	33.52
826.36	33.5
826.746	33.51
827.132	33.52
827.517	33.52
827.903	33.54
828.289	33.54
828.674	33.52
829.06	33.51
829.445	33.51
829.83	33.49
830.216	33.48
830.601	33.48
830.986	33.45
831.371	33.43
831.756	33.43
832.141	33.41
832.526	33.38
832.911	33.39
833.295	33.37
833.68	33.35
834.065	33.35
834.449	33.35
834.834	33.32
835.218	33.33
835.603	33.32
835.987	33.31
836.371	33.3
836.755	33.29
837.139	33.26
837.524	33.27
837.908	33.28
838.291	33.28
838.675	33.3
839.059	33.3
839.443	33.29
839.827	33.3
840.21	33.29
840.594	33.28
840.977	33.28
841.361	33.29
841.744	33.28
842.127	33.27
842.511	33.26
842.894	33.24
843.277	33.24
843.66	33.23
844.043	33.23
844.426	33.24
844.809	33.26
845.191	33.28
845.574	33.29
845.957	33.31
846.339	33.28
846.722	33.28
847.104	33.29
847.487	33.3
847.869	33.3
848.252	33.28
848.634	33.28
849.016	33.29
849.398	33.29
849.78	33.29
850.162	33.28
850.544	33.29
850.926	33.29
851.307	33.3
851.689	33.3
852.071	33.31
852.452	33.32
852.834	33.32
853.215	33.31
853.597	33.32
853.978	33.34
854.359	33.35
854.741	33.35
855.122	33.36
855.503	33.35
855.884	33.35
856.265	33.37
856.646	33.37
857.026	33.39
857.407	33.41
857.788	33.4
858.169	33.4
858.549	33.4
858.93	33.41
859.31	33.43
859.69	33.45
860.071	33.47
860.451	33.44
860.831	33.45
861.211	33.44
861.591	33.43
861.971	33.43
862.351	33.45
862.731	33.45
863.111	33.46
863.491	33.43
863.87	33.43
864.25	33.42
864.629	33.44
865.009	33.47
865.388	33.47
865.768	33.48
866.147	33.47
866.526	33.46
866.905	33.47
867.284	33.47
867.663	33.49
868.042	33.51
868.421	33.53
868.8	33.53
869.179	33.51
869.558	33.51
869.936	33.51
870.315	33.53
870.693	33.54
871.072	33.54
871.45	33.57
871.828	33.6
872.207	33.61
872.585	33.6
872.963	33.61
873.341	33.62
873.719	33.64
874.097	33.65
874.475	33.66
874.853	33.66
875.23	33.67
875.608	33.67
875.986	33.67
876.363	33.65
876.741	33.65
877.118	33.64
877.495	33.65
877.873	33.65
878.25	33.67
878.627	33.68
879.004	33.69
879.381	33.7
879.758	33.69
880.135	33.68
880.512	33.68
880.889	33.7
881.265	33.7
881.642	33.69
882.019	33.71
882.395	33.68
882.772	33.68
883.148	33.66
883.524	33.65
883.901	33.65
884.277	33.63
884.653	33.62
885.029	33.61
885.405	33.63
885.781	33.62
886.157	33.61
886.532	33.62
886.908	33.6
887.284	33.61
887.659	33.59
888.035	33.59
888.411	33.59
888.786	33.59
889.161	33.58
889.537	33.56
889.912	33.54
890.287	33.53
890.662	33.5
891.037	33.5
891.412	33.46
891.787	33.44
892.162	33.41
892.536	33.4
892.911	33.37
893.286	33.39
893.66	33.37
894.035	33.37
894.409	33.36
894.784	33.36
895.158	33.35
895.532	33.36
895.906	33.36
896.281	33.39
896.655	33.39
897.029	33.4
897.402	33.38
897.776	33.39
898.15	33.4
898.524	33.41
898.898	33.43
899.271	33.44
899.645	33.45
900.018	33.48
900.392	33.48
900.765	33.5
901.138	33.51
901.511	33.52
901.884	33.53
902.258	33.56
902.631	33.59
903.003	33.61
903.376	33.65
903.749	33.65
904.122	33.66
904.495	33.7
904.867	33.7
905.24	33.74
905.612	33.75
905.985	33.76
906.357	33.76
906.729	33.77
907.102	33.77
907.474	33.8
907.846	33.81
908.218	33.83
908.59	33.83
908.962	33.86
909.334	33.87
909.705	33.88
910.077	33.89
910.449	33.89
910.82	33.89
911.192	33.9
911.563	33.87
911.935	33.88
912.306	33.88
912.677	33.9
913.048	33.93
913.419	33.91
913.79	33.94
914.161	33.97
914.532	34
914.903	34.02
915.274	34.03
915.645	34.08
916.015	34.09
916.386	34.11
916.756	34.08
917.127	34.09
917.497	34.11
917.868	34.11
918.238	34.09
918.608	34.12
918.978	34.11
919.348	34.14
919.718	34.13
920.088	34.15
920.458	34.14
920.828	34.16
921.198	34.14
921.567	34.18
921.937	34.2
922.306	34.25
922.676	34.24
923.045	34.24
923.415	34.22
923.784	34.21
924.153	34.25
924.522	34.27
924.891	34.3
925.26	34.32
925.629	34.31
925.998	34.32
926.367	34.29
926.736	34.31
927.104	34.35
927.473	34.36
927.842	34.36
928.21	34.37
928.578	34.36
928.947	34.38
929.315	34.39
929.683	34.41
930.051	34.38
930.42	34.39
930.788	34.38
931.156	34.34
931.523	34.34
931.891	34.38
932.259	34.35
932.627	34.37
932.994	34.33
933.362	34.32
933.729	34.33
934.097	34.34
934.464	34.33
934.831	34.36
935.199	34.4
935.566	34.44
935.933	34.46
936.3	34.49
936.667	34.49
937.034	34.56
937.401	34.6
937.767	34.61
938.134	34.65
938.501	34.73
938.867	34.77
939.234	34.8
939.6	34.88
939.967	34.92
940.333	34.92
940.699	35
941.065	35.03
941.431	35.09
941.798	35.12
942.163	35.14
942.529	35.12
942.895	35.17
943.261	35.24
943.627	35.18
943.992	35.19
944.358	35.23
944.723	35.27
945.089	35.22
945.454	35.21
945.82	35.2
946.185	35.23
946.55	35.24
946.915	35.21
947.28	35.16
947.645	35.14
948.01	35.1
948.375	35.08
948.74	35.02
949.104	35.03
949.469	35
949.834	34.99
950.198	34.92
950.562	34.87
950.927	34.83
951.291	34.78
951.655	34.74
952.02	34.66
952.384	34.6
952.748	34.55
953.112	34.51
953.476	34.5
953.839	34.48
954.203	34.46
954.567	34.45
954.931	34.42
955.294	34.44
955.658	34.46
956.021	34.51
956.385	34.5
956.748	34.51
957.111	34.5
957.474	34.5
957.837	34.43
958.2	34.46
958.563	34.48
958.926	34.51
959.289	34.48
959.652	34.46
960.015	34.46
960.377	34.49
960.74	34.48
961.102	34.49
961.465	34.48
961.827	34.54
962.189	34.52
962.552	34.47
962.914	34.45
963.276	34.51
963.638	34.53
964	34.53
964.362	34.5
964.724	34.5
965.085	34.48
965.447	34.48
965.809	34.47
966.17	34.45
966.532	34.48
966.893	34.53
967.255	34.54
967.616	34.52
967.977	34.54
968.338	34.57
968.699	34.58
969.061	34.6
969.421	34.61
969.782	34.68
970.143	34.69
970.504	34.69
970.865	34.66
971.225	34.64
971.586	34.65
971.946	34.63
972.307	34.62
972.667	34.63
973.027	34.64
973.388	34.64
973.748	34.62
974.108	34.73
974.468	34.73
974.828	34.81
975.188	34.84
975.548	34.89
975.907	34.94
976.267	34.95
976.627	34.98
976.986	35
977.346	35
977.705	34.98
978.064	34.93
978.424	35.01
978.783	35.02
979.142	35.02
979.501	35.03
979.86	35.04
980.219	35.09
980.578	35.1
980.937	35.16
981.296	35.19
981.654	35.25
982.013	35.3
982.371	35.27
982.73	35.28
983.088	35.29
983.447	35.27
983.805	35.28
984.163	35.28
984.521	35.3
984.879	35.28
985.237	35.35
985.595	35.43
985.953	35.39
986.311	35.4
986.669	35.42
987.026	35.49
987.384	35.54
987.741	35.58
988.099	35.68
988.456	35.69
988.814	35.75
989.171	35.82
989.528	35.79
989.885	35.87
990.242	35.9
990.599	35.99
990.956	36.02
991.313	36.12
991.67	36.15
992.027	36.23
992.383	36.34
992.74	36.5
993.096	36.44
993.453	36.46
993.809	36.51
994.165	36.65
994.522	36.66
994.878	36.65
995.234	36.66
995.59	36.74
995.946	36.71
996.302	36.82
996.658	36.84
997.013	36.88
997.369	36.98
997.725	37.04
998.08	37.06
998.436	37.12
998.791	37.2
999.147	37.27
999.502	37.28
999.857	37.36
1000.212	37.21
1000.567	37.2
1000.922	37.28
1001.277	37.36
1001.632	37.37
1001.987	37.36
1002.342	37.41
1002.696	37.41
1003.051	37.61
1003.406	37.73
1003.76	37.82
1004.114	37.88
1004.469	38.01
1004.823	38.27
1005.177	38.27
1005.531	38.38
1005.885	38.44
1006.239	38.49
1006.593	38.61
1006.947	38.62
1007.301	38.69
1007.655	38.77
1008.008	38.89
1008.362	38.89
1008.715	38.88
1009.069	39.01
1009.422	39.1
1009.776	39.2
1010.129	39.31
1010.482	39.42
1010.835	39.43
1011.188	39.44
1011.541	39.41
1011.894	39.51
1012.247	39.6
1012.6	39.59
1012.952	39.78
1013.305	39.86
1013.657	40.1
1014.01	40.23
1014.362	40.29
1014.715	40.32
1015.067	40.38
1015.419	40.55
1015.771	40.67
1016.123	40.74
1016.475	40.79
1016.827	40.82
1017.179	40.9
1017.531	40.93
1017.883	40.91
1018.234	41.11
1018.586	41.26
1018.938	41.41
1019.289	41.45
1019.64	41.59
1019.992	41.61
1020.343	41.63
1020.694	41.57
1021.045	41.66
1021.396	41.7
1021.747	41.85
1022.098	41.89
1022.449	41.99
1022.8	42.19
1023.151	42.32
1023.501	42.57
1023.852	42.98
1024.202	42.97
1024.553	43.17
1024.903	43.33
1025.253	43.43
1025.604	43.69
1025.954	43.64
1026.304	43.69
1026.654	43.84
1027.004	43.92
1027.354	44.07
1027.703	43.96
1028.053	44.69
1028.403	45.02
1028.753	44.89
1029.102	45.2
1029.452	45.21
1029.801	45.47
1030.15	45.65
1030.499	45.63
897.758	935.47
901.051	938.75
904.343	938.7
907.636	954.22
910.928	927.5
914.22	927.06
917.511	914.1
920.803	875
924.094	871.12
927.384	851.06
930.675	819.37
933.965	813.69
937.255	763.82
940.544	733.3
943.834	701
947.123	696.09
950.411	655.33
953.7	643.67
956.988	606.55
960.276	580.4
963.563	573.93
966.851	549.55
970.138	547.11
973.424	532.7
976.711	535.99
979.997	506.97
983.283	503.93
986.568	494.05
989.853	480.48
993.138	472.33
996.423	457.04
999.708	443.81
1002.992	440.05
1006.275	420.6
1009.559	417.57
1012.842	400.26
1016.125	392.35
1019.408	384.59
1022.69	381.34
1025.972	371.7
1029.254	363.23
1032.536	357.16
1035.817	351.94
1039.098	347.17
1042.379	340.03
1045.659	335.74
1048.939	328.63
1052.219	321.55
1055.498	318.24
1058.778	309.13
1062.057	304.97
1065.335	302.18
1068.614	298.99
1071.892	293.81
1075.17	285.61
1078.447	281.44
1081.724	279.16
1085.001	276.83
1088.278	272.15
1091.554	266.45
1094.83	267.72
1098.106	264.78
1101.382	262.05
1104.657	259.77
1107.932	256.46
1111.206	258.19
1114.481	250.97
1117.755	250.02
1121.029	248
1124.302	246.74
1127.575	243.24
1130.848	239.9
1134.121	237.65
1137.393	236.85
1140.665	232.46
1143.937	229.73
1147.208	228.75
1150.48	228.47
1153.75	223.89
1157.021	222
1160.291	222.51
1163.561	218.39
1166.831	218.7
1170.101	216.94
1173.37	216.56
1176.639	216.39
1179.907	215.66
1183.176	212.69
1186.444	212.29
1189.711	212.63
1192.979	212.19
1196.246	210.37
1199.513	212.07
1202.78	209.99
1206.046	209.85
1209.312	207.78
1212.578	208.6
1215.843	209.45
1219.108	209.06
1222.373	213.05
1225.638	214.14
1228.902	216.45
1232.166	216.83
1235.43	218.02
1238.693	221.71
1241.956	223.14
1245.219	225.96
1248.482	226.28
1251.744	226.42
1255.006	227.33
1258.268	222.23
1261.529	220.73
1264.79	219.57
1268.051	217.89
1271.312	215.83
1274.572	212.5
1277.832	210.78
1281.092	207.61
1284.351	205.76
1287.61	205.79
1290.869	201.98
1294.128	200.95
1297.386	200.22
1300.644	198.3
1303.902	199.61
1307.159	199.05
1310.416	199.07
1313.673	197.61
1316.93	199.8
1320.186	199.68
1323.442	199.99
1326.697	203.49
1329.953	204.17
1333.208	205.04
1336.463	207.46
1339.717	207.62
1342.972	209
1346.226	211.14
1349.479	212.35
1352.733	212.94
1355.986	214.82
1359.238	214.19
1362.491	213.75
1365.743	216.18
1368.995	216.08
1372.247	215.27
1375.498	215.29
1378.749	216.59
1382	214.51
1385.251	214.79
1388.501	214.09
1391.751	212.56
1395	212.42
1398.25	211.13
1401.499	208.9
1404.748	208.78
1407.996	206.29
1411.244	205.31
1414.492	204.02
1417.74	201.4
1420.987	198.13
1424.234	197.66
1427.481	196.2
1430.728	195.61
1433.974	193.96
1437.22	192.52
1440.465	191.76
1443.711	189.72
1446.956	188.43
1450.201	186.92
1453.445	184.99
1456.689	184.64
1459.933	181.29
1463.177	179.4
1466.42	177.68
1469.663	175.57
1472.906	174.1
1476.148	169.46
1479.391	168.04
1482.633	166.65
1485.874	164.07
1489.115	163.19
1492.356	161.37
1495.597	160.96
1498.838	158.92
1502.078	157.28
1505.318	156.79
1508.557	157.16
1511.797	157.4
1515.036	155.55
1518.274	155.37
1521.513	154.43
1524.751	153.97
1527.989	153.95
1531.227	153.46
1534.464	153.52
1537.701	153.36
1540.938	152.85
1544.174	150.7
1547.41	151.22
1550.646	151.1
1553.882	150.41
1557.117	149.06
1560.352	148.58
1563.587	148.1
1566.821	147
1570.055	146.27
1573.289	144.32
1576.523	144.71
1579.756	143.83
1582.989	142.83
1586.222	142.99
1589.454	142.74
1592.686	143.4
1595.918	142.71
1599.15	142.16
1602.381	142.58
1605.612	142.2
1608.843	142.74
1612.073	142.53
1615.303	143.7
1618.533	143.75
1621.762	143.11
1624.992	143.46
1628.221	143.1
1631.449	142.64
1634.678	142.91
1637.906	143.72
1641.134	143.23
1644.361	143.16
1647.588	143.37
1650.815	142.64
1654.042	142.16
1657.269	142.85
1660.495	142.58
1663.72	142.51
1666.946	143.6
1670.171	143.78
1673.396	143
1676.621	143.05
1679.845	143.86
1683.069	144.2
1686.293	144.7
1689.517	145.3
1692.74	145.49
1695.963	146.08
1699.185	146.99
1702.408	146.88
1705.63	146.89
1708.852	147.51
1712.073	148.11
1715.294	148.09
1718.515	148.53
1721.736	148.4
1724.956	149.23
1728.176	149.08
1731.396	150.07
1734.616	149.29
1737.835	150
1741.054	149.45
1744.272	149.75
1747.491	151.33
1750.709	151.46
1753.927	151.21
1757.144	151.21
1760.361	151.11
1763.578	151.88
1766.795	150.87
1770.011	152.91
1773.227	152.3
1776.443	153.95
1779.658	154.36
1782.874	154.18
1786.089	154.09
1789.303	154.54
1792.518	156.77
1795.732	156.29
1798.945	156.96
1802.159	157.6
1805.372	157.25
1808.585	160.29
1811.797	160.81
1815.01	161.21
1818.222	162.06
1821.434	164.3
1824.645	164.58
1827.856	166.33
1831.067	167.42
1834.278	167.48
1837.488	168.89
1840.698	169.96
1843.908	168.39
1847.117	168.74
1850.326	169.82
1853.535	169.2
1856.744	170.67
1859.952	171.06
1863.16	169.37
1866.368	169.25
1869.575	170.14
1872.782	167.7
1875.989	166.88
1879.196	166.76
1882.402	165.69
1885.608	165.48
1888.814	165.4
1892.019	164.75
1895.224	163.66
1898.429	163.59
1901.634	163.84
1904.838	164.16
1908.042	164.81
1911.246	165.74
1914.449	165.73
1917.652	166.28
1920.855	165.8
1924.058	166.54
1927.26	165.59
1930.462	166.49
1933.664	167.63
1936.865	166.52
1940.066	166.06
1943.267	165.97
1946.467	165.62
1949.668	166.51
1952.868	168.29
1956.067	169.25
1959.267	169.11
1962.466	169.58
1965.665	168.88
1968.863	169.08
1972.061	172.37
1975.259	174.05
1978.457	174.95
1981.654	176.56
1984.852	177.05
1988.048	176.75
1991.245	178.49
1994.441	179.51
1997.637	181.52
2000.833	185.11
2004.028	187.6
2007.223	187.4
2010.418	188.45
2013.613	192.77
2016.807	194.27
2020.001	196
2023.194	199.35
2026.388	203.16
2029.581	208.91
2032.774	209.71
2035.966	213.37
2039.158	214.36
2042.35	218.21
2045.542	220.34
2048.733	222.73
2051.924	226.54
2055.115	229.4
2058.306	229.47
2061.496	231.33
2064.686	230.61
2067.875	236.52
2071.065	236.37
2074.254	234.56
2077.442	238.93
2080.631	239.64
2083.819	241.64
2087.007	241.36
2090.195	244.75
2093.382	247.62
2096.569	246.31
2099.756	249.96
2102.942	249.47
2106.128	252.3
2109.314	259.33
2112.5	257.71
2115.685	263.53
2118.87	264.43
2122.055	269.13
2125.239	270.61
2128.424	273.13
2131.608	275.01
2134.791	278.59
2137.974	280.24
2141.157	281.16
2144.34	281.01
2147.523	286.1
2150.705	284.28
2153.887	286.91
2157.068	287.62
2160.25	284.16
2163.431	286.14
2166.611	290.63
2169.792	295.79
2172.972	297.86
2176.152	301.34
2179.331	304.34
2182.511	308.04
2185.69	311.5
2188.868	317.36
2192.047	317.48
2195.225	329.27
2198.403	336.02
2201.58	341.64
2204.758	348.01
2207.935	354.26
2211.111	361.23
2214.288	365.69
2217.464	366.38
2220.64	371.77
2223.815	376.19
2226.991	392.13
2230.166	392.19
2233.34	396.86
2236.515	404.8
2239.689	405.11
2242.863	408.08
2246.036	415.18
2249.209	412.82
2252.382	422.41
2255.555	433
2258.727	435.29
2261.9	439.51
2265.071	443.95
2268.243	453
2271.414	456.02
2274.585	465.33
2277.756	471.29
2280.926	475.98
2284.096	488.4
2287.266	496.13
2290.436	502.09
2293.605	511.26
2296.774	525.37
2299.942	542.17
2303.111	545.46
2306.279	555.05
2309.447	564.74
2312.614	579.82
2315.781	593.89
2318.948	621.68
2322.115	613.01
2325.281	645.59
2328.447	636.44
2331.613	659.35
2334.779	650.78
2337.944	679.93
2341.109	689.18
2344.274	707.25
2347.438	731.63
2350.602	732.43
2353.766	752.16
2356.929	764.61
2360.092	759.09
2363.255	810.76
2366.418	810.49
2369.58	826.13
2372.742	876.17
2375.904	897.96
2379.066	891.55
2382.227	872.57
2385.388	947.1
2388.548	945.82
2391.709	958.28
2394.869	1067.36
2398.029	1023.52
2401.188	1055.39
2404.347	1048.77
2407.506	1028.91
2410.665	1057.43
2413.823	1118.42
2416.981	1181.14
2420.139	1153.52
2423.296	1139.16
2426.453	1190.31
2429.61	1149.04
2432.767	1201
2435.923	1185.47
2439.079	1303.41
2442.235	1327.82
2445.391	1315.44
2448.546	1303.81
2451.701	1269.56
2454.855	1256.27
2458.009	1340.87
2461.163	1389.52
2464.317	1437.61
2467.471	1477.06
2470.624	1474.45
2473.777	1433.79
2476.929	1388.16
2480.082	1345
2483.234	1338.61
2486.385	1414.55
2489.537	1423.68
2492.688	1467.01
2495.839	1435.99
2498.989	1397.21
2502.14	1398.43
2505.29	1416.89
2508.439	1428.51
2511.589	1427.08
2514.738	1566.94
2517.887	1527.85
2521.035	1598.41
2524.183	1625.32
2527.331	1638.47
2530.479	1619.54
2533.627	1640.01
