Data from N_3_DIV_WI_4N_Splice17_13-53-19-168.txt Node
Date: Sat Mar 07 13:53:19 EST 2020
User: sa697716
Spectrometer: NQ5500242
Trigger mode: 0
Integration Time (sec): 1.450000E-1
Scans to average: 20
Nonlinearity correction enabled: false
Boxcar width: 5
Storing dark spectrum: false
XAxis mode: Wavelengths
Number of Pixels in Spectrum: 512
>>>>>Begin Spectral Data<<<<<
187.83	171.81
188.298	203.64
188.766	184.14
189.233	144.88
189.701	154.18
190.169	185.87
190.636	175.85
191.104	198.49
191.571	-23.14
192.039	-0.23
192.506	-0.3
192.974	-82.91
193.441	-13.1
193.908	-8.94
194.375	-24.39
194.842	-11.4
195.31	12.56
195.777	-7.86
196.244	39.1
196.711	40.31
197.177	41.73
197.644	41.32
198.111	40.46
198.578	40.81
199.045	41.18
199.511	40.93
199.978	40.64
200.445	40.83
200.911	40.73
201.378	40.69
201.844	40.64
202.31	40.52
202.777	40.38
203.243	40.69
203.709	40.28
204.176	39.8
204.642	39.82
205.108	39.9
205.574	39.63
206.04	38.65
206.506	38.28
206.972	38.04
207.438	37.62
207.903	37.14
208.369	36.13
208.835	35.48
209.301	34.64
209.766	33.41
210.232	32.3
210.697	31.19
211.163	30.77
211.628	30.04
212.094	29.21
212.559	28.42
213.024	27.5
213.49	26.88
213.955	26.05
214.42	25.32
214.885	24.75
215.35	23.84
215.815	22.86
216.28	21.28
216.745	19.39
217.21	17.67
217.675	16.15
218.14	14.85
218.604	13.66
219.069	12.7
219.534	11.91
219.998	11.14
220.463	10.55
220.927	9.95
221.392	9.55
221.856	9.25
222.32	8.96
222.785	8.73
223.249	8.52
223.713	8.32
224.177	8.15
224.642	7.96
225.106	7.77
225.57	7.58
226.034	7.48
226.497	7.37
226.961	7.22
227.425	7.09
227.889	6.97
228.353	6.85
228.816	6.74
229.28	6.63
229.744	6.53
230.207	6.45
230.671	6.37
231.134	6.27
231.597	6.19
232.061	6.12
232.524	6.05
232.987	5.96
233.45	5.89
233.914	5.81
234.377	5.74
234.84	5.68
235.303	5.63
235.766	5.57
236.229	5.51
236.691	5.45
237.154	5.39
237.617	5.35
238.08	5.3
238.542	5.24
239.005	5.2
239.468	5.14
239.93	5.1
240.393	5.05
240.855	4.99
241.317	4.95
241.78	4.9
242.242	4.84
242.704	4.81
243.166	4.77
243.629	4.73
244.091	4.69
244.553	4.65
245.015	4.62
245.477	4.58
245.939	4.54
246.4	4.5
246.862	4.47
247.324	4.44
247.786	4.39
248.247	4.34
248.709	4.29
249.17	4.25
249.632	4.23
250.093	4.21
250.555	4.17
251.016	4.15
251.477	4.12
251.939	4.09
252.4	4.07
252.861	4.06
253.322	4.04
253.783	4.02
254.244	4
254.705	3.97
255.166	3.94
255.627	3.92
256.088	3.9
256.549	3.88
257.009	3.84
257.47	3.81
257.931	3.78
258.391	3.75
258.852	3.72
259.312	3.7
259.773	3.67
260.233	3.65
260.694	3.62
261.154	3.6
261.614	3.58
262.074	3.56
262.534	3.54
262.994	3.52
263.455	3.51
263.915	3.49
264.374	3.47
264.834	3.46
265.294	3.44
265.754	3.44
266.214	3.42
266.673	3.41
267.133	3.4
267.593	3.39
268.052	3.38
268.512	3.38
268.971	3.37
269.431	3.36
269.89	3.35
270.349	3.34
270.809	3.33
271.268	3.32
271.727	3.31
272.186	3.3
272.645	3.3
273.104	3.28
273.563	3.27
274.022	3.27
274.481	3.27
274.94	3.26
275.399	3.25
275.857	3.24
276.316	3.23
276.775	3.23
277.233	3.23
277.692	3.23
278.15	3.23
278.609	3.23
279.067	3.22
279.525	3.21
279.984	3.2
280.442	3.2
280.9	3.2
281.358	3.2
281.816	3.2
282.274	3.19
282.732	3.18
283.19	3.17
283.648	3.16
284.106	3.15
284.564	3.15
285.021	3.14
285.479	3.13
285.937	3.11
286.394	3.11
286.852	3.09
287.309	3.09
287.767	3.08
288.224	3.07
288.682	3.05
289.139	3.04
289.596	3.03
290.053	3.01
290.511	3
290.968	2.99
291.425	2.97
291.882	2.97
292.339	2.95
292.796	2.94
293.252	2.93
293.709	2.93
294.166	2.92
294.623	2.92
295.079	2.91
295.536	2.9
295.992	2.89
296.449	2.89
296.905	2.88
297.362	2.88
297.818	2.86
298.274	2.87
298.731	2.86
299.187	2.85
299.643	2.84
300.099	2.84
300.555	2.83
301.011	2.83
301.467	2.83
301.923	2.82
302.379	2.81
302.835	2.82
303.291	2.81
303.746	2.8
304.202	2.81
304.658	2.81
305.113	2.81
305.569	2.8
306.024	2.8
306.479	2.79
306.935	2.79
307.39	2.79
307.845	2.79
308.301	2.79
308.756	2.79
309.211	2.78
309.666	2.79
310.121	2.79
310.576	2.79
311.031	2.79
311.486	2.79
311.94	2.8
312.395	2.8
312.85	2.8
313.305	2.79
313.759	2.8
314.214	2.79
314.668	2.79
315.123	2.78
315.577	2.77
316.032	2.77
316.486	2.76
316.94	2.76
317.394	2.76
317.849	2.75
318.303	2.74
318.757	2.73
319.211	2.72
319.665	2.71
320.119	2.7
320.572	2.69
321.026	2.69
321.48	2.68
321.934	2.67
322.387	2.65
322.841	2.65
323.295	2.65
323.748	2.64
324.202	2.64
324.655	2.64
325.108	2.64
325.562	2.65
326.015	2.64
326.468	2.65
326.921	2.65
327.374	2.65
327.827	2.65
328.28	2.64
328.733	2.65
329.186	2.65
329.639	2.64
330.092	2.64
330.545	2.63
330.997	2.63
331.45	2.64
331.903	2.65
332.355	2.65
332.808	2.65
333.26	2.65
333.713	2.65
334.165	2.65
334.617	2.66
335.069	2.65
335.522	2.66
335.974	2.66
336.426	2.65
336.878	2.64
337.33	2.63
337.782	2.63
338.234	2.63
338.686	2.63
339.137	2.64
339.589	2.63
340.041	2.63
340.493	2.62
340.944	2.61
341.396	2.6
341.847	2.59
342.299	2.59
342.75	2.58
343.201	2.57
343.653	2.56
344.104	2.53
344.555	2.52
345.006	2.52
345.457	2.51
345.908	2.5
346.359	2.49
346.81	2.49
347.261	2.48
347.712	2.47
348.163	2.48
348.613	2.48
349.064	2.48
349.515	2.47
349.965	2.47
350.416	2.46
350.866	2.47
351.317	2.46
351.767	2.47
352.217	2.46
352.668	2.47
353.118	2.46
353.568	2.45
354.018	2.46
354.468	2.47
354.918	2.48
355.368	2.48
355.818	2.48
356.268	2.48
356.718	2.48
357.168	2.47
357.617	2.47
358.067	2.47
358.517	2.48
358.966	2.49
359.416	2.49
359.865	2.49
360.315	2.49
360.764	2.48
361.213	2.48
361.663	2.47
362.112	2.48
362.561	2.49
363.01	2.49
363.459	2.48
363.908	2.46
364.357	2.46
364.806	2.47
365.255	2.48
365.703	2.49
366.152	2.5
366.601	2.51
367.05	2.53
367.498	2.52
367.947	2.53
368.395	2.55
368.844	2.57
369.292	2.57
369.74	2.59
370.189	2.6
370.637	2.61
371.085	2.62
371.533	2.63
371.981	2.63
372.429	2.64
372.877	2.65
373.325	2.67
373.773	2.67
374.221	2.68
374.669	2.69
375.116	2.71
375.564	2.74
376.012	2.76
376.459	2.78
376.907	2.81
377.354	2.84
377.801	2.88
378.249	2.91
378.696	2.95
379.143	2.99
379.591	3.02
380.038	3.06
380.485	3.1
380.932	3.14
381.379	3.19
381.826	3.23
382.273	3.27
382.72	3.29
383.166	3.34
383.613	3.38
384.06	3.42
384.506	3.47
384.953	3.52
385.4	3.56
385.846	3.62
386.292	3.66
386.739	3.7
387.185	3.74
387.631	3.79
388.078	3.84
388.524	3.88
388.97	3.93
389.416	3.97
389.862	4.03
390.308	4.08
390.754	4.13
391.2	4.18
391.645	4.23
392.091	4.29
392.537	4.34
392.983	4.38
393.428	4.44
393.874	4.47
394.319	4.52
394.765	4.56
395.21	4.58
395.655	4.61
396.101	4.65
396.546	4.68
396.991	4.71
397.436	4.73
397.881	4.77
398.326	4.81
398.771	4.85
399.216	4.87
399.661	4.89
400.106	4.91
400.551	4.92
400.995	4.93
401.44	4.95
401.885	4.95
402.329	4.97
402.774	4.98
403.218	5
403.663	5
404.107	5.02
404.551	5.03
404.995	5.03
405.44	5.03
405.884	5.04
406.328	5.05
406.772	5.04
407.216	5.04
407.66	5.04
408.104	5.02
408.547	5.01
408.991	5
409.435	4.99
409.879	5.01
410.322	5.02
410.766	5.03
411.209	5.03
411.653	5.03
412.096	5.04
412.54	5.03
412.983	5.04
413.426	5.07
413.869	5.06
414.312	5.08
414.756	5.08
415.199	5.06
415.642	5.06
416.085	5.06
416.527	5.06
416.97	5.04
417.413	5.04
417.856	5.04
418.298	5.03
418.741	5.02
419.184	5.01
419.626	5.01
420.069	5.01
420.511	5.01
420.953	5
421.396	5.01
421.838	5.02
422.28	5.01
422.722	5.02
423.164	5.01
423.606	5
424.048	5
424.49	5
424.932	4.99
425.374	4.97
425.816	4.94
426.258	4.92
426.699	4.9
427.141	4.89
427.582	4.88
428.024	4.87
428.465	4.87
428.907	4.85
429.348	4.82
429.789	4.81
430.231	4.82
430.672	4.83
431.113	4.83
431.554	4.83
431.995	4.83
432.436	4.82
432.877	4.83
433.318	4.84
433.759	4.86
434.2	4.9
434.64	4.91
435.081	4.92
435.522	4.92
435.962	4.93
436.403	4.95
436.843	4.95
437.284	4.96
437.724	4.95
438.164	4.93
438.604	4.94
439.045	4.93
439.485	4.93
439.925	4.94
440.365	4.95
440.805	4.96
441.245	4.99
441.685	5.02
442.125	5.04
442.564	5.07
443.004	5.09
443.444	5.11
443.883	5.14
444.323	5.15
444.762	5.17
445.202	5.19
445.641	5.22
446.081	5.23
446.52	5.24
446.959	5.27
447.398	5.29
447.837	5.33
448.276	5.34
448.716	5.37
449.154	5.4
449.593	5.43
450.032	5.45
450.471	5.46
450.91	5.46
451.349	5.5
451.787	5.5
452.226	5.51
452.664	5.52
453.103	5.52
453.541	5.52
453.98	5.53
454.418	5.51
454.856	5.52
455.295	5.51
455.733	5.49
456.171	5.47
456.609	5.47
457.047	5.46
457.485	5.45
457.923	5.45
458.361	5.43
458.798	5.42
459.236	5.42
459.674	5.4
460.111	5.4
460.549	5.42
460.987	5.43
461.424	5.42
461.862	5.42
462.299	5.42
462.736	5.43
463.173	5.43
463.611	5.44
464.048	5.45
464.485	5.46
464.922	5.46
465.359	5.46
465.796	5.48
466.233	5.48
466.67	5.5
467.106	5.5
467.543	5.5
467.98	5.49
468.416	5.47
468.853	5.47
469.29	5.47
469.726	5.47
470.162	5.47
470.599	5.46
471.035	5.44
471.471	5.44
471.907	5.45
472.344	5.44
472.78	5.46
473.216	5.47
473.652	5.48
474.088	5.46
474.523	5.47
474.959	5.47
475.395	5.46
475.831	5.46
476.266	5.47
476.702	5.45
477.138	5.46
477.573	5.46
478.008	5.46
478.444	5.46
478.879	5.47
479.314	5.48
479.75	5.48
480.185	5.49
480.62	5.48
481.055	5.48
481.49	5.48
481.925	5.49
482.36	5.49
482.795	5.5
483.229	5.51
483.664	5.52
484.099	5.52
484.534	5.52
484.968	5.54
485.403	5.55
485.837	5.56
486.271	5.58
486.706	5.6
487.14	5.61
487.574	5.63
488.009	5.66
488.443	5.68
488.877	5.72
489.311	5.76
489.745	5.79
490.179	5.84
490.613	5.89
491.046	5.94
491.48	5.99
491.914	6.04
492.348	6.1
492.781	6.15
493.215	6.22
493.648	6.29
494.082	6.36
494.515	6.42
494.948	6.49
495.382	6.56
495.815	6.64
496.248	6.73
496.681	6.82
497.114	6.91
497.547	7
497.98	7.1
498.413	7.19
498.846	7.31
499.279	7.42
499.711	7.53
500.144	7.66
500.577	7.79
501.009	7.92
501.442	8.05
501.874	8.19
502.306	8.33
502.739	8.49
503.171	8.65
503.603	8.8
504.036	8.97
504.468	9.14
504.9	9.3
505.332	9.48
505.764	9.66
506.196	9.85
506.627	10.05
507.059	10.26
507.491	10.46
507.923	10.67
508.354	10.89
508.786	11.12
509.217	11.36
509.649	11.61
510.08	11.85
510.512	12.11
510.943	12.36
511.374	12.61
511.805	12.88
512.237	13.14
512.668	13.41
513.099	13.68
513.53	13.95
513.961	14.23
514.391	14.5
514.822	14.79
515.253	15.06
515.684	15.34
516.114	15.63
516.545	15.91
516.975	16.21
517.406	16.51
517.836	16.79
518.267	17.09
518.697	17.36
519.127	17.64
519.558	17.9
519.988	18.19
520.418	18.47
520.848	18.73
521.278	18.99
521.708	19.46
522.138	19.71
522.567	19.95
522.997	20.18
523.427	20.42
523.857	20.66
524.286	20.87
524.716	21.09
525.145	21.32
525.575	21.52
526.004	21.72
526.433	21.7
526.863	21.88
527.292	22.06
527.721	22.22
528.15	22.38
528.579	22.53
529.008	22.69
529.437	22.82
529.866	22.93
530.295	23.07
530.724	23.19
531.152	23.31
531.581	23.41
532.01	23.52
532.438	23.62
532.867	23.71
533.295	23.81
533.723	23.89
534.152	23.99
534.58	24.09
535.008	24.17
535.436	24.25
535.865	24.31
536.293	24.37
536.721	24.43
537.149	24.49
537.576	24.54
538.004	24.6
538.432	24.64
538.86	24.68
539.287	24.7
539.715	24.75
540.143	24.76
540.57	24.8
540.998	24.83
541.425	24.86
541.852	24.9
542.28	24.94
542.707	24.96
543.134	24.98
543.561	25
543.988	25.03
544.415	25.04
544.842	25.05
545.269	25.08
545.696	25.12
546.123	25.14
546.549	25.15
546.976	25.18
547.403	25.2
547.829	25.24
548.256	25.27
548.682	25.29
549.108	25.31
549.535	25.35
549.961	25.38
550.387	25.39
550.813	25.4
551.24	25.41
551.666	25.41
552.092	25.42
552.518	25.4
552.943	25.39
553.369	25.37
553.795	25.36
554.221	25.32
554.646	25.29
555.072	25.29
555.498	25.24
555.923	25.2
556.349	25.15
556.774	25.11
557.199	25.07
557.625	25.02
558.05	24.98
558.475	24.92
558.9	24.86
559.325	24.81
559.75	24.73
560.175	24.66
560.6	24.58
561.025	24.51
561.449	24.42
561.874	24.33
562.299	24.23
562.723	24.13
563.148	24.01
563.572	23.91
563.997	23.8
564.421	23.67
564.846	23.56
565.27	23.45
565.694	23.32
566.118	23.2
566.542	23.08
566.966	22.95
567.39	22.82
567.814	22.7
568.238	22.58
568.662	22.43
569.086	22.31
569.509	22.18
569.933	22.04
570.357	21.91
570.78	21.78
571.204	21.65
571.627	21.54
572.05	21.4
572.474	21.29
572.897	21.18
573.32	21.07
573.743	20.96
574.166	20.85
574.589	20.74
575.012	20.64
575.435	20.53
575.858	20.44
576.281	20.33
576.704	20.24
577.126	20.14
577.549	20.04
577.972	19.95
578.394	19.86
578.817	19.78
579.239	19.7
579.661	19.61
580.084	19.55
580.506	19.47
580.928	19.39
581.35	19.34
581.772	19.27
582.194	19.19
582.616	19.12
583.038	19.04
583.46	18.96
583.882	18.88
584.303	18.81
584.725	18.75
585.147	18.7
585.568	18.65
585.99	18.58
586.411	18.52
586.833	18.46
587.254	18.4
587.675	18.36
588.096	18.32
588.518	18.29
588.939	18.26
589.36	18.19
589.781	18.13
590.202	18.1
590.623	18.05
591.043	18.01
591.464	17.99
591.885	17.95
592.305	17.91
592.726	17.86
593.147	17.81
593.567	17.78
593.987	17.76
594.408	17.73
594.828	17.68
595.248	17.65
595.669	17.62
596.089	17.58
596.509	17.55
596.929	17.53
597.349	17.5
597.769	17.47
598.189	17.42
598.608	17.39
599.028	17.35
599.448	17.32
599.867	17.29
600.287	17.26
600.706	17.22
601.126	17.18
601.545	17.13
601.965	17.09
602.384	17.05
602.803	17
603.222	16.94
603.641	16.89
604.061	16.85
604.48	16.79
604.898	16.71
605.317	16.65
605.736	16.59
606.155	16.53
606.574	16.47
606.992	16.4
607.411	16.34
607.829	16.24
608.248	16.16
608.666	16.08
609.085	16.01
609.503	15.95
609.921	15.87
610.339	15.79
610.758	15.72
611.176	15.64
611.594	15.56
612.012	15.47
612.43	15.43
612.847	15.36
613.265	15.29
613.683	15.22
614.101	15.15
614.518	15.08
614.936	15
615.353	14.92
615.771	14.85
616.188	14.78
616.606	14.74
617.023	14.68
617.44	14.64
617.857	14.59
618.274	14.52
618.691	14.47
619.108	14.41
619.525	14.37
619.942	14.34
620.359	14.31
620.776	14.27
621.192	14.23
621.609	14.2
622.026	14.15
622.442	14.12
622.859	14.09
623.275	14.07
623.691	14.04
624.108	14.02
624.524	14
624.94	13.98
625.356	13.97
625.772	13.95
626.188	13.93
626.604	13.92
627.02	13.91
627.436	13.9
627.852	13.89
628.268	13.89
628.683	13.87
629.099	13.86
629.514	13.83
629.93	13.81
630.345	13.79
630.761	13.75
631.176	13.71
631.591	13.67
632.007	13.63
632.422	13.57
632.837	13.52
633.252	13.46
633.667	13.38
634.082	13.31
634.497	13.24
634.911	13.15
635.326	13.07
635.741	12.98
636.155	12.88
636.57	12.79
636.984	12.69
637.399	12.57
637.813	12.47
638.228	12.35
638.642	12.22
639.056	12.09
639.47	11.97
639.884	11.84
640.298	11.71
640.712	11.58
641.126	11.44
641.54	11.31
641.954	11.17
642.368	11.03
642.781	10.91
643.195	10.78
643.609	10.66
644.022	10.54
644.436	10.42
644.849	10.3
645.262	10.18
645.676	10.07
646.089	9.98
646.502	9.89
646.915	9.82
647.328	9.73
647.741	9.67
648.154	9.59
648.567	9.53
648.98	9.47
649.393	9.42
649.805	9.37
650.218	9.32
650.631	9.27
651.043	9.22
651.456	9.17
651.868	9.12
652.28	9.06
652.693	9.01
653.105	8.95
653.517	8.89
653.929	8.83
654.341	8.78
654.753	8.7
655.165	8.63
655.577	8.55
655.989	8.46
656.401	8.37
656.813	8.29
657.224	8.19
657.636	8.09
658.047	7.99
658.459	7.88
658.87	7.77
659.282	7.65
659.693	7.54
660.104	7.43
660.515	7.33
660.926	7.22
661.338	7.11
661.749	7.01
662.159	6.91
662.57	6.81
662.981	6.72
663.392	6.63
663.803	6.54
664.213	6.45
664.624	6.37
665.035	6.29
665.445	6.21
665.855	6.14
666.266	6.08
666.676	6.02
667.086	5.97
667.497	5.91
667.907	5.86
668.317	5.82
668.727	5.78
669.137	5.74
669.547	5.7
669.956	5.68
670.366	5.66
670.776	5.63
671.186	5.61
671.595	5.6
672.005	5.58
672.414	5.58
672.824	5.58
673.233	5.57
673.642	5.57
674.052	5.58
674.461	5.59
674.87	5.6
675.279	5.62
675.688	5.63
676.097	5.65
676.506	5.68
676.915	5.71
677.323	5.75
677.732	5.79
678.141	5.84
678.549	5.89
678.958	5.94
679.366	6.01
679.775	6.08
680.183	6.18
680.592	6.27
681	6.38
681.408	6.5
681.816	6.64
682.224	6.79
682.632	6.96
683.04	7.14
683.448	7.34
683.856	7.55
684.264	7.79
684.671	8.03
685.079	8.31
685.487	8.62
685.894	8.96
686.302	9.3
686.709	9.67
687.116	10.06
687.524	10.47
687.931	10.91
688.338	11.38
688.745	11.85
689.152	12.33
689.559	12.83
689.966	13.35
690.373	13.87
690.78	14.42
691.187	14.96
691.593	15.5
692	16.06
692.407	16.6
692.813	17.16
693.22	17.71
693.626	18.29
694.032	18.84
694.439	19.4
694.845	19.95
695.251	20.48
695.657	21.01
696.063	21.54
696.469	22.06
696.875	22.58
697.281	23.09
697.687	23.6
698.093	24.08
698.498	24.57
698.904	25.03
699.31	25.49
699.715	25.95
700.12	26.41
700.526	26.86
700.931	27.3
701.337	27.71
701.742	28.1
702.147	28.48
702.552	28.89
702.957	29.24
703.362	29.61
703.767	29.95
704.172	30.29
704.577	30.62
704.981	30.93
705.386	31.24
705.791	31.57
706.195	31.88
706.6	32.21
707.004	32.49
707.408	32.79
707.813	33.11
708.217	33.39
708.621	33.68
709.025	33.92
709.43	34.19
709.834	34.46
710.237	34.72
710.641	34.99
711.045	35.22
711.449	35.47
711.853	35.73
712.256	35.91
712.66	36.12
713.064	36.32
713.467	36.54
713.87	36.74
714.274	36.92
714.677	37.1
715.08	37.29
715.484	37.48
715.887	37.67
716.29	37.82
716.693	38.02
717.096	38.22
717.499	38.41
717.901	38.58
718.304	38.75
718.707	38.92
719.109	39.08
719.512	39.21
719.915	39.37
720.317	39.5
720.719	39.63
721.122	39.75
721.524	39.87
721.926	40
722.328	40.14
722.731	40.26
723.133	40.39
723.535	40.51
723.937	40.64
724.338	40.73
724.74	40.82
725.142	41.05
725.544	41.14
725.945	41.27
726.347	41.32
726.748	41.41
727.15	41.48
727.551	41.56
727.952	41.62
728.354	41.68
728.755	41.74
729.156	41.83
729.557	41.75
729.958	41.8
730.359	41.84
730.76	41.93
731.161	41.99
731.562	42.07
731.962	42.1
732.363	42.17
732.763	42.23
733.164	42.28
733.564	42.31
733.965	42.36
734.365	42.43
734.766	42.47
735.166	42.5
735.566	42.54
735.966	42.58
736.366	42.64
736.766	42.65
737.166	42.68
737.566	42.73
737.966	42.77
738.365	42.81
738.765	42.84
739.165	42.86
739.564	42.92
739.964	42.93
740.363	42.94
740.763	42.98
741.162	43
741.561	43.01
741.96	43
742.36	43.03
742.759	43.04
743.158	43.04
743.557	43.05
743.955	43.05
744.354	43.07
744.753	43.1
745.152	43.12
745.55	43.13
745.949	43.15
746.348	43.18
746.746	43.18
747.144	43.22
747.543	43.21
747.941	43.25
748.339	43.24
748.737	43.24
749.136	43.23
749.534	43.2
749.932	43.2
750.33	43.2
750.727	43.23
751.125	43.22
751.523	43.21
751.921	43.24
752.318	43.23
752.716	43.26
753.113	43.27
753.511	43.28
753.908	43.3
754.305	43.34
754.703	43.35
755.1	43.34
755.497	43.36
755.894	43.34
756.291	43.33
756.688	43.32
757.085	43.31
757.482	43.34
757.878	43.36
758.275	43.35
758.672	43.33
759.068	43.33
759.465	43.33
759.861	43.31
760.258	43.33
760.654	43.34
761.05	43.37
761.447	43.37
761.843	43.36
762.239	43.35
762.635	43.34
763.031	43.33
763.427	43.31
763.822	43.32
764.218	43.34
764.614	43.36
765.01	43.35
765.405	43.32
765.801	43.3
766.196	43.3
766.592	43.29
766.987	43.31
767.382	43.33
767.778	43.34
768.173	43.35
768.568	43.34
768.963	43.33
769.358	43.34
769.753	43.36
770.148	43.38
770.542	43.39
770.937	43.4
771.332	43.38
771.726	43.37
772.121	43.38
772.515	43.38
772.91	43.36
773.304	43.36
773.699	43.37
774.093	43.38
774.487	43.36
774.881	43.37
775.275	43.35
775.669	43.35
776.063	43.35
776.457	43.34
776.851	43.33
777.245	43.33
777.638	43.32
778.032	43.3
778.425	43.31
778.819	43.33
779.212	43.33
779.606	43.37
779.999	43.38
780.392	43.39
780.786	43.4
781.179	43.42
781.572	43.46
781.965	43.48
782.358	43.52
782.751	43.51
783.143	43.52
783.536	43.52
783.929	43.52
784.322	43.54
784.714	43.55
785.107	43.58
785.499	43.56
785.891	43.54
786.284	43.56
786.676	43.56
787.068	43.56
787.46	43.56
787.852	43.54
788.245	43.52
788.636	43.48
789.028	43.48
789.42	43.44
789.812	43.45
790.204	43.45
790.595	43.43
790.987	43.41
791.378	43.42
791.77	43.44
792.161	43.45
792.553	43.46
792.944	43.48
793.335	43.49
793.726	43.52
794.117	43.51
794.508	43.51
794.899	43.5
795.29	43.53
795.681	43.52
796.072	43.52
796.463	43.56
796.853	43.58
797.244	43.61
797.634	43.62
798.025	43.62
798.415	43.63
798.806	43.64
799.196	43.67
799.586	43.67
799.976	43.68
800.366	43.68
800.756	43.65
801.146	43.67
801.536	43.67
801.926	43.66
802.316	43.69
802.706	43.73
803.095	43.73
803.485	43.73
803.874	43.75
804.264	43.74
804.653	43.75
805.043	43.75
805.432	43.75
805.821	43.75
806.21	43.79
806.599	43.76
806.988	43.77
807.377	43.79
807.766	43.81
808.155	43.79
808.544	43.8
808.933	43.81
809.321	43.83
809.71	43.84
810.098	43.84
810.487	43.83
810.875	43.83
811.264	43.84
811.652	43.85
812.04	43.85
812.428	43.88
812.816	43.89
813.204	43.88
813.592	43.88
813.98	43.89
814.368	43.9
814.756	43.91
815.144	43.89
815.531	43.89
815.919	43.88
816.306	43.86
816.694	43.84
817.081	43.85
817.469	43.86
817.856	43.84
818.243	43.82
818.63	43.82
819.017	43.81
819.404	43.83
819.791	43.82
820.178	43.82
820.565	43.83
820.952	43.85
821.339	43.82
821.725	43.83
822.112	43.88
822.498	43.9
822.885	43.88
823.271	43.89
823.657	43.87
824.044	43.9
824.43	43.9
824.816	43.92
825.202	43.9
825.588	43.93
825.974	43.92
826.36	43.9
826.746	43.9
827.132	43.88
827.517	43.9
827.903	43.93
828.289	43.94
828.674	43.94
829.06	43.9
829.445	43.9
829.83	43.88
830.216	43.87
830.601	43.87
830.986	43.87
831.371	43.89
831.756	43.88
832.141	43.86
832.526	43.84
832.911	43.83
833.295	43.84
833.68	43.84
834.065	43.83
834.449	43.82
834.834	43.81
835.218	43.77
835.603	43.75
835.987	43.73
836.371	43.72
836.755	43.73
837.139	43.71
837.524	43.69
837.908	43.71
838.291	43.73
838.675	43.71
839.059	43.71
839.443	43.73
839.827	43.73
840.21	43.73
840.594	43.73
840.977	43.72
841.361	43.74
841.744	43.72
842.127	43.7
842.511	43.68
842.894	43.68
843.277	43.67
843.66	43.65
844.043	43.68
844.426	43.68
844.809	43.68
845.191	43.69
845.574	43.67
845.957	43.69
846.339	43.69
846.722	43.7
847.104	43.72
847.487	43.7
847.869	43.71
848.252	43.7
848.634	43.7
849.016	43.71
849.398	43.71
849.78	43.73
850.162	43.74
850.544	43.75
850.926	43.75
851.307	43.75
851.689	43.76
852.071	43.77
852.452	43.77
852.834	43.79
853.215	43.79
853.597	43.79
853.978	43.78
854.359	43.78
854.741	43.77
855.122	43.77
855.503	43.76
855.884	43.77
856.265	43.77
856.646	43.75
857.026	43.75
857.407	43.75
857.788	43.75
858.169	43.78
858.549	43.78
858.93	43.78
859.31	43.78
859.69	43.79
860.071	43.8
860.451	43.8
860.831	43.81
861.211	43.81
861.591	43.79
861.971	43.78
862.351	43.76
862.731	43.78
863.111	43.77
863.491	43.76
863.87	43.75
864.25	43.74
864.629	43.75
865.009	43.75
865.388	43.73
865.768	43.73
866.147	43.73
866.526	43.73
866.905	43.71
867.284	43.72
867.663	43.73
868.042	43.75
868.421	43.74
868.8	43.73
869.179	43.74
869.558	43.75
869.936	43.74
870.315	43.72
870.693	43.75
871.072	43.76
871.45	43.76
871.828	43.74
872.207	43.75
872.585	43.76
872.963	43.77
873.341	43.76
873.719	43.76
874.097	43.78
874.475	43.81
874.853	43.79
875.23	43.81
875.608	43.83
875.986	43.85
876.363	43.85
876.741	43.87
877.118	43.91
877.495	43.92
877.873	43.96
878.25	43.99
878.627	43.99
879.004	43.98
879.381	43.95
879.758	43.91
880.135	43.92
880.512	43.89
880.889	43.87
881.265	43.82
881.642	43.8
882.019	43.79
882.395	43.76
882.772	43.73
883.148	43.73
883.524	43.75
883.901	43.75
884.277	43.74
884.653	43.73
885.029	43.72
885.405	43.72
885.781	43.73
886.157	43.71
886.532	43.71
886.908	43.71
887.284	43.74
887.659	43.71
888.035	43.7
888.411	43.69
888.786	43.71
889.161	43.71
889.537	43.73
889.912	43.7
890.287	43.68
890.662	43.67
891.037	43.68
891.412	43.65
891.787	43.65
892.162	43.65
892.536	43.64
892.911	43.62
893.286	43.61
893.66	43.6
894.035	43.6
894.409	43.62
894.784	43.63
895.158	43.61
895.532	43.62
895.906	43.62
896.281	43.63
896.655	43.63
897.029	43.63
897.402	43.65
897.776	43.65
898.15	43.65
898.524	43.64
898.898	43.63
899.271	43.65
899.645	43.65
900.018	43.66
900.392	43.68
900.765	43.7
901.138	43.69
901.511	43.69
901.884	43.69
902.258	43.69
902.631	43.7
903.003	43.71
903.376	43.69
903.749	43.68
904.122	43.7
904.495	43.71
904.867	43.71
905.24	43.73
905.612	43.73
905.985	43.72
906.357	43.69
906.729	43.7
907.102	43.72
907.474	43.74
907.846	43.75
908.218	43.74
908.59	43.73
908.962	43.72
909.334	43.74
909.705	43.72
910.077	43.74
910.449	43.76
910.82	43.77
911.192	43.73
911.563	43.7
911.935	43.69
912.306	43.72
912.677	43.7
913.048	43.72
913.419	43.7
913.79	43.73
914.161	43.73
914.532	43.75
914.903	43.73
915.274	43.76
915.645	43.79
916.015	43.8
916.386	43.77
916.756	43.8
917.127	43.78
917.497	43.79
917.868	43.77
918.238	43.77
918.608	43.78
918.978	43.81
919.348	43.8
919.718	43.79
920.088	43.8
920.458	43.83
920.828	43.79
921.198	43.77
921.567	43.77
921.937	43.77
922.306	43.74
922.676	43.75
923.045	43.73
923.415	43.73
923.784	43.71
924.153	43.74
924.522	43.75
924.891	43.78
925.26	43.79
925.629	43.81
925.998	43.78
926.367	43.8
926.736	43.78
927.104	43.77
927.473	43.79
927.842	43.8
928.21	43.8
928.578	43.77
928.947	43.79
929.315	43.78
929.683	43.76
930.051	43.75
930.42	43.78
930.788	43.8
931.156	43.8
931.523	43.79
931.891	43.82
932.259	43.8
932.627	43.79
932.994	43.79
933.362	43.79
933.729	43.8
934.097	43.83
934.464	43.82
934.831	43.8
935.199	43.82
935.566	43.84
935.933	43.77
936.3	43.73
936.667	43.75
937.034	43.81
937.401	43.82
937.767	43.85
938.134	43.86
938.501	43.87
938.867	43.9
939.234	43.9
939.6	43.89
939.967	43.93
940.333	43.95
940.699	43.95
941.065	43.84
941.431	43.83
941.798	43.75
942.163	43.73
942.529	43.69
942.895	43.62
943.261	43.55
943.627	43.58
943.992	43.58
944.358	43.59
944.723	43.55
945.089	43.51
945.454	43.51
945.82	43.54
946.185	43.56
946.55	43.52
946.915	43.53
947.28	43.53
947.645	43.46
948.01	43.46
948.375	43.42
948.74	43.43
949.104	43.44
949.469	43.41
949.834	43.39
950.198	43.38
950.562	43.38
950.927	43.38
951.291	43.32
951.655	43.26
952.02	43.2
952.384	43.21
952.748	43.24
953.112	43.24
953.476	43.21
953.839	43.21
954.203	43.2
954.567	43.21
954.931	43.15
955.294	43.12
955.658	43.17
956.021	43.16
956.385	43.07
956.748	43.04
957.111	43.03
957.474	43.05
957.837	43.01
958.2	42.96
958.563	42.91
958.926	42.95
959.289	42.98
959.652	42.95
960.015	42.96
960.377	42.99
960.74	42.96
961.102	42.97
961.465	43
961.827	43.09
962.189	43.1
962.552	43.1
962.914	43.09
963.276	43.12
963.638	43.12
964	43.14
964.362	43.17
964.724	43.14
965.085	43.13
965.447	43.09
965.809	43
966.17	42.98
966.532	42.94
966.893	42.93
967.255	42.9
967.616	42.89
967.977	42.88
968.338	42.9
968.699	42.91
969.061	42.89
969.421	42.92
969.782	42.94
970.143	42.93
970.504	43.02
970.865	43.06
971.225	43.1
971.586	43.1
971.946	43.06
972.307	43.03
972.667	43
973.027	43.02
973.388	42.99
973.748	42.98
974.108	43.06
974.468	43.01
974.828	43.04
975.188	42.97
975.548	42.96
975.907	43
976.267	42.97
976.627	42.97
976.986	42.95
977.346	42.86
977.705	42.91
978.064	42.85
978.424	42.83
978.783	42.69
979.142	42.75
979.501	42.79
979.86	42.84
980.219	42.85
980.578	42.89
980.937	42.88
981.296	42.96
981.654	42.94
982.013	42.99
982.371	43.01
982.73	43.1
983.088	43.09
983.447	43.05
983.805	43.04
984.163	43.05
984.521	43.04
984.879	43.07
985.237	43.17
985.595	43.22
985.953	43.24
986.311	43.21
986.669	43.24
987.026	43.24
987.384	43.31
987.741	43.24
988.099	43.34
988.456	43.39
988.814	43.44
989.171	43.32
989.528	43.26
989.885	43.2
990.242	43.27
990.599	43.28
990.956	43.3
991.313	43.28
991.67	43.33
992.027	43.47
992.383	43.48
992.74	43.56
993.096	43.59
993.453	43.69
993.809	43.76
994.165	43.82
994.522	43.89
994.878	43.9
995.234	44.02
995.59	43.93
995.946	43.71
996.302	43.6
996.658	43.54
997.013	43.61
997.369	43.58
997.725	43.57
998.08	43.52
998.436	43.45
998.791	43.46
999.147	43.35
999.502	43.41
999.857	43.48
1000.212	43.53
1000.567	43.51
1000.922	43.39
1001.277	43.35
1001.632	43.2
1001.987	43.25
1002.342	43.2
1002.696	43.18
1003.051	43.28
1003.406	43.37
1003.76	43.33
1004.114	43.24
1004.469	43.27
1004.823	43.54
1005.177	43.52
1005.531	43.64
1005.885	43.66
1006.239	43.76
1006.593	43.91
1006.947	43.75
1007.301	43.59
1007.655	43.54
1008.008	43.71
1008.362	43.82
1008.715	43.62
1009.069	43.73
1009.422	43.8
1009.776	43.72
1010.129	43.66
1010.482	43.49
1010.835	43.68
1011.188	43.86
1011.541	44.04
1011.894	44.03
1012.247	43.87
1012.6	43.78
1012.952	43.71
1013.305	43.69
1013.657	43.71
1014.01	43.68
1014.362	43.73
1014.715	43.77
1015.067	43.83
1015.419	43.73
1015.771	43.76
1016.123	43.87
1016.475	44.08
1016.827	44.25
1017.179	44.28
1017.531	44.33
1017.883	44.44
1018.234	44.54
1018.586	44.48
1018.938	44.46
1019.289	44.44
1019.64	44.39
1019.992	44.24
1020.343	44.2
1020.694	44.09
1021.045	43.89
1021.396	43.77
1021.747	43.94
1022.098	43.97
1022.449	44.05
1022.8	44.25
1023.151	44.47
1023.501	44.55
1023.852	44.56
1024.202	44.41
1024.553	44.38
1024.903	44.77
1025.253	45.22
1025.604	45.25
1025.954	45.03
1026.304	44.87
1026.654	44.74
1027.004	44.62
1027.354	44.45
1027.703	44.63
1028.053	44.92
1028.403	45.12
1028.753	44.81
1029.102	44.35
1029.452	43.9
1029.801	43.88
1030.15	43.85
1030.499	43.55
897.758	1756.8
901.051	1760.8
904.343	1760.17
907.636	1791.78
910.928	1745.39
914.22	1741.5
917.511	1717.84
920.803	1643.36
924.094	1632.24
927.384	1596.44
930.675	1526.66
933.965	1515.29
937.255	1429.83
940.544	1369.06
943.834	1301.47
947.123	1288
950.411	1212.14
953.7	1185.23
956.988	1121.56
960.276	1076.21
963.563	1059.8
966.851	1022.58
970.138	1013.31
973.424	978.94
976.711	983.15
979.997	935.1
983.283	930.7
986.568	910.92
989.853	880.93
993.138	867.36
996.423	833.18
999.708	809.85
1002.992	801.19
1006.275	764.41
1009.559	757.13
1012.842	731.25
1016.125	710.71
1019.408	697.66
1022.69	687
1025.972	675.71
1029.254	657.4
1032.536	647.57
1035.817	632.47
1039.098	624.04
1042.379	610.81
1045.659	604.52
1048.939	588.34
1052.219	576.21
1055.498	567.4
1058.778	555.47
1062.057	540.47
1065.335	534.52
1068.614	527.99
1071.892	522.92
1075.17	505.64
1078.447	495.54
1081.724	492.29
1085.001	488.03
1088.278	477.88
1091.554	467.43
1094.83	467.97
1098.106	466.16
1101.382	461.1
1104.657	457.01
1107.932	449.27
1111.206	452.16
1114.481	441.42
1117.755	436.34
1121.029	433.66
1124.302	433.68
1127.575	425.48
1130.848	419.5
1134.121	413.71
1137.393	412.47
1140.665	404.23
1143.937	402.2
1147.208	396.97
1150.48	396.95
1153.75	390.59
1157.021	385.27
1160.291	384.74
1163.561	380.55
1166.831	380.94
1170.101	379.4
1173.37	376.91
1176.639	377.67
1179.907	373.69
1183.176	371.12
1186.444	370.27
1189.711	370.58
1192.979	368.23
1196.246	365.46
1199.513	367.38
1202.78	364.61
1206.046	364.27
1209.312	360.64
1212.578	361.12
1215.843	363.93
1219.108	361.38
1222.373	369.19
1225.638	371.91
1228.902	378.49
1232.166	378.21
1235.43	380.84
1238.693	386.46
1241.956	388.22
1245.219	395.99
1248.482	394.77
1251.744	395.69
1255.006	396.63
1258.268	385.47
1261.529	381.67
1264.79	378.62
1268.051	377.16
1271.312	372.71
1274.572	367.64
1277.832	364.03
1281.092	357.43
1284.351	355.43
1287.61	354.17
1290.869	349.04
1294.128	347.61
1297.386	348.22
1300.644	344
1303.902	345.82
1307.159	343.25
1310.416	344.1
1313.673	343.56
1316.93	347.2
1320.186	347.23
1323.442	348.62
1326.697	355.73
1329.953	356.21
1333.208	357.13
1336.463	361.93
1339.717	361.85
1342.972	367.08
1346.226	369.56
1349.479	370.29
1352.733	372.68
1355.986	373.48
1359.238	373.67
1362.491	375.79
1365.743	379.95
1368.995	380.55
1372.247	379.37
1375.498	380.05
1378.749	384.56
1382	379.01
1385.251	381.51
1388.501	378.71
1391.751	382.8
1395	380.39
1398.25	377.79
1401.499	375.83
1404.748	375.55
1407.996	372.33
1411.244	369.93
1414.492	367.21
1417.74	365.24
1420.987	358.97
1424.234	360.18
1427.481	353.99
1430.728	355.1
1433.974	350.6
1437.22	347.16
1440.465	345.78
1443.711	343.55
1446.956	342.38
1450.201	337.04
1453.445	334.39
1456.689	333.44
1459.933	326.82
1463.177	324.77
1466.42	318.94
1469.663	315.81
1472.906	314.79
1476.148	306.5
1479.391	302.11
1482.633	298.78
1485.874	294.7
1489.115	292.72
1492.356	288.93
1495.597	288.08
1498.838	283.17
1502.078	281.16
1505.318	279.45
1508.557	279.07
1511.797	279.21
1515.036	277.88
1518.274	276.98
1521.513	274.3
1524.751	273.9
1527.989	273.21
1531.227	271.86
1534.464	273.46
1537.701	271.11
1540.938	270.33
1544.174	266.86
1547.41	266.05
1550.646	264.65
1553.882	264.59
1557.117	261.88
1560.352	259.84
1563.587	258.71
1566.821	256.95
1570.055	254.13
1573.289	252.27
1576.523	251.89
1579.756	250.17
1582.989	248.76
1586.222	248.25
1589.454	246.62
1592.686	248.21
1595.918	247.23
1599.15	246.41
1602.381	246.53
1605.612	245.88
1608.843	247.59
1612.073	246.75
1615.303	248.19
1618.533	248.42
1621.762	247.61
1624.992	247.95
1628.221	247.52
1631.449	247.41
1634.678	246.72
1637.906	248.18
1641.134	247.85
1644.361	247.03
1647.588	248.2
1650.815	246.62
1654.042	245.39
1657.269	247.81
1660.495	247.61
1663.72	245.59
1666.946	246.74
1670.171	247.51
1673.396	246.56
1676.621	246.96
1679.845	247.06
1683.069	246.89
1686.293	248.75
1689.517	250.01
1692.74	249.04
1695.963	250.3
1699.185	254.17
1702.408	254.34
1705.63	255.01
1708.852	256.19
1712.073	257.23
1715.294	257.64
1718.515	259.05
1721.736	259.01
1724.956	259.81
1728.176	259.84
1731.396	262.21
1734.616	261.1
1737.835	261.91
1741.054	260.03
1744.272	261.14
1747.491	263.57
1750.709	264.4
1753.927	264.57
1757.144	262.98
1760.361	264.7
1763.578	265.14
1766.795	264.51
1770.011	265.81
1773.227	265.75
1776.443	269.81
1779.658	270.76
1782.874	269.53
1786.089	270.59
1789.303	271.32
1792.518	275.15
1795.732	274.31
1798.945	277.64
1802.159	277.36
1805.372	278.47
1808.585	283.59
1811.797	284.52
1815.01	284.91
1818.222	287.56
1821.434	288.9
1824.645	290.5
1827.856	295.15
1831.067	298.61
1834.278	295.75
1837.488	298.56
1840.698	301.1
1843.908	298.02
1847.117	299.7
1850.326	301.6
1853.535	300.35
1856.744	305.99
1859.952	304.84
1863.16	304.28
1866.368	301.65
1869.575	307.64
1872.782	302.74
1875.989	300.88
1879.196	300.33
1882.402	298.71
1885.608	300.12
1888.814	301.29
1892.019	300.04
1895.224	300.11
1898.429	297.39
1901.634	300
1904.838	299.28
1908.042	303.54
1911.246	305.35
1914.449	306.96
1917.652	306.43
1920.855	306.21
1924.058	305.91
1927.26	304.51
1930.462	306.53
1933.664	310.74
1936.865	307.29
1940.066	308.57
1943.267	305.98
1946.467	306.28
1949.668	307.92
1952.868	312.9
1956.067	312.3
1959.267	312.78
1962.466	313.79
1965.665	310.93
1968.863	311.9
1972.061	317.22
1975.259	318.81
1978.457	321.43
1981.654	323.31
1984.852	325.11
1988.048	323
1991.245	325.94
1994.441	330.5
1997.637	332.54
2000.833	339.4
2004.028	343.75
2007.223	344.99
2010.418	349.21
2013.613	354.99
2016.807	358.89
2020.001	361.54
2023.194	367.42
2026.388	376.08
2029.581	382.78
2032.774	386.47
2035.966	394.65
2039.158	395.2
2042.35	404.4
2045.542	404.83
2048.733	410.48
2051.924	416.61
2055.115	422.45
2058.306	423.28
2061.496	427.72
2064.686	428.95
2067.875	436.61
2071.065	437.62
2074.254	435.37
2077.442	438.94
2080.631	442.72
2083.819	447.73
2087.007	447.17
2090.195	453.3
2093.382	457.34
2096.569	453.66
2099.756	461.47
2102.942	462.1
2106.128	466.94
2109.314	478.61
2112.5	477.15
2115.685	486.82
2118.87	487.59
2122.055	497.62
2125.239	500.77
2128.424	507.66
2131.608	511.15
2134.791	515.96
2137.974	519.59
2141.157	520.27
2144.34	519.92
2147.523	529.35
2150.705	525.24
2153.887	529.95
2157.068	531.85
2160.25	526.76
2163.431	527.9
2166.611	533.15
2169.792	545.79
2172.972	551.01
2176.152	554.26
2179.331	562.54
2182.511	571.83
2185.69	579.32
2188.868	590.8
2192.047	591.53
2195.225	609.13
2198.403	626.17
2201.58	638.05
2204.758	648.52
2207.935	661.1
2211.111	676.27
2214.288	682.92
2217.464	685.27
2220.64	693.19
2223.815	704.15
2226.991	732.82
2230.166	735.23
2233.34	747.12
2236.515	760.77
2239.689	762.21
2242.863	767.35
2246.036	788.68
2249.209	779.24
2252.382	791.14
2255.555	817.51
2258.727	819.21
2261.9	823.66
2265.071	830.18
2268.243	844.04
2271.414	851.74
2274.585	871.86
2277.756	880.97
2280.926	885.87
2284.096	909.96
2287.266	931.68
2290.436	938.16
2293.605	960.52
2296.774	990.42
2299.942	1023.65
2303.111	1028.12
2306.279	1052.37
2309.447	1064.27
2312.614	1092.95
2315.781	1123.79
2318.948	1177.01
2322.115	1155.44
2325.281	1216.85
2328.447	1192.66
2331.613	1241.5
2334.779	1225.48
2337.944	1277.79
2341.109	1293.34
2344.274	1328.22
2347.438	1375.82
2350.602	1377.11
2353.766	1418.69
2356.929	1441.49
2360.092	1430.21
2363.255	1537.33
2366.418	1530.44
2369.58	1561.43
2372.742	1656.99
2375.904	1698.83
2379.066	1687.29
2382.227	1650.6
2385.388	1789.51
2388.548	1788.46
2391.709	1812.9
2394.869	2028.92
2398.029	1930.02
2401.188	1987.36
2404.347	1978.21
2407.506	1948.52
2410.665	2000.09
2413.823	2125.49
2416.981	2251.82
2420.139	2177.17
2423.296	2150.74
2426.453	2248.41
2429.61	2151.49
2432.767	2260.65
2435.923	2240.18
2439.079	2441.89
2442.235	2476.69
2445.391	2454.93
2448.546	2436.62
2451.701	2370.83
2454.855	2368.93
2458.009	2521.4
2461.163	2616.53
2464.317	2719.41
2467.471	2787.47
2470.624	2780.97
2473.777	2711.11
2476.929	2636.34
2480.082	2572.21
2483.234	2536.75
2486.385	2656.64
2489.537	2671.35
2492.688	2773
2495.839	2689.64
2498.989	2631.72
2502.14	2649.7
2505.29	2686.78
2508.439	2726.43
2511.589	2723.56
2514.738	2956.04
2517.887	2899.2
2521.035	3066.95
2524.183	3084.31
2527.331	3103.32
2530.479	3101.5
2533.627	3124.42
