Data from N_3_DIV_PA_2N_Splice17_14-10-55-018.txt Node
Date: Sat Mar 07 14:10:55 EST 2020
User: sa697716
Spectrometer: NQ5500242
Trigger mode: 0
Integration Time (sec): 1.450000E-1
Scans to average: 20
Nonlinearity correction enabled: false
Boxcar width: 5
Storing dark spectrum: false
XAxis mode: Wavelengths
Number of Pixels in Spectrum: 512
>>>>>Begin Spectral Data<<<<<
187.83	138.98
188.298	149.9
188.766	120.92
189.233	105.05
189.701	105
190.169	119.28
190.636	84.57
191.104	62.31
191.571	-109.7
192.039	-123.19
192.506	-685.78
192.974	273.98
193.441	431.34
193.908	127.93
194.375	105.86
194.842	38.93
195.31	59.38
195.777	-255.7
196.244	27.48
196.711	50.63
197.177	54.46
197.644	54.48
198.111	55.18
198.578	55.8
199.045	56.72
199.511	56.88
199.978	57.61
200.445	57.54
200.911	57.5
201.378	57.86
201.844	57.69
202.31	57.54
202.777	57.7
203.243	57.92
203.709	57.33
204.176	56.98
204.642	56.73
205.108	56.45
205.574	56.32
206.04	56.02
206.506	55.47
206.972	55.43
207.438	55.31
207.903	54.81
208.369	53.7
208.835	53.13
209.301	52.23
209.766	50.99
210.232	49.73
210.697	48.63
211.163	47.73
211.628	46.77
212.094	45.65
212.559	44.51
213.024	43.71
213.49	42.98
213.955	42.15
214.42	41.51
214.885	40.77
215.35	39.89
215.815	38.51
216.28	36.83
216.745	34.85
217.21	32.85
217.675	31.05
218.14	29.38
218.604	27.89
219.069	26.66
219.534	25.6
219.998	24.72
220.463	23.93
220.927	23.23
221.392	22.64
221.856	22.15
222.32	21.69
222.785	21.31
223.249	20.94
223.713	20.61
224.177	20.31
224.642	20
225.106	19.65
225.57	19.34
226.034	19.06
226.497	18.8
226.961	18.54
227.425	18.32
227.889	18.06
228.353	17.83
228.816	17.57
229.28	17.34
229.744	17.11
230.207	16.89
230.671	16.67
231.134	16.46
231.597	16.26
232.061	16.06
232.524	15.86
232.987	15.66
233.45	15.47
233.914	15.28
234.377	15.1
234.84	14.91
235.303	14.77
235.766	14.62
236.229	14.48
236.691	14.32
237.154	14.18
237.617	14.03
238.08	13.89
238.542	13.76
239.005	13.65
239.468	13.51
239.93	13.41
240.393	13.3
240.855	13.15
241.317	13.01
241.78	12.89
242.242	12.75
242.704	12.64
243.166	12.53
243.629	12.42
244.091	12.29
244.553	12.18
245.015	12.04
245.477	11.91
245.939	11.81
246.4	11.7
246.862	11.6
247.324	11.5
247.786	11.39
248.247	11.29
248.709	11.18
249.17	11.07
249.632	10.99
250.093	10.9
250.555	10.81
251.016	10.72
251.477	10.62
251.939	10.55
252.4	10.47
252.861	10.39
253.322	10.3
253.783	10.22
254.244	10.16
254.705	10.08
255.166	10
255.627	9.94
256.088	9.88
256.549	9.82
257.009	9.74
257.47	9.67
257.931	9.6
258.391	9.54
258.852	9.47
259.312	9.4
259.773	9.34
260.233	9.27
260.694	9.21
261.154	9.15
261.614	9.09
262.074	9.04
262.534	8.98
262.994	8.93
263.455	8.89
263.915	8.84
264.374	8.8
264.834	8.77
265.294	8.73
265.754	8.7
266.214	8.66
266.673	8.63
267.133	8.6
267.593	8.57
268.052	8.54
268.512	8.51
268.971	8.48
269.431	8.44
269.89	8.41
270.349	8.39
270.809	8.35
271.268	8.32
271.727	8.28
272.186	8.25
272.645	8.23
273.104	8.2
273.563	8.17
274.022	8.14
274.481	8.11
274.94	8.09
275.399	8.05
275.857	8.02
276.316	8
276.775	7.97
277.233	7.94
277.692	7.91
278.15	7.88
278.609	7.85
279.067	7.83
279.525	7.8
279.984	7.78
280.442	7.75
280.9	7.73
281.358	7.7
281.816	7.68
282.274	7.65
282.732	7.62
283.19	7.6
283.648	7.57
284.106	7.55
284.564	7.53
285.021	7.5
285.479	7.48
285.937	7.45
286.394	7.43
286.852	7.4
287.309	7.38
287.767	7.35
288.224	7.32
288.682	7.29
289.139	7.26
289.596	7.23
290.053	7.2
290.511	7.16
290.968	7.13
291.425	7.09
291.882	7.06
292.339	7.03
292.796	7
293.252	6.97
293.709	6.94
294.166	6.91
294.623	6.88
295.079	6.86
295.536	6.84
295.992	6.81
296.449	6.8
296.905	6.77
297.362	6.75
297.818	6.72
298.274	6.7
298.731	6.67
299.187	6.64
299.643	6.62
300.099	6.6
300.555	6.57
301.011	6.55
301.467	6.52
301.923	6.5
302.379	6.48
302.835	6.46
303.291	6.43
303.746	6.42
304.202	6.41
304.658	6.39
305.113	6.38
305.569	6.36
306.024	6.35
306.479	6.33
306.935	6.32
307.39	6.3
307.845	6.29
308.301	6.28
308.756	6.26
309.211	6.25
309.666	6.25
310.121	6.24
310.576	6.22
311.031	6.21
311.486	6.2
311.94	6.2
312.395	6.19
312.85	6.18
313.305	6.17
313.759	6.16
314.214	6.14
314.668	6.12
315.123	6.1
315.577	6.09
316.032	6.08
316.486	6.06
316.94	6.04
317.394	6.01
317.849	5.98
318.303	5.96
318.757	5.93
319.211	5.91
319.665	5.89
320.119	5.88
320.572	5.85
321.026	5.83
321.48	5.82
321.934	5.79
322.387	5.77
322.841	5.75
323.295	5.74
323.748	5.73
324.202	5.71
324.655	5.69
325.108	5.68
325.562	5.66
326.015	5.65
326.468	5.63
326.921	5.62
327.374	5.61
327.827	5.59
328.28	5.57
328.733	5.56
329.186	5.55
329.639	5.54
330.092	5.53
330.545	5.52
330.997	5.5
331.45	5.49
331.903	5.5
332.355	5.5
332.808	5.49
333.26	5.49
333.713	5.48
334.165	5.48
334.617	5.48
335.069	5.47
335.522	5.48
335.974	5.48
336.426	5.47
336.878	5.46
337.33	5.45
337.782	5.45
338.234	5.44
338.686	5.43
339.137	5.42
339.589	5.41
340.041	5.39
340.493	5.37
340.944	5.35
341.396	5.32
341.847	5.31
342.299	5.28
342.75	5.25
343.201	5.23
343.653	5.22
344.104	5.19
344.555	5.18
345.006	5.15
345.457	5.14
345.908	5.12
346.359	5.1
346.81	5.09
347.261	5.07
347.712	5.06
348.163	5.04
348.613	5.03
349.064	5.03
349.515	5.02
349.965	5.01
350.416	5
350.866	4.98
351.317	4.98
351.767	4.97
352.217	4.97
352.668	4.96
353.118	4.96
353.568	4.96
354.018	4.95
354.468	4.95
354.918	4.94
355.368	4.94
355.818	4.94
356.268	4.94
356.718	4.93
357.168	4.91
357.617	4.91
358.067	4.9
358.517	4.89
358.966	4.89
359.416	4.88
359.865	4.86
360.315	4.86
360.764	4.85
361.213	4.84
361.663	4.84
362.112	4.84
362.561	4.84
363.01	4.84
363.459	4.83
363.908	4.82
364.357	4.82
364.806	4.82
365.255	4.82
365.703	4.82
366.152	4.81
366.601	4.82
367.05	4.81
367.498	4.8
367.947	4.79
368.395	4.77
368.844	4.76
369.292	4.74
369.74	4.74
370.189	4.73
370.637	4.72
371.085	4.71
371.533	4.69
371.981	4.68
372.429	4.69
372.877	4.68
373.325	4.67
373.773	4.66
374.221	4.65
374.669	4.64
375.116	4.62
375.564	4.61
376.012	4.61
376.459	4.6
376.907	4.59
377.354	4.58
377.801	4.57
378.249	4.58
378.696	4.57
379.143	4.58
379.591	4.58
380.038	4.58
380.485	4.58
380.932	4.57
381.379	4.57
381.826	4.57
382.273	4.56
382.72	4.54
383.166	4.54
383.613	4.53
384.06	4.5
384.506	4.49
384.953	4.48
385.4	4.47
385.846	4.48
386.292	4.47
386.739	4.47
387.185	4.47
387.631	4.48
388.078	4.48
388.524	4.47
388.97	4.48
389.416	4.48
389.862	4.49
390.308	4.5
390.754	4.5
391.2	4.51
391.645	4.51
392.091	4.52
392.537	4.53
392.983	4.54
393.428	4.56
393.874	4.57
394.319	4.58
394.765	4.58
395.21	4.58
395.655	4.58
396.101	4.59
396.546	4.6
396.991	4.61
397.436	4.62
397.881	4.64
398.326	4.66
398.771	4.68
399.216	4.7
399.661	4.72
400.106	4.74
400.551	4.76
400.995	4.77
401.44	4.77
401.885	4.79
402.329	4.81
402.774	4.8
403.218	4.81
403.663	4.82
404.107	4.84
404.551	4.85
404.995	4.86
405.44	4.88
405.884	4.9
406.328	4.92
406.772	4.93
407.216	4.94
407.66	4.96
408.104	4.96
408.547	4.97
408.991	5
409.435	5
409.879	5
410.322	5.03
410.766	5.04
411.209	5.06
411.653	5.09
412.096	5.1
412.54	5.13
412.983	5.15
413.426	5.18
413.869	5.19
414.312	5.23
414.756	5.27
415.199	5.28
415.642	5.3
416.085	5.32
416.527	5.32
416.97	5.33
417.413	5.33
417.856	5.33
418.298	5.31
418.741	5.32
419.184	5.31
419.626	5.31
420.069	5.31
420.511	5.31
420.953	5.31
421.396	5.32
421.838	5.34
422.28	5.35
422.722	5.37
423.164	5.39
423.606	5.41
424.048	5.42
424.49	5.43
424.932	5.44
425.374	5.44
425.816	5.43
426.258	5.41
426.699	5.39
427.141	5.37
427.582	5.37
428.024	5.37
428.465	5.38
428.907	5.39
429.348	5.37
429.789	5.37
430.231	5.37
430.672	5.4
431.113	5.43
431.554	5.46
431.995	5.48
432.436	5.48
432.877	5.5
433.318	5.51
433.759	5.51
434.2	5.54
434.64	5.57
435.081	5.58
435.522	5.61
435.962	5.61
436.403	5.65
436.843	5.67
437.284	5.67
437.724	5.69
438.164	5.69
438.604	5.71
439.045	5.72
439.485	5.71
439.925	5.71
440.365	5.71
440.805	5.71
441.245	5.73
441.685	5.75
442.125	5.77
442.564	5.76
443.004	5.76
443.444	5.76
443.883	5.77
444.323	5.77
444.762	5.78
445.202	5.77
445.641	5.78
446.081	5.78
446.52	5.77
446.959	5.78
447.398	5.8
447.837	5.82
448.276	5.84
448.716	5.86
449.154	5.9
449.593	5.93
450.032	5.93
450.471	5.94
450.91	5.94
451.349	5.95
451.787	5.94
452.226	5.93
452.664	5.92
453.103	5.91
453.541	5.9
453.98	5.88
454.418	5.85
454.856	5.84
455.295	5.83
455.733	5.79
456.171	5.78
456.609	5.76
457.047	5.73
457.485	5.72
457.923	5.71
458.361	5.68
458.798	5.68
459.236	5.67
459.674	5.66
460.111	5.65
460.549	5.66
460.987	5.65
461.424	5.66
461.862	5.66
462.299	5.66
462.736	5.65
463.173	5.65
463.611	5.64
464.048	5.65
464.485	5.64
464.922	5.64
465.359	5.64
465.796	5.63
466.233	5.62
466.67	5.63
467.106	5.64
467.543	5.64
467.98	5.64
468.416	5.65
468.853	5.65
469.29	5.65
469.726	5.65
470.162	5.65
470.599	5.66
471.035	5.66
471.471	5.64
471.907	5.63
472.344	5.64
472.78	5.65
473.216	5.63
473.652	5.63
474.088	5.62
474.523	5.61
474.959	5.61
475.395	5.6
475.831	5.58
476.266	5.59
476.702	5.58
477.138	5.56
477.573	5.55
478.008	5.55
478.444	5.53
478.879	5.53
479.314	5.51
479.75	5.5
480.185	5.47
480.62	5.47
481.055	5.45
481.49	5.44
481.925	5.44
482.36	5.42
482.795	5.41
483.229	5.41
483.664	5.41
484.099	5.41
484.534	5.4
484.968	5.42
485.403	5.42
485.837	5.43
486.271	5.44
486.706	5.44
487.14	5.45
487.574	5.46
488.009	5.47
488.443	5.48
488.877	5.49
489.311	5.51
489.745	5.52
490.179	5.55
490.613	5.57
491.046	5.59
491.48	5.62
491.914	5.66
492.348	5.7
492.781	5.74
493.215	5.78
493.648	5.83
494.082	5.88
494.515	5.92
494.948	5.95
495.382	6
495.815	6.06
496.248	6.12
496.681	6.17
497.114	6.23
497.547	6.3
497.98	6.36
498.413	6.42
498.846	6.5
499.279	6.58
499.711	6.67
500.144	6.76
500.577	6.85
501.009	6.94
501.442	7.04
501.874	7.14
502.306	7.24
502.739	7.36
503.171	7.48
503.603	7.6
504.036	7.73
504.468	7.86
504.9	7.99
505.332	8.13
505.764	8.28
506.196	8.44
506.627	8.61
507.059	8.78
507.491	8.95
507.923	9.12
508.354	9.32
508.786	9.5
509.217	9.71
509.649	9.91
510.08	10.11
510.512	10.32
510.943	10.54
511.374	10.75
511.805	10.98
512.237	11.2
512.668	11.44
513.099	11.67
513.53	11.9
513.961	12.13
514.391	12.38
514.822	12.63
515.253	12.88
515.684	13.14
516.114	13.39
516.545	13.64
516.975	13.89
517.406	14.14
517.836	14.4
518.267	14.67
518.697	14.92
519.127	15.16
519.558	15.41
519.988	15.66
520.418	15.91
520.848	16.15
521.278	16.38
521.708	16.64
522.138	16.87
522.567	17.09
522.997	17.3
523.427	17.51
523.857	17.73
524.286	17.93
524.716	18.13
525.145	18.32
525.575	18.51
526.004	18.7
526.433	18.85
526.863	19.04
527.292	19.2
527.721	19.37
528.15	19.53
528.579	19.68
529.008	19.82
529.437	19.95
529.866	20.08
530.295	20.2
530.724	20.32
531.152	20.43
531.581	20.53
532.01	20.65
532.438	20.74
532.867	20.82
533.295	20.9
533.723	20.98
534.152	21.05
534.58	21.12
535.008	21.17
535.436	21.24
535.865	21.29
536.293	21.34
536.721	21.37
537.149	21.41
537.576	21.44
538.004	21.48
538.432	21.53
538.86	21.55
539.287	21.57
539.715	21.62
540.143	21.64
540.57	21.67
540.998	21.67
541.425	21.7
541.852	21.72
542.28	21.75
542.707	21.77
543.134	21.79
543.561	21.83
543.988	21.86
544.415	21.87
544.842	21.88
545.269	21.9
545.696	21.95
546.123	21.97
546.549	22.01
546.976	22.03
547.403	22.06
547.829	22.08
548.256	22.11
548.682	22.13
549.108	22.16
549.535	22.2
549.961	22.23
550.387	22.23
550.813	22.24
551.24	22.24
551.666	22.26
552.092	22.26
552.518	22.25
552.943	22.22
553.369	22.21
553.795	22.2
554.221	22.17
554.646	22.13
555.072	22.11
555.498	22.07
555.923	22.03
556.349	21.97
556.774	21.93
557.199	21.86
557.625	21.82
558.05	21.76
558.475	21.68
558.9	21.61
559.325	21.54
559.75	21.47
560.175	21.39
560.6	21.31
561.025	21.23
561.449	21.13
561.874	21.05
562.299	20.96
562.723	20.85
563.148	20.75
563.572	20.63
563.997	20.5
564.421	20.37
564.846	20.24
565.27	20.11
565.694	19.99
566.118	19.86
566.542	19.72
566.966	19.56
567.39	19.42
567.814	19.28
568.238	19.13
568.662	18.99
569.086	18.85
569.509	18.72
569.933	18.58
570.357	18.43
570.78	18.29
571.204	18.14
571.627	18.02
572.05	17.88
572.474	17.76
572.897	17.65
573.32	17.52
573.743	17.41
574.166	17.28
574.589	17.19
575.012	17.07
575.435	16.99
575.858	16.91
576.281	16.81
576.704	16.72
577.126	16.63
577.549	16.55
577.972	16.47
578.394	16.38
578.817	16.31
579.239	16.24
579.661	16.18
580.084	16.11
580.506	16.03
580.928	15.96
581.35	15.89
581.772	15.82
582.194	15.75
582.616	15.69
583.038	15.63
583.46	15.55
583.882	15.48
584.303	15.41
584.725	15.34
585.147	15.29
585.568	15.22
585.99	15.16
586.411	15.11
586.833	15.06
587.254	15
587.675	14.94
588.096	14.9
588.518	14.86
588.939	14.82
589.36	14.77
589.781	14.72
590.202	14.69
590.623	14.65
591.043	14.62
591.464	14.58
591.885	14.54
592.305	14.52
592.726	14.49
593.147	14.46
593.567	14.42
593.987	14.39
594.408	14.37
594.828	14.34
595.248	14.31
595.669	14.29
596.089	14.27
596.509	14.24
596.929	14.2
597.349	14.17
597.769	14.13
598.189	14.1
598.608	14.06
599.028	14.02
599.448	13.97
599.867	13.93
600.287	13.88
600.706	13.84
601.126	13.79
601.545	13.75
601.965	13.7
602.384	13.67
602.803	13.63
603.222	13.57
603.641	13.54
604.061	13.49
604.48	13.42
604.898	13.37
605.317	13.31
605.736	13.25
606.155	13.19
606.574	13.13
606.992	13.05
607.411	12.98
607.829	12.9
608.248	12.83
608.666	12.75
609.085	12.69
609.503	12.63
609.921	12.56
610.339	12.48
610.758	12.43
611.176	12.35
611.594	12.28
612.012	12.22
612.43	12.16
612.847	12.09
613.265	12.02
613.683	11.96
614.101	11.9
614.518	11.84
614.936	11.78
615.353	11.71
615.771	11.66
616.188	11.6
616.606	11.55
617.023	11.5
617.44	11.46
617.857	11.41
618.274	11.36
618.691	11.31
619.108	11.26
619.525	11.21
619.942	11.18
620.359	11.14
620.776	11.11
621.192	11.07
621.609	11.05
622.026	11.02
622.442	11
622.859	10.97
623.275	10.95
623.691	10.93
624.108	10.93
624.524	10.92
624.94	10.91
625.356	10.89
625.772	10.87
626.188	10.86
626.604	10.85
627.02	10.85
627.436	10.84
627.852	10.83
628.268	10.82
628.683	10.8
629.099	10.77
629.514	10.75
629.93	10.73
630.345	10.72
630.761	10.68
631.176	10.64
631.591	10.6
632.007	10.56
632.422	10.51
632.837	10.46
633.252	10.41
633.667	10.36
634.082	10.29
634.497	10.23
634.911	10.14
635.326	10.07
635.741	10
636.155	9.91
636.57	9.83
636.984	9.75
637.399	9.66
637.813	9.55
638.228	9.46
638.642	9.35
639.056	9.24
639.47	9.15
639.884	9.06
640.298	8.94
640.712	8.85
641.126	8.74
641.54	8.64
641.954	8.54
642.368	8.44
642.781	8.34
643.195	8.25
643.609	8.16
644.022	8.06
644.436	7.97
644.849	7.89
645.262	7.81
645.676	7.73
646.089	7.66
646.502	7.59
646.915	7.53
647.328	7.48
647.741	7.44
648.154	7.38
648.567	7.35
648.98	7.3
649.393	7.26
649.805	7.24
650.218	7.22
650.631	7.19
651.043	7.16
651.456	7.13
651.868	7.11
652.28	7.06
652.693	7.03
653.105	6.99
653.517	6.96
653.929	6.93
654.341	6.87
654.753	6.81
655.165	6.76
655.577	6.72
655.989	6.66
656.401	6.61
656.813	6.56
657.224	6.5
657.636	6.43
658.047	6.37
658.459	6.3
658.87	6.23
659.282	6.17
659.693	6.11
660.104	6.04
660.515	5.98
660.926	5.91
661.338	5.85
661.749	5.79
662.159	5.72
662.57	5.67
662.981	5.61
663.392	5.57
663.803	5.53
664.213	5.47
664.624	5.43
665.035	5.39
665.445	5.36
665.855	5.32
666.266	5.29
666.676	5.28
667.086	5.25
667.497	5.23
667.907	5.21
668.317	5.2
668.727	5.19
669.137	5.18
669.547	5.17
669.956	5.16
670.366	5.17
670.776	5.17
671.186	5.17
671.595	5.18
672.005	5.18
672.414	5.18
672.824	5.18
673.233	5.19
673.642	5.21
674.052	5.22
674.461	5.23
674.87	5.25
675.279	5.28
675.688	5.3
676.097	5.33
676.506	5.36
676.915	5.39
677.323	5.42
677.732	5.45
678.141	5.49
678.549	5.53
678.958	5.58
679.366	5.63
679.775	5.68
680.183	5.74
680.592	5.81
681	5.87
681.408	5.95
681.816	6.04
682.224	6.13
682.632	6.23
683.04	6.34
683.448	6.46
683.856	6.59
684.264	6.73
684.671	6.9
685.079	7.08
685.487	7.3
685.894	7.51
686.302	7.77
686.709	8.04
687.116	8.33
687.524	8.64
687.931	8.99
688.338	9.34
688.745	9.73
689.152	10.11
689.559	10.54
689.966	10.96
690.373	11.41
690.78	11.89
691.187	12.36
691.593	12.84
692	13.33
692.407	13.82
692.813	14.34
693.22	14.83
693.626	15.35
694.032	15.86
694.439	16.39
694.845	16.92
695.251	17.42
695.657	17.94
696.063	18.47
696.469	18.99
696.875	19.5
697.281	20.01
697.687	20.52
698.093	21.02
698.498	21.5
698.904	21.98
699.31	22.45
699.715	22.92
700.12	23.38
700.526	23.83
700.931	24.28
701.337	24.73
701.742	25.14
702.147	25.55
702.552	25.97
702.957	26.36
703.362	26.74
703.767	27.13
704.172	27.51
704.577	27.87
704.981	28.24
705.386	28.6
705.791	28.93
706.195	29.3
706.6	29.65
707.004	29.98
707.408	30.33
707.813	30.67
708.217	30.99
708.621	31.3
709.025	31.58
709.43	31.89
709.834	32.19
710.237	32.47
710.641	32.74
711.045	33.01
711.449	33.28
711.853	33.56
712.256	33.8
712.66	34.06
713.064	34.32
713.467	34.59
713.87	34.83
714.274	35.07
714.677	35.33
715.08	35.54
715.484	35.76
715.887	36.02
716.29	36.23
716.693	36.44
717.096	36.66
717.499	36.86
717.901	37.06
718.304	37.27
718.707	37.46
719.109	37.65
719.512	37.86
719.915	38.05
720.317	38.2
720.719	38.36
721.122	38.55
721.524	38.7
721.926	38.88
722.328	39.04
722.731	39.18
723.133	39.36
723.535	39.48
723.937	39.63
724.338	39.77
724.74	39.92
725.142	40.08
725.544	40.19
725.945	40.32
726.347	40.43
726.748	40.54
727.15	40.62
727.551	40.72
727.952	40.82
728.354	40.91
728.755	41.01
729.156	41.1
729.557	41.17
729.958	41.25
730.359	41.34
730.76	41.43
731.161	41.52
731.562	41.64
731.962	41.69
732.363	41.78
732.763	41.85
733.164	41.9
733.564	41.96
733.965	42.02
734.365	42.1
734.766	42.16
735.166	42.2
735.566	42.25
735.966	42.31
736.366	42.39
736.766	42.44
737.166	42.47
737.566	42.52
737.966	42.56
738.365	42.6
738.765	42.65
739.165	42.66
739.564	42.72
739.964	42.74
740.363	42.73
740.763	42.74
741.162	42.75
741.561	42.78
741.96	42.79
742.36	42.79
742.759	42.83
743.158	42.82
743.557	42.83
743.955	42.84
744.354	42.84
744.753	42.88
745.152	42.9
745.55	42.92
745.949	42.95
746.348	42.98
746.746	43.04
747.144	43.05
747.543	43.09
747.941	43.13
748.339	43.12
748.737	43.15
749.136	43.17
749.534	43.19
749.932	43.22
750.33	43.23
750.727	43.26
751.125	43.23
751.523	43.22
751.921	43.21
752.318	43.2
752.716	43.23
753.113	43.25
753.511	43.24
753.908	43.25
754.305	43.23
754.703	43.2
755.1	43.18
755.497	43.17
755.894	43.17
756.291	43.16
756.688	43.15
757.085	43.13
757.482	43.12
757.878	43.09
758.275	43.06
758.672	43.04
759.068	43.07
759.465	43.06
759.861	43.04
760.258	43.07
760.654	43.08
761.05	43.07
761.447	43.09
761.843	43.1
762.239	43.1
762.635	43.12
763.031	43.14
763.427	43.12
763.822	43.13
764.218	43.19
764.614	43.19
765.01	43.18
765.405	43.18
765.801	43.16
766.196	43.16
766.592	43.17
766.987	43.17
767.382	43.15
767.778	43.17
768.173	43.16
768.568	43.13
768.963	43.13
769.358	43.16
769.753	43.16
770.148	43.17
770.542	43.18
770.937	43.2
771.332	43.2
771.726	43.21
772.121	43.18
772.515	43.2
772.91	43.19
773.304	43.19
773.699	43.19
774.093	43.2
774.487	43.2
774.881	43.22
775.275	43.21
775.669	43.22
776.063	43.21
776.457	43.23
776.851	43.21
777.245	43.21
777.638	43.19
778.032	43.17
778.425	43.19
778.819	43.19
779.212	43.18
779.606	43.17
779.999	43.16
780.392	43.18
780.786	43.2
781.179	43.22
781.572	43.23
781.965	43.26
782.358	43.27
782.751	43.25
783.143	43.27
783.536	43.25
783.929	43.27
784.322	43.29
784.714	43.31
785.107	43.3
785.499	43.3
785.891	43.33
786.284	43.34
786.676	43.35
787.068	43.36
787.46	43.37
787.852	43.38
788.245	43.39
788.636	43.38
789.028	43.4
789.42	43.41
789.812	43.42
790.204	43.44
790.595	43.42
790.987	43.44
791.378	43.47
791.77	43.48
792.161	43.47
792.553	43.48
792.944	43.48
793.335	43.5
793.726	43.51
794.117	43.5
794.508	43.45
794.899	43.47
795.29	43.47
795.681	43.43
796.072	43.43
796.463	43.47
796.853	43.46
797.244	43.45
797.634	43.46
798.025	43.47
798.415	43.5
798.806	43.53
799.196	43.53
799.586	43.56
799.976	43.59
800.366	43.6
800.756	43.61
801.146	43.61
801.536	43.63
801.926	43.64
802.316	43.65
802.706	43.67
803.095	43.7
803.485	43.7
803.874	43.7
804.264	43.7
804.653	43.73
805.043	43.77
805.432	43.8
805.821	43.82
806.21	43.82
806.599	43.81
806.988	43.82
807.377	43.8
807.766	43.81
808.155	43.8
808.544	43.8
808.933	43.78
809.321	43.75
809.71	43.77
810.098	43.75
810.487	43.73
810.875	43.76
811.264	43.75
811.652	43.77
812.04	43.77
812.428	43.8
812.816	43.81
813.204	43.81
813.592	43.8
813.98	43.79
814.368	43.81
814.756	43.8
815.144	43.77
815.531	43.76
815.919	43.77
816.306	43.79
816.694	43.78
817.081	43.79
817.469	43.83
817.856	43.86
818.243	43.84
818.63	43.84
819.017	43.88
819.404	43.88
819.791	43.89
820.178	43.87
820.565	43.84
820.952	43.83
821.339	43.8
821.725	43.78
822.112	43.79
822.498	43.81
822.885	43.83
823.271	43.81
823.657	43.79
824.044	43.79
824.43	43.79
824.816	43.83
825.202	43.83
825.588	43.85
825.974	43.86
826.36	43.83
826.746	43.81
827.132	43.79
827.517	43.8
827.903	43.84
828.289	43.85
828.674	43.84
829.06	43.8
829.445	43.78
829.83	43.77
830.216	43.74
830.601	43.75
830.986	43.76
831.371	43.74
831.756	43.75
832.141	43.72
832.526	43.71
832.911	43.7
833.295	43.72
833.68	43.75
834.065	43.74
834.449	43.72
834.834	43.72
835.218	43.72
835.603	43.73
835.987	43.69
836.371	43.68
836.755	43.67
837.139	43.65
837.524	43.66
837.908	43.66
838.291	43.67
838.675	43.68
839.059	43.68
839.443	43.67
839.827	43.66
840.21	43.65
840.594	43.66
840.977	43.66
841.361	43.66
841.744	43.63
842.127	43.59
842.511	43.55
842.894	43.54
843.277	43.52
843.66	43.5
844.043	43.5
844.426	43.5
844.809	43.5
845.191	43.49
845.574	43.5
845.957	43.51
846.339	43.53
846.722	43.55
847.104	43.56
847.487	43.56
847.869	43.57
848.252	43.56
848.634	43.56
849.016	43.58
849.398	43.59
849.78	43.58
850.162	43.58
850.544	43.56
850.926	43.57
851.307	43.55
851.689	43.55
852.071	43.56
852.452	43.57
852.834	43.59
853.215	43.54
853.597	43.52
853.978	43.52
854.359	43.52
854.741	43.51
855.122	43.5
855.503	43.51
855.884	43.51
856.265	43.49
856.646	43.48
857.026	43.49
857.407	43.52
857.788	43.51
858.169	43.53
858.549	43.52
858.93	43.52
859.31	43.54
859.69	43.56
860.071	43.57
860.451	43.58
860.831	43.59
861.211	43.58
861.591	43.57
861.971	43.58
862.351	43.58
862.731	43.59
863.111	43.58
863.491	43.57
863.87	43.55
864.25	43.51
864.629	43.51
865.009	43.5
865.388	43.5
865.768	43.49
866.147	43.49
866.526	43.49
866.905	43.49
867.284	43.51
867.663	43.53
868.042	43.55
868.421	43.57
868.8	43.57
869.179	43.58
869.558	43.59
869.936	43.59
870.315	43.59
870.693	43.61
871.072	43.6
871.45	43.61
871.828	43.61
872.207	43.63
872.585	43.62
872.963	43.61
873.341	43.61
873.719	43.63
874.097	43.64
874.475	43.65
874.853	43.64
875.23	43.66
875.608	43.64
875.986	43.66
876.363	43.64
876.741	43.68
877.118	43.69
877.495	43.69
877.873	43.7
878.25	43.71
878.627	43.73
879.004	43.74
879.381	43.75
879.758	43.75
880.135	43.75
880.512	43.74
880.889	43.72
881.265	43.73
881.642	43.74
882.019	43.74
882.395	43.72
882.772	43.7
883.148	43.7
883.524	43.66
883.901	43.68
884.277	43.63
884.653	43.63
885.029	43.62
885.405	43.64
885.781	43.61
886.157	43.6
886.532	43.62
886.908	43.61
887.284	43.61
887.659	43.62
888.035	43.59
888.411	43.58
888.786	43.58
889.161	43.59
889.537	43.56
889.912	43.56
890.287	43.52
890.662	43.49
891.037	43.48
891.412	43.45
891.787	43.43
892.162	43.42
892.536	43.42
892.911	43.37
893.286	43.34
893.66	43.31
894.035	43.29
894.409	43.27
894.784	43.26
895.158	43.25
895.532	43.26
895.906	43.25
896.281	43.24
896.655	43.22
897.029	43.25
897.402	43.25
897.776	43.26
898.15	43.27
898.524	43.31
898.898	43.32
899.271	43.32
899.645	43.3
900.018	43.31
900.392	43.32
900.765	43.36
901.138	43.34
901.511	43.36
901.884	43.39
902.258	43.37
902.631	43.35
903.003	43.36
903.376	43.37
903.749	43.37
904.122	43.41
904.495	43.44
904.867	43.43
905.24	43.47
905.612	43.5
905.985	43.48
906.357	43.5
906.729	43.53
907.102	43.53
907.474	43.56
907.846	43.58
908.218	43.56
908.59	43.57
908.962	43.56
909.334	43.58
909.705	43.54
910.077	43.53
910.449	43.53
910.82	43.5
911.192	43.49
911.563	43.47
911.935	43.47
912.306	43.48
912.677	43.48
913.048	43.5
913.419	43.47
913.79	43.5
914.161	43.54
914.532	43.56
914.903	43.59
915.274	43.61
915.645	43.61
916.015	43.61
916.386	43.6
916.756	43.62
917.127	43.63
917.497	43.62
917.868	43.62
918.238	43.61
918.608	43.62
918.978	43.61
919.348	43.62
919.718	43.61
920.088	43.63
920.458	43.64
920.828	43.62
921.198	43.6
921.567	43.63
921.937	43.64
922.306	43.62
922.676	43.61
923.045	43.59
923.415	43.58
923.784	43.58
924.153	43.57
924.522	43.61
924.891	43.58
925.26	43.59
925.629	43.56
925.998	43.54
926.367	43.54
926.736	43.54
927.104	43.58
927.473	43.56
927.842	43.55
928.21	43.56
928.578	43.55
928.947	43.58
929.315	43.55
929.683	43.55
930.051	43.53
930.42	43.5
930.788	43.46
931.156	43.4
931.523	43.36
931.891	43.35
932.259	43.31
932.627	43.28
932.994	43.24
933.362	43.18
933.729	43.15
934.097	43.15
934.464	43.16
934.831	43.17
935.199	43.16
935.566	43.17
935.933	43.08
936.3	43.06
936.667	43.03
937.034	43.03
937.401	43.08
937.767	43.07
938.134	43.1
938.501	43.07
938.867	43.1
939.234	43.14
939.6	43.19
939.967	43.35
940.333	43.39
940.699	43.49
941.065	43.5
941.431	43.58
941.798	43.64
942.163	43.62
942.529	43.69
942.895	43.76
943.261	43.78
943.627	43.79
943.992	43.75
944.358	43.75
944.723	43.73
945.089	43.71
945.454	43.68
945.82	43.68
946.185	43.72
946.55	43.72
946.915	43.7
947.28	43.72
947.645	43.71
948.01	43.74
948.375	43.76
948.74	43.73
949.104	43.79
949.469	43.78
949.834	43.76
950.198	43.75
950.562	43.71
950.927	43.67
951.291	43.57
951.655	43.51
952.02	43.47
952.384	43.38
952.748	43.35
953.112	43.27
953.476	43.21
953.839	43.18
954.203	43.13
954.567	43.09
954.931	43.07
955.294	43.1
955.658	43.2
956.021	43.17
956.385	43.17
956.748	43.15
957.111	43.11
957.474	43.13
957.837	43.1
958.2	43.06
958.563	43.05
958.926	43.06
959.289	43.06
959.652	42.96
960.015	42.92
960.377	42.91
960.74	42.96
961.102	43
961.465	43.04
961.827	43.12
962.189	43.18
962.552	43.14
962.914	43.12
963.276	43.11
963.638	43.14
964	43.17
964.362	43.17
964.724	43.18
965.085	43.15
965.447	43.11
965.809	43.06
966.17	43.03
966.532	43.05
966.893	43.05
967.255	43.08
967.616	43.02
967.977	43.06
968.338	43.04
968.699	43.03
969.061	43.01
969.421	43.02
969.782	43.03
970.143	43.01
970.504	43.03
970.865	43.03
971.225	42.95
971.586	42.96
971.946	42.89
972.307	42.89
972.667	42.85
973.027	42.9
973.388	42.88
973.748	42.86
974.108	42.9
974.468	42.86
974.828	42.89
975.188	42.95
975.548	42.95
975.907	42.92
976.267	42.95
976.627	42.92
976.986	42.89
977.346	42.81
977.705	42.76
978.064	42.74
978.424	42.75
978.783	42.7
979.142	42.66
979.501	42.68
979.86	42.72
980.219	42.73
980.578	42.83
980.937	42.82
981.296	42.89
981.654	42.94
982.013	42.96
982.371	42.95
982.73	43
983.088	42.98
983.447	43.01
983.805	43.05
984.163	43.02
984.521	42.96
984.879	42.96
985.237	42.95
985.595	42.99
985.953	42.97
986.311	42.95
986.669	42.95
987.026	43.03
987.384	43.04
987.741	43.01
988.099	43.06
988.456	42.99
988.814	42.97
989.171	42.95
989.528	42.93
989.885	42.9
990.242	42.94
990.599	42.97
990.956	42.98
991.313	43.03
991.67	43.03
992.027	43.11
992.383	43.29
992.74	43.47
993.096	43.5
993.453	43.44
993.809	43.52
994.165	43.57
994.522	43.56
994.878	43.55
995.234	43.52
995.59	43.5
995.946	43.49
996.302	43.44
996.658	43.45
997.013	43.52
997.369	43.56
997.725	43.56
998.08	43.61
998.436	43.64
998.791	43.69
999.147	43.66
999.502	43.82
999.857	43.81
1000.212	43.73
1000.567	43.62
1000.922	43.6
1001.277	43.62
1001.632	43.55
1001.987	43.53
1002.342	43.54
1002.696	43.48
1003.051	43.57
1003.406	43.6
1003.76	43.61
1004.114	43.64
1004.469	43.72
1004.823	43.95
1005.177	44.07
1005.531	44.34
1005.885	44.34
1006.239	44.31
1006.593	44.5
1006.947	44.42
1007.301	44.38
1007.655	44.38
1008.008	44.55
1008.362	44.64
1008.715	44.49
1009.069	44.59
1009.422	44.4
1009.776	44.47
1010.129	44.57
1010.482	44.42
1010.835	44.55
1011.188	44.65
1011.541	44.75
1011.894	44.69
1012.247	44.71
1012.6	44.83
1012.952	44.7
1013.305	44.87
1013.657	44.83
1014.01	44.88
1014.362	45
1014.715	45.02
1015.067	45.05
1015.419	45.03
1015.771	45.05
1016.123	44.93
1016.475	44.99
1016.827	45.08
1017.179	45.16
1017.531	45.35
1017.883	45.22
1018.234	45.18
1018.586	45.33
1018.938	45.49
1019.289	45.55
1019.64	45.66
1019.992	45.74
1020.343	45.69
1020.694	45.68
1021.045	45.46
1021.396	45.47
1021.747	45.75
1022.098	46.06
1022.449	46.07
1022.8	45.97
1023.151	46.09
1023.501	46.24
1023.852	46.44
1024.202	46.46
1024.553	46.57
1024.903	46.81
1025.253	46.81
1025.604	47.02
1025.954	46.77
1026.304	46.85
1026.654	46.93
1027.004	46.78
1027.354	46.57
1027.703	46.29
1028.053	46.4
1028.403	46.46
1028.753	46.35
1029.102	46.55
1029.452	46.37
1029.801	46.64
1030.15	46.53
1030.499	46.37
897.758	1043.23
901.051	1045.14
904.343	1048.3
907.636	1063.96
910.928	1039.4
914.22	1035.86
917.511	1018.39
920.803	980.98
924.094	976.42
927.384	953.63
930.675	915.57
933.965	910.98
937.255	861.3
940.544	825.26
943.834	787
947.123	778.17
950.411	736.85
953.7	723.94
956.988	682.13
960.276	655.27
963.563	646.02
966.851	622.95
970.138	617.75
973.424	598.93
976.711	602.38
979.997	573.06
983.283	570.42
986.568	557.41
989.853	541.06
993.138	531.73
996.423	512.16
999.708	499.32
1002.992	494.15
1006.275	471.59
1009.559	468.31
1012.842	451.36
1016.125	439.91
1019.408	431.11
1022.69	427.57
1025.972	418.72
1029.254	409.47
1032.536	402.88
1035.817	394.49
1039.098	389.23
1042.379	380.93
1045.659	376.36
1048.939	367.98
1052.219	362.32
1055.498	357.23
1058.778	347.75
1062.057	341.18
1065.335	337.27
1068.614	334.13
1071.892	330.58
1075.17	320.86
1078.447	316.85
1081.724	314.39
1085.001	310.61
1088.278	305.18
1091.554	298.81
1094.83	299.44
1098.106	296.69
1101.382	294.08
1104.657	291.39
1107.932	286.04
1111.206	288.26
1114.481	281.33
1117.755	278.52
1121.029	276.98
1124.302	275.72
1127.575	271.87
1130.848	268.56
1134.121	266.37
1137.393	265.38
1140.665	260.5
1143.937	258.74
1147.208	257.03
1150.48	256.35
1153.75	252.93
1157.021	249.91
1160.291	249.8
1163.561	247.54
1166.831	246.58
1170.101	244.4
1173.37	244.24
1176.639	244.61
1179.907	242.49
1183.176	239.64
1186.444	239.05
1189.711	239.29
1192.979	238.05
1196.246	237.01
1199.513	237.31
1202.78	236.98
1206.046	236.68
1209.312	233.84
1212.578	234.49
1215.843	236.18
1219.108	234.94
1222.373	239.78
1225.638	240.84
1228.902	244.62
1232.166	243.8
1235.43	246.13
1238.693	249.02
1241.956	250.69
1245.219	254.95
1248.482	254.63
1251.744	254.79
1255.006	256.92
1258.268	250.39
1261.529	248.61
1264.79	246.88
1268.051	246.07
1271.312	242.85
1274.572	240.07
1277.832	238.16
1281.092	234.25
1284.351	232.59
1287.61	233.22
1290.869	227.44
1294.128	226.73
1297.386	226.87
1300.644	224.64
1303.902	225.56
1307.159	224.64
1310.416	224.2
1313.673	223.28
1316.93	226.38
1320.186	225.89
1323.442	225.68
1326.697	230.78
1329.953	231.1
1333.208	231.59
1336.463	234.61
1339.717	234.29
1342.972	238.14
1346.226	239.73
1349.479	240.78
1352.733	240.94
1355.986	242.44
1359.238	242.68
1362.491	243.17
1365.743	245.68
1368.995	246.25
1372.247	244.19
1375.498	244.53
1378.749	244.21
1382	242.19
1385.251	243.39
1388.501	241.02
1391.751	241.26
1395	240.95
1398.25	239
1401.499	236.8
1404.748	235.77
1407.996	234.71
1411.244	233.87
1414.492	232.46
1417.74	230.07
1420.987	226.22
1424.234	226.6
1427.481	223.7
1430.728	222.99
1433.974	220.88
1437.22	219.25
1440.465	218.93
1443.711	216.74
1446.956	215.68
1450.201	213.33
1453.445	211.7
1456.689	210.95
1459.933	206.94
1463.177	205.3
1466.42	202.46
1469.663	200.67
1472.906	199.69
1476.148	194.54
1479.391	192.4
1482.633	190.58
1485.874	188.1
1489.115	187.02
1492.356	184.75
1495.597	185.5
1498.838	182.6
1502.078	181.55
1505.318	180.88
1508.557	181.05
1511.797	180.49
1515.036	179.83
1518.274	178.84
1521.513	177.94
1524.751	177.68
1527.989	177.62
1531.227	176.26
1534.464	177.41
1537.701	176.42
1540.938	175.88
1544.174	173.24
1547.41	173.83
1550.646	172.84
1553.882	172.78
1557.117	170.79
1560.352	169.58
1563.587	169.46
1566.821	168.6
1570.055	166.98
1573.289	165.64
1576.523	165.65
1579.756	164.52
1582.989	163.56
1586.222	163.68
1589.454	162.98
1592.686	163.68
1595.918	163.05
1599.15	162.18
1602.381	162.29
1605.612	162.31
1608.843	162.34
1612.073	162.26
1615.303	163.55
1618.533	164
1621.762	163.57
1624.992	163.87
1628.221	163.71
1631.449	164.06
1634.678	163.79
1637.906	164.49
1641.134	164.39
1644.361	164.36
1647.588	164.61
1650.815	164.04
1654.042	162.73
1657.269	163.68
1660.495	163.61
1663.72	163.62
1666.946	163.96
1670.171	164.49
1673.396	163.61
1676.621	163.73
1679.845	164.07
1683.069	164.09
1686.293	165.02
1689.517	165.94
1692.74	165.76
1695.963	166.8
1699.185	167.89
1702.408	167.9
1705.63	168.36
1708.852	169.19
1712.073	169.52
1715.294	169.91
1718.515	170.72
1721.736	170.32
1724.956	171.21
1728.176	170.94
1731.396	171.62
1734.616	170.72
1737.835	171.58
1741.054	170.6
1744.272	171.18
1747.491	172.61
1750.709	172.75
1753.927	172.49
1757.144	172.27
1760.361	172.26
1763.578	173.09
1766.795	172.46
1770.011	174.6
1773.227	173.9
1776.443	176.02
1779.658	176.54
1782.874	176.19
1786.089	176.67
1789.303	177.35
1792.518	179.7
1795.732	179.59
1798.945	180.78
1802.159	180.96
1805.372	180.5
1808.585	183.8
1811.797	184.07
1815.01	184.15
1818.222	185.44
1821.434	188.1
1824.645	187.89
1827.856	190.51
1831.067	192.04
1834.278	192.07
1837.488	193.53
1840.698	194.92
1843.908	193.46
1847.117	194.11
1850.326	196.31
1853.535	194.58
1856.744	196.18
1859.952	196.86
1863.16	195.12
1866.368	193.52
1869.575	194.56
1872.782	191.19
1875.989	190.66
1879.196	189.29
1882.402	187.54
1885.608	187.14
1888.814	187.53
1892.019	185.73
1895.224	184.34
1898.429	183.76
1901.634	184.22
1904.838	184.02
1908.042	185.81
1911.246	185.61
1914.449	186.43
1917.652	186.54
1920.855	186.2
1924.058	185.83
1927.26	185.2
1930.462	185.9
1933.664	187.29
1936.865	186.43
1940.066	185.69
1943.267	185.03
1946.467	185.49
1949.668	185.95
1952.868	188.61
1956.067	188.92
1959.267	189.38
1962.466	189.88
1965.665	189.08
1968.863	190.37
1972.061	192.51
1975.259	194.75
1978.457	196.19
1981.654	196.93
1984.852	198.2
1988.048	197.46
1991.245	199.49
1994.441	201.39
1997.637	202.72
2000.833	208.14
2004.028	209.62
2007.223	210.75
2010.418	213.19
2013.613	216.58
2016.807	219.61
2020.001	222.28
2023.194	225.69
2026.388	231.02
2029.581	236.46
2032.774	239.15
2035.966	242.28
2039.158	243.57
2042.35	248.43
2045.542	249.05
2048.733	253.1
2051.924	256.02
2055.115	259.44
2058.306	260.09
2061.496	260.98
2064.686	262.04
2067.875	266.37
2071.065	267.85
2074.254	265.34
2077.442	269.8
2080.631	271.85
2083.819	274.53
2087.007	275.44
2090.195	278.09
2093.382	280.35
2096.569	279.41
2099.756	282.98
2102.942	283.85
2106.128	285.27
2109.314	294.11
2112.5	292.32
2115.685	297.88
2118.87	298.1
2122.055	303.7
2125.239	306
2128.424	309.77
2131.608	312.76
2134.791	317.79
2137.974	318.23
2141.157	319.39
2144.34	318.88
2147.523	324.69
2150.705	322.53
2153.887	326.03
2157.068	326.42
2160.25	322.89
2163.431	324.29
2166.611	327.75
2169.792	332.26
2172.972	337.01
2176.152	340.08
2179.331	343.42
2182.511	347.83
2185.69	352.18
2188.868	357.68
2192.047	359.85
2195.225	371.26
2198.403	380.63
2201.58	386.59
2204.758	394.17
2207.935	401.2
2211.111	409.23
2214.288	414.34
2217.464	414.88
2220.64	420.74
2223.815	426.98
2226.991	443.26
2230.166	443.46
2233.34	450.28
2236.515	457.42
2239.689	459.66
2242.863	461.02
2246.036	472.45
2249.209	467.97
2252.382	477
2255.555	489.77
2258.727	492.06
2261.9	494.49
2265.071	498.91
2268.243	507.86
2271.414	514.57
2274.585	524.48
2277.756	530.59
2280.926	531.93
2284.096	546.99
2287.266	557.71
2290.436	562.48
2293.605	574.59
2296.774	593.39
2299.942	610.51
2303.111	611.53
2306.279	623.78
2309.447	631.72
2312.614	648.95
2315.781	671.21
2318.948	698.39
2322.115	686.42
2325.281	726.57
2328.447	713.25
2331.613	736.34
2334.779	730.77
2337.944	763.23
2341.109	770.54
2344.274	789.89
2347.438	820.25
2350.602	816.25
2353.766	843.68
2356.929	858.83
2360.092	850.18
2363.255	910.85
2366.418	910.02
2369.58	927.92
2372.742	984.61
2375.904	1010.17
2379.066	1006.77
2382.227	984.3
2385.388	1067.93
2388.548	1065.96
2391.709	1084.12
2394.869	1205.67
2398.029	1154.67
2401.188	1187.75
2404.347	1179.68
2407.506	1160.42
2410.665	1197.02
2413.823	1263.77
2416.981	1338.01
2420.139	1298.62
2423.296	1286.06
2426.453	1339.09
2429.61	1295.07
2432.767	1350.71
2435.923	1336.54
2439.079	1465.58
2442.235	1487.61
2445.391	1471.77
2448.546	1464.72
2451.701	1424.56
2454.855	1422.37
2458.009	1513.38
2461.163	1569.45
2464.317	1617.94
2467.471	1661.08
2470.624	1663.87
2473.777	1615.89
2476.929	1571.56
2480.082	1522.64
2483.234	1508.37
2486.385	1579.1
2489.537	1586.68
2492.688	1640.01
2495.839	1589.07
2498.989	1556.78
2502.14	1562.62
2505.29	1577.34
2508.439	1600.9
2511.589	1598.51
2514.738	1740.85
2517.887	1702.84
2521.035	1795.85
2524.183	1800.95
2527.331	1812.22
2530.479	1807.79
2533.627	1818.57
