Data from N_3_DIV_WI_4N_Splice17_13-52-46-096.txt Node
Date: Sat Mar 07 13:52:46 EST 2020
User: sa697716
Spectrometer: NQ5500242
Trigger mode: 0
Integration Time (sec): 1.450000E-1
Scans to average: 20
Nonlinearity correction enabled: false
Boxcar width: 5
Storing dark spectrum: false
XAxis mode: Wavelengths
Number of Pixels in Spectrum: 512
>>>>>Begin Spectral Data<<<<<
187.83	216.56
188.298	243.3
188.766	226.07
189.233	189.06
189.701	182.71
190.169	215.11
190.636	254.95
191.104	355.84
191.571	392.3
192.039	302.47
192.506	156.83
192.974	-4.55
193.441	137.75
193.908	73.21
194.375	90.76
194.842	25.52
195.31	108.56
195.777	284.41
196.244	40.64
196.711	31.99
197.177	33.97
197.644	32.69
198.111	32.16
198.578	31.4
199.045	31.47
199.511	31.23
199.978	30.83
200.445	30.75
200.911	30.8
201.378	30.79
201.844	30.86
202.31	30.32
202.777	30.17
203.243	30.05
203.709	30
204.176	29.54
204.642	29.46
205.108	29.72
205.574	29.51
206.04	28.84
206.506	28.7
206.972	28.45
207.438	28.16
207.903	27.76
208.369	27.05
208.835	26.45
209.301	25.99
209.766	25.01
210.232	24.19
210.697	23.12
211.163	22.68
211.628	21.81
212.094	21.1
212.559	20.65
213.024	20.17
213.49	19.76
213.955	19.24
214.42	18.76
214.885	18.28
215.35	17.29
215.815	16.64
216.28	15.17
216.745	13.82
217.21	12.52
217.675	11.23
218.14	10.13
218.604	9.16
219.069	8.36
219.534	7.73
219.998	7.13
220.463	6.73
220.927	6.25
221.392	5.98
221.856	5.71
222.32	5.47
222.785	5.31
223.249	5.13
223.713	4.99
224.177	4.86
224.642	4.71
225.106	4.58
225.57	4.45
226.034	4.39
226.497	4.29
226.961	4.19
227.425	4.09
227.889	4.01
228.353	3.92
228.816	3.85
229.28	3.77
229.744	3.71
230.207	3.65
230.671	3.59
231.134	3.51
231.597	3.48
232.061	3.43
232.524	3.39
232.987	3.33
233.45	3.32
233.914	3.27
234.377	3.23
234.84	3.19
235.303	3.17
235.766	3.15
236.229	3.11
236.691	3.07
237.154	3.04
237.617	3.02
238.08	3
238.542	2.95
239.005	2.92
239.468	2.9
239.93	2.87
240.393	2.85
240.855	2.81
241.317	2.8
241.78	2.78
242.242	2.74
242.704	2.72
243.166	2.69
243.629	2.68
244.091	2.66
244.553	2.64
245.015	2.61
245.477	2.58
245.939	2.56
246.4	2.53
246.862	2.51
247.324	2.5
247.786	2.48
248.247	2.46
248.709	2.43
249.17	2.4
249.632	2.38
250.093	2.37
250.555	2.37
251.016	2.36
251.477	2.34
251.939	2.34
252.4	2.32
252.861	2.31
253.322	2.29
253.783	2.28
254.244	2.28
254.705	2.26
255.166	2.24
255.627	2.22
256.088	2.21
256.549	2.2
257.009	2.18
257.47	2.16
257.931	2.14
258.391	2.12
258.852	2.11
259.312	2.09
259.773	2.08
260.233	2.08
260.694	2.06
261.154	2.05
261.614	2.04
262.074	2.02
262.534	2.01
262.994	2
263.455	2
263.915	1.99
264.374	1.97
264.834	1.97
265.294	1.95
265.754	1.94
266.214	1.93
266.673	1.92
267.133	1.92
267.593	1.91
268.052	1.91
268.512	1.91
268.971	1.9
269.431	1.9
269.89	1.89
270.349	1.89
270.809	1.88
271.268	1.88
271.727	1.88
272.186	1.88
272.645	1.87
273.104	1.86
273.563	1.86
274.022	1.85
274.481	1.86
274.94	1.86
275.399	1.85
275.857	1.85
276.316	1.84
276.775	1.84
277.233	1.84
277.692	1.83
278.15	1.83
278.609	1.83
279.067	1.83
279.525	1.83
279.984	1.83
280.442	1.83
280.9	1.83
281.358	1.83
281.816	1.83
282.274	1.82
282.732	1.82
283.19	1.82
283.648	1.81
284.106	1.81
284.564	1.81
285.021	1.81
285.479	1.8
285.937	1.79
286.394	1.79
286.852	1.78
287.309	1.78
287.767	1.77
288.224	1.77
288.682	1.76
289.139	1.75
289.596	1.73
290.053	1.72
290.511	1.72
290.968	1.72
291.425	1.71
291.882	1.7
292.339	1.7
292.796	1.69
293.252	1.68
293.709	1.68
294.166	1.68
294.623	1.69
295.079	1.68
295.536	1.68
295.992	1.68
296.449	1.67
296.905	1.67
297.362	1.67
297.818	1.66
298.274	1.66
298.731	1.66
299.187	1.65
299.643	1.64
300.099	1.64
300.555	1.63
301.011	1.62
301.467	1.62
301.923	1.61
302.379	1.61
302.835	1.62
303.291	1.62
303.746	1.62
304.202	1.63
304.658	1.63
305.113	1.63
305.569	1.63
306.024	1.64
306.479	1.63
306.935	1.63
307.39	1.63
307.845	1.63
308.301	1.63
308.756	1.63
309.211	1.63
309.666	1.64
310.121	1.64
310.576	1.64
311.031	1.64
311.486	1.65
311.94	1.65
312.395	1.65
312.85	1.65
313.305	1.65
313.759	1.65
314.214	1.65
314.668	1.64
315.123	1.64
315.577	1.64
316.032	1.64
316.486	1.64
316.94	1.64
317.394	1.63
317.849	1.63
318.303	1.63
318.757	1.62
319.211	1.62
319.665	1.61
320.119	1.6
320.572	1.6
321.026	1.6
321.48	1.59
321.934	1.58
322.387	1.58
322.841	1.57
323.295	1.58
323.748	1.57
324.202	1.57
324.655	1.57
325.108	1.58
325.562	1.59
326.015	1.59
326.468	1.59
326.921	1.59
327.374	1.59
327.827	1.59
328.28	1.59
328.733	1.59
329.186	1.59
329.639	1.58
330.092	1.58
330.545	1.58
330.997	1.58
331.45	1.57
331.903	1.58
332.355	1.59
332.808	1.58
333.26	1.58
333.713	1.58
334.165	1.58
334.617	1.58
335.069	1.57
335.522	1.57
335.974	1.57
336.426	1.57
336.878	1.57
337.33	1.57
337.782	1.57
338.234	1.58
338.686	1.58
339.137	1.59
339.589	1.58
340.041	1.58
340.493	1.57
340.944	1.56
341.396	1.56
341.847	1.56
342.299	1.55
342.75	1.55
343.201	1.54
343.653	1.53
344.104	1.52
344.555	1.52
345.006	1.51
345.457	1.52
345.908	1.52
346.359	1.52
346.81	1.52
347.261	1.51
347.712	1.5
348.163	1.5
348.613	1.5
349.064	1.5
349.515	1.5
349.965	1.5
350.416	1.49
350.866	1.49
351.317	1.48
351.767	1.48
352.217	1.49
352.668	1.5
353.118	1.49
353.568	1.5
354.018	1.5
354.468	1.51
354.918	1.51
355.368	1.51
355.818	1.51
356.268	1.52
356.718	1.52
357.168	1.51
357.617	1.5
358.067	1.5
358.517	1.51
358.966	1.5
359.416	1.5
359.865	1.5
360.315	1.5
360.764	1.51
361.213	1.51
361.663	1.51
362.112	1.51
362.561	1.52
363.01	1.52
363.459	1.5
363.908	1.5
364.357	1.51
364.806	1.51
365.255	1.51
365.703	1.51
366.152	1.52
366.601	1.52
367.05	1.53
367.498	1.53
367.947	1.55
368.395	1.56
368.844	1.56
369.292	1.57
369.74	1.58
370.189	1.58
370.637	1.59
371.085	1.59
371.533	1.59
371.981	1.6
372.429	1.61
372.877	1.62
373.325	1.63
373.773	1.64
374.221	1.64
374.669	1.66
375.116	1.67
375.564	1.68
376.012	1.7
376.459	1.71
376.907	1.73
377.354	1.74
377.801	1.77
378.249	1.79
378.696	1.82
379.143	1.84
379.591	1.85
380.038	1.87
380.485	1.9
380.932	1.92
381.379	1.95
381.826	1.97
382.273	1.99
382.72	2
383.166	2.03
383.613	2.05
384.06	2.08
384.506	2.11
384.953	2.14
385.4	2.16
385.846	2.19
386.292	2.21
386.739	2.23
387.185	2.26
387.631	2.3
388.078	2.32
388.524	2.35
388.97	2.37
389.416	2.4
389.862	2.43
390.308	2.46
390.754	2.5
391.2	2.53
391.645	2.56
392.091	2.6
392.537	2.63
392.983	2.65
393.428	2.68
393.874	2.71
394.319	2.75
394.765	2.77
395.21	2.79
395.655	2.8
396.101	2.84
396.546	2.87
396.991	2.9
397.436	2.93
397.881	2.97
398.326	3
398.771	3.03
399.216	3.05
399.661	3.08
400.106	3.11
400.551	3.13
400.995	3.15
401.44	3.17
401.885	3.18
402.329	3.19
402.774	3.2
403.218	3.23
403.663	3.24
404.107	3.26
404.551	3.27
404.995	3.27
405.44	3.27
405.884	3.28
406.328	3.29
406.772	3.29
407.216	3.31
407.66	3.32
408.104	3.31
408.547	3.31
408.991	3.32
409.435	3.33
409.879	3.34
410.322	3.36
410.766	3.38
411.209	3.4
411.653	3.42
412.096	3.43
412.54	3.44
412.983	3.45
413.426	3.49
413.869	3.5
414.312	3.51
414.756	3.53
415.199	3.53
415.642	3.54
416.085	3.55
416.527	3.55
416.97	3.52
417.413	3.53
417.856	3.52
418.298	3.51
418.741	3.51
419.184	3.49
419.626	3.48
420.069	3.49
420.511	3.49
420.953	3.48
421.396	3.49
421.838	3.5
422.28	3.52
422.722	3.53
423.164	3.52
423.606	3.52
424.048	3.54
424.49	3.55
424.932	3.53
425.374	3.5
425.816	3.46
426.258	3.43
426.699	3.41
427.141	3.39
427.582	3.4
428.024	3.4
428.465	3.41
428.907	3.39
429.348	3.38
429.789	3.4
430.231	3.43
430.672	3.48
431.113	3.53
431.554	3.55
431.995	3.59
432.436	3.59
432.877	3.62
433.318	3.64
433.759	3.67
434.2	3.7
434.64	3.72
435.081	3.74
435.522	3.76
435.962	3.77
436.403	3.8
436.843	3.81
437.284	3.81
437.724	3.81
438.164	3.81
438.604	3.82
439.045	3.84
439.485	3.86
439.925	3.87
440.365	3.88
440.805	3.88
441.245	3.9
441.685	3.92
442.125	3.95
442.564	3.98
443.004	3.99
443.444	4.02
443.883	4.04
444.323	4.04
444.762	4.05
445.202	4.07
445.641	4.1
446.081	4.12
446.52	4.15
446.959	4.19
447.398	4.23
447.837	4.25
448.276	4.27
448.716	4.28
449.154	4.32
449.593	4.36
450.032	4.38
450.471	4.37
450.91	4.36
451.349	4.38
451.787	4.37
452.226	4.34
452.664	4.34
453.103	4.34
453.541	4.33
453.98	4.33
454.418	4.3
454.856	4.3
455.295	4.29
455.733	4.28
456.171	4.27
456.609	4.27
457.047	4.26
457.485	4.25
457.923	4.25
458.361	4.24
458.798	4.24
459.236	4.25
459.674	4.24
460.111	4.25
460.549	4.25
460.987	4.26
461.424	4.27
461.862	4.27
462.299	4.28
462.736	4.3
463.173	4.31
463.611	4.32
464.048	4.33
464.485	4.34
464.922	4.36
465.359	4.37
465.796	4.39
466.233	4.41
466.67	4.44
467.106	4.46
467.543	4.47
467.98	4.49
468.416	4.49
468.853	4.51
469.29	4.53
469.726	4.54
470.162	4.57
470.599	4.56
471.035	4.56
471.471	4.56
471.907	4.56
472.344	4.57
472.78	4.58
473.216	4.58
473.652	4.59
474.088	4.58
474.523	4.59
474.959	4.59
475.395	4.58
475.831	4.59
476.266	4.6
476.702	4.59
477.138	4.6
477.573	4.61
478.008	4.61
478.444	4.6
478.879	4.6
479.314	4.59
479.75	4.6
480.185	4.58
480.62	4.57
481.055	4.54
481.49	4.52
481.925	4.48
482.36	4.45
482.795	4.43
483.229	4.41
483.664	4.4
484.099	4.39
484.534	4.38
484.968	4.38
485.403	4.38
485.837	4.41
486.271	4.43
486.706	4.46
487.14	4.47
487.574	4.5
488.009	4.52
488.443	4.53
488.877	4.56
489.311	4.59
489.745	4.61
490.179	4.65
490.613	4.68
491.046	4.71
491.48	4.74
491.914	4.79
492.348	4.83
492.781	4.88
493.215	4.93
493.648	4.97
494.082	5.02
494.515	5.07
494.948	5.11
495.382	5.16
495.815	5.21
496.248	5.27
496.681	5.32
497.114	5.39
497.547	5.45
497.98	5.51
498.413	5.58
498.846	5.66
499.279	5.75
499.711	5.82
500.144	5.91
500.577	6.01
501.009	6.1
501.442	6.21
501.874	6.32
502.306	6.43
502.739	6.57
503.171	6.68
503.603	6.8
504.036	6.93
504.468	7.06
504.9	7.19
505.332	7.33
505.764	7.47
506.196	7.62
506.627	7.77
507.059	7.93
507.491	8.08
507.923	8.25
508.354	8.42
508.786	8.59
509.217	8.77
509.649	8.95
510.08	9.12
510.512	9.3
510.943	9.49
511.374	9.68
511.805	9.86
512.237	10.02
512.668	10.2
513.099	10.36
513.53	10.53
513.961	10.73
514.391	10.93
514.822	11.15
515.253	11.36
515.684	11.58
516.114	11.8
516.545	12.04
516.975	12.29
517.406	12.54
517.836	12.8
518.267	13.06
518.697	13.29
519.127	13.52
519.558	13.75
519.988	14
520.418	14.22
520.848	14.44
521.278	14.66
521.708	15.07
522.138	15.25
522.567	15.42
522.997	15.59
523.427	15.77
523.857	15.96
524.286	16.13
524.716	16.3
525.145	16.49
525.575	16.65
526.004	16.82
526.433	16.77
526.863	16.96
527.292	17.15
527.721	17.3
528.15	17.44
528.579	17.56
529.008	17.67
529.437	17.76
529.866	17.84
530.295	17.94
530.724	18.04
531.152	18.14
531.581	18.23
532.01	18.31
532.438	18.4
532.867	18.48
533.295	18.56
533.723	18.64
534.152	18.71
534.58	18.77
535.008	18.82
535.436	18.86
535.865	18.86
536.293	18.87
536.721	18.9
537.149	18.94
537.576	18.98
538.004	19.02
538.432	19.06
538.86	19.09
539.287	19.12
539.715	19.17
540.143	19.21
540.57	19.28
540.998	19.33
541.425	19.38
541.852	19.42
542.28	19.47
542.707	19.51
543.134	19.54
543.561	19.58
543.988	19.61
544.415	19.64
544.842	19.69
545.269	19.71
545.696	19.74
546.123	19.78
546.549	19.82
546.976	19.86
547.403	19.9
547.829	19.94
548.256	19.96
548.682	19.99
549.108	20.03
549.535	20.05
549.961	20.07
550.387	20.1
550.813	20.12
551.24	20.13
551.666	20.12
552.092	20.12
552.518	20.11
552.943	20.11
553.369	20.1
553.795	20.06
554.221	20.03
554.646	19.99
555.072	19.94
555.498	19.89
555.923	19.84
556.349	19.79
556.774	19.73
557.199	19.68
557.625	19.62
558.05	19.57
558.475	19.52
558.9	19.46
559.325	19.41
559.75	19.35
560.175	19.29
560.6	19.21
561.025	19.14
561.449	19.06
561.874	18.96
562.299	18.88
562.723	18.78
563.148	18.68
563.572	18.58
563.997	18.47
564.421	18.35
564.846	18.23
565.27	18.13
565.694	18.02
566.118	17.88
566.542	17.77
566.966	17.64
567.39	17.53
567.814	17.4
568.238	17.28
568.662	17.18
569.086	17.09
569.509	16.99
569.933	16.9
570.357	16.8
570.78	16.7
571.204	16.6
571.627	16.52
572.05	16.42
572.474	16.35
572.897	16.26
573.32	16.16
573.743	16.05
574.166	15.95
574.589	15.85
575.012	15.77
575.435	15.69
575.858	15.62
576.281	15.55
576.704	15.49
577.126	15.43
577.549	15.35
577.972	15.29
578.394	15.24
578.817	15.19
579.239	15.15
579.661	15.1
580.084	15.07
580.506	15.03
580.928	14.97
581.35	14.92
581.772	14.85
582.194	14.79
582.616	14.74
583.038	14.68
583.46	14.62
583.882	14.55
584.303	14.47
584.725	14.37
585.147	14.3
585.568	14.23
585.99	14.15
586.411	14.1
586.833	14.05
587.254	14
587.675	13.94
588.096	13.88
588.518	13.84
588.939	13.83
589.36	13.8
589.781	13.76
590.202	13.76
590.623	13.73
591.043	13.7
591.464	13.68
591.885	13.65
592.305	13.63
592.726	13.61
593.147	13.58
593.567	13.53
593.987	13.51
594.408	13.47
594.828	13.42
595.248	13.4
595.669	13.37
596.089	13.35
596.509	13.31
596.929	13.27
597.349	13.24
597.769	13.2
598.189	13.16
598.608	13.12
599.028	13.12
599.448	13.08
599.867	13.04
600.287	13.01
600.706	12.98
601.126	12.95
601.545	12.92
601.965	12.89
602.384	12.86
602.803	12.83
603.222	12.8
603.641	12.75
604.061	12.71
604.48	12.67
604.898	12.6
605.317	12.56
605.736	12.51
606.155	12.45
606.574	12.39
606.992	12.32
607.411	12.26
607.829	12.18
608.248	12.11
608.666	12.05
609.085	11.98
609.503	11.92
609.921	11.85
610.339	11.79
610.758	11.73
611.176	11.66
611.594	11.6
612.012	11.53
612.43	11.48
612.847	11.41
613.265	11.35
613.683	11.3
614.101	11.24
614.518	11.18
614.936	11.13
615.353	11.06
615.771	11.01
616.188	10.96
616.606	10.91
617.023	10.88
617.44	10.85
617.857	10.81
618.274	10.75
618.691	10.7
619.108	10.66
619.525	10.62
619.942	10.58
620.359	10.54
620.776	10.51
621.192	10.47
621.609	10.44
622.026	10.39
622.442	10.36
622.859	10.34
623.275	10.31
623.691	10.29
624.108	10.27
624.524	10.24
624.94	10.22
625.356	10.2
625.772	10.19
626.188	10.18
626.604	10.17
627.02	10.15
627.436	10.14
627.852	10.14
628.268	10.12
628.683	10.1
629.099	10.1
629.514	10.08
629.93	10.07
630.345	10.04
630.761	10.01
631.176	9.99
631.591	9.96
632.007	9.92
632.422	9.87
632.837	9.83
633.252	9.79
633.667	9.74
634.082	9.69
634.497	9.64
634.911	9.59
635.326	9.52
635.741	9.44
636.155	9.36
636.57	9.3
636.984	9.22
637.399	9.14
637.813	9.05
638.228	8.95
638.642	8.85
639.056	8.74
639.47	8.65
639.884	8.55
640.298	8.46
640.712	8.37
641.126	8.28
641.54	8.18
641.954	8.08
642.368	7.98
642.781	7.9
643.195	7.8
643.609	7.71
644.022	7.62
644.436	7.55
644.849	7.46
645.262	7.36
645.676	7.27
646.089	7.2
646.502	7.13
646.915	7.06
647.328	7
647.741	6.95
648.154	6.9
648.567	6.86
648.98	6.81
649.393	6.78
649.805	6.76
650.218	6.73
650.631	6.69
651.043	6.65
651.456	6.61
651.868	6.55
652.28	6.5
652.693	6.44
653.105	6.38
653.517	6.32
653.929	6.27
654.341	6.21
654.753	6.16
655.165	6.11
655.577	6.07
655.989	6.02
656.401	5.98
656.813	5.95
657.224	5.9
657.636	5.84
658.047	5.79
658.459	5.72
658.87	5.66
659.282	5.58
659.693	5.5
660.104	5.42
660.515	5.35
660.926	5.27
661.338	5.18
661.749	5.11
662.159	5.04
662.57	4.97
662.981	4.9
663.392	4.83
663.803	4.77
664.213	4.71
664.624	4.65
665.035	4.59
665.445	4.54
665.855	4.49
666.266	4.45
666.676	4.41
667.086	4.35
667.497	4.31
667.907	4.28
668.317	4.24
668.727	4.21
669.137	4.19
669.547	4.16
669.956	4.13
670.366	4.11
670.776	4.08
671.186	4.06
671.595	4.05
672.005	4.04
672.414	4.02
672.824	4.01
673.233	4.01
673.642	4
674.052	4
674.461	4
674.87	4.01
675.279	4.03
675.688	4.03
676.097	4.05
676.506	4.06
676.915	4.08
677.323	4.1
677.732	4.12
678.141	4.15
678.549	4.18
678.958	4.22
679.366	4.27
679.775	4.31
680.183	4.37
680.592	4.44
681	4.52
681.408	4.61
681.816	4.69
682.224	4.8
682.632	4.9
683.04	5
683.448	5.12
683.856	5.23
684.264	5.38
684.671	5.53
685.079	5.69
685.487	5.88
685.894	6.08
686.302	6.31
686.709	6.55
687.116	6.83
687.524	7.13
687.931	7.43
688.338	7.76
688.745	8.09
689.152	8.44
689.559	8.81
689.966	9.19
690.373	9.57
690.78	9.95
691.187	10.33
691.593	10.72
692	11.1
692.407	11.5
692.813	11.9
693.22	12.29
693.626	12.68
694.032	13.08
694.439	13.48
694.845	13.88
695.251	14.26
695.657	14.65
696.063	15.04
696.469	15.43
696.875	15.82
697.281	16.18
697.687	16.55
698.093	16.92
698.498	17.26
698.904	17.6
699.31	17.94
699.715	18.27
700.12	18.59
700.526	18.91
700.931	19.24
701.337	19.54
701.742	19.84
702.147	20.15
702.552	20.43
702.957	20.71
703.362	20.99
703.767	21.26
704.172	21.53
704.577	21.78
704.981	22.04
705.386	22.29
705.791	22.53
706.195	22.76
706.6	23
707.004	23.22
707.408	23.44
707.813	23.68
708.217	23.89
708.621	24.1
709.025	24.32
709.43	24.51
709.834	24.68
710.237	24.85
710.641	25.04
711.045	25.21
711.449	25.41
711.853	25.61
712.256	25.76
712.66	25.9
713.064	26.04
713.467	26.17
713.87	26.3
714.274	26.41
714.677	26.52
715.08	26.62
715.484	26.74
715.887	26.83
716.29	26.88
716.693	27
717.096	27.12
717.499	27.26
717.901	27.41
718.304	27.58
718.707	27.75
719.109	27.91
719.512	28.05
719.915	28.18
720.317	28.31
720.719	28.43
721.122	28.54
721.524	28.64
721.926	28.74
722.328	28.83
722.731	28.89
723.133	28.96
723.535	29.03
723.937	29.12
724.338	29.21
724.74	29.29
725.142	29.53
725.544	29.61
725.945	29.73
726.347	29.78
726.748	29.85
727.15	29.92
727.551	30.02
727.952	30.07
728.354	30.13
728.755	30.18
729.156	30.25
729.557	30.22
729.958	30.29
730.359	30.32
730.76	30.42
731.161	30.47
731.562	30.56
731.962	30.59
732.363	30.68
732.763	30.74
733.164	30.8
733.564	30.85
733.965	30.88
734.365	30.92
734.766	30.94
735.166	30.98
735.566	31.01
735.966	31.02
736.366	31.06
736.766	31.08
737.166	31.12
737.566	31.14
737.966	31.16
738.365	31.17
738.765	31.21
739.165	31.24
739.564	31.26
739.964	31.29
740.363	31.32
740.763	31.35
741.162	31.38
741.561	31.39
741.96	31.4
742.36	31.4
742.759	31.41
743.158	31.41
743.557	31.42
743.955	31.43
744.354	31.43
744.753	31.43
745.152	31.46
745.55	31.44
745.949	31.47
746.348	31.49
746.746	31.5
747.144	31.51
747.543	31.51
747.941	31.51
748.339	31.52
748.737	31.54
749.136	31.53
749.534	31.5
749.932	31.51
750.33	31.52
750.727	31.53
751.125	31.54
751.523	31.54
751.921	31.56
752.318	31.58
752.716	31.58
753.113	31.57
753.511	31.56
753.908	31.59
754.305	31.6
754.703	31.55
755.1	31.47
755.497	31.32
755.894	31.11
756.291	30.87
756.688	30.57
757.085	30.3
757.482	30.08
757.878	29.87
758.275	29.67
758.672	29.46
759.068	29.27
759.465	29.1
759.861	29.03
760.258	29.06
760.654	29.12
761.05	29.26
761.447	29.38
761.843	29.47
762.239	29.59
762.635	29.69
763.031	29.82
763.427	29.99
763.822	30.17
764.218	30.36
764.614	30.53
765.01	30.68
765.405	30.81
765.801	30.92
766.196	31.05
766.592	31.13
766.987	31.22
767.382	31.29
767.778	31.35
768.173	31.4
768.568	31.42
768.963	31.44
769.358	31.47
769.753	31.49
770.148	31.51
770.542	31.52
770.937	31.55
771.332	31.55
771.726	31.56
772.121	31.55
772.515	31.55
772.91	31.53
773.304	31.53
773.699	31.51
774.093	31.49
774.487	31.49
774.881	31.48
775.275	31.45
775.669	31.43
776.063	31.41
776.457	31.4
776.851	31.36
777.245	31.34
777.638	31.31
778.032	31.32
778.425	31.34
778.819	31.33
779.212	31.33
779.606	31.32
779.999	31.32
780.392	31.35
780.786	31.36
781.179	31.39
781.572	31.41
781.965	31.43
782.358	31.42
782.751	31.4
783.143	31.39
783.536	31.35
783.929	31.34
784.322	31.33
784.714	31.28
785.107	31.25
785.499	31.24
785.891	31.23
786.284	31.21
786.676	31.18
787.068	31.15
787.46	31.14
787.852	31.12
788.245	31.11
788.636	31.06
789.028	31.04
789.42	31.01
789.812	30.98
790.204	30.95
790.595	30.93
790.987	30.91
791.378	30.92
791.77	30.9
792.161	30.89
792.553	30.87
792.944	30.88
793.335	30.88
793.726	30.88
794.117	30.87
794.508	30.84
794.899	30.82
795.29	30.81
795.681	30.77
796.072	30.77
796.463	30.81
796.853	30.78
797.244	30.75
797.634	30.73
798.025	30.71
798.415	30.69
798.806	30.68
799.196	30.67
799.586	30.66
799.976	30.65
800.366	30.63
800.756	30.57
801.146	30.57
801.536	30.54
801.926	30.53
802.316	30.52
802.706	30.53
803.095	30.53
803.485	30.51
803.874	30.5
804.264	30.51
804.653	30.46
805.043	30.44
805.432	30.4
805.821	30.39
806.21	30.36
806.599	30.35
806.988	30.31
807.377	30.27
807.766	30.25
808.155	30.2
808.544	30.15
808.933	30.14
809.321	30.12
809.71	30.1
810.098	30.04
810.487	29.99
810.875	29.93
811.264	29.87
811.652	29.83
812.04	29.77
812.428	29.75
812.816	29.69
813.204	29.63
813.592	29.57
813.98	29.54
814.368	29.52
814.756	29.49
815.144	29.46
815.531	29.45
815.919	29.43
816.306	29.43
816.694	29.4
817.081	29.41
817.469	29.41
817.856	29.41
818.243	29.39
818.63	29.36
819.017	29.34
819.404	29.32
819.791	29.29
820.178	29.25
820.565	29.23
820.952	29.23
821.339	29.2
821.725	29.18
822.112	29.18
822.498	29.2
822.885	29.22
823.271	29.21
823.657	29.19
824.044	29.19
824.43	29.21
824.816	29.19
825.202	29.15
825.588	29.16
825.974	29.13
826.36	29.11
826.746	29.08
827.132	29.06
827.517	29.04
827.903	29.06
828.289	29.06
828.674	29.04
829.06	29.02
829.445	29.02
829.83	28.98
830.216	28.97
830.601	28.96
830.986	28.96
831.371	28.95
831.756	28.96
832.141	28.93
832.526	28.92
832.911	28.92
833.295	28.92
833.68	28.91
834.065	28.89
834.449	28.89
834.834	28.86
835.218	28.85
835.603	28.82
835.987	28.81
836.371	28.79
836.755	28.78
837.139	28.75
837.524	28.74
837.908	28.75
838.291	28.77
838.675	28.74
839.059	28.75
839.443	28.73
839.827	28.71
840.21	28.69
840.594	28.68
840.977	28.66
841.361	28.67
841.744	28.62
842.127	28.58
842.511	28.56
842.894	28.56
843.277	28.57
843.66	28.55
844.043	28.56
844.426	28.55
844.809	28.55
845.191	28.56
845.574	28.56
845.957	28.58
846.339	28.58
846.722	28.58
847.104	28.58
847.487	28.55
847.869	28.53
848.252	28.52
848.634	28.52
849.016	28.49
849.398	28.47
849.78	28.45
850.162	28.43
850.544	28.42
850.926	28.39
851.307	28.37
851.689	28.37
852.071	28.38
852.452	28.37
852.834	28.37
853.215	28.37
853.597	28.37
853.978	28.36
854.359	28.38
854.741	28.38
855.122	28.4
855.503	28.4
855.884	28.4
856.265	28.4
856.646	28.38
857.026	28.38
857.407	28.39
857.788	28.36
858.169	28.36
858.549	28.34
858.93	28.34
859.31	28.34
859.69	28.34
860.071	28.33
860.451	28.35
860.831	28.35
861.211	28.32
861.591	28.3
861.971	28.29
862.351	28.28
862.731	28.28
863.111	28.28
863.491	28.27
863.87	28.24
864.25	28.21
864.629	28.21
865.009	28.21
865.388	28.21
865.768	28.22
866.147	28.25
866.526	28.25
866.905	28.27
867.284	28.26
867.663	28.25
868.042	28.26
868.421	28.28
868.8	28.27
869.179	28.26
869.558	28.27
869.936	28.26
870.315	28.23
870.693	28.23
871.072	28.21
871.45	28.2
871.828	28.2
872.207	28.23
872.585	28.23
872.963	28.21
873.341	28.2
873.719	28.22
874.097	28.22
874.475	28.23
874.853	28.23
875.23	28.25
875.608	28.25
875.986	28.25
876.363	28.25
876.741	28.24
877.118	28.26
877.495	28.28
877.873	28.27
878.25	28.28
878.627	28.28
879.004	28.28
879.381	28.28
879.758	28.27
880.135	28.27
880.512	28.24
880.889	28.23
881.265	28.2
881.642	28.19
882.019	28.19
882.395	28.15
882.772	28.15
883.148	28.13
883.524	28.11
883.901	28.11
884.277	28.08
884.653	28.06
885.029	28.06
885.405	28.08
885.781	28.06
886.157	28.06
886.532	28.07
886.908	28.05
887.284	28.05
887.659	28.04
888.035	28.03
888.411	28.05
888.786	28.06
889.161	28.06
889.537	28.03
889.912	28.02
890.287	28.02
890.662	28
891.037	28
891.412	27.99
891.787	27.98
892.162	27.97
892.536	27.95
892.911	27.94
893.286	27.92
893.66	27.92
894.035	27.92
894.409	27.9
894.784	27.91
895.158	27.88
895.532	27.88
895.906	27.88
896.281	27.86
896.655	27.87
897.029	27.87
897.402	27.87
897.776	27.86
898.15	27.85
898.524	27.87
898.898	27.85
899.271	27.85
899.645	27.85
900.018	27.86
900.392	27.88
900.765	27.89
901.138	27.89
901.511	27.88
901.884	27.89
902.258	27.9
902.631	27.91
903.003	27.93
903.376	27.94
903.749	27.92
904.122	27.92
904.495	27.9
904.867	27.89
905.24	27.91
905.612	27.92
905.985	27.91
906.357	27.88
906.729	27.88
907.102	27.86
907.474	27.88
907.846	27.89
908.218	27.89
908.59	27.91
908.962	27.9
909.334	27.89
909.705	27.89
910.077	27.89
910.449	27.9
910.82	27.89
911.192	27.9
911.563	27.89
911.935	27.87
912.306	27.88
912.677	27.88
913.048	27.9
913.419	27.9
913.79	27.9
914.161	27.89
914.532	27.91
914.903	27.92
915.274	27.93
915.645	27.94
916.015	27.94
916.386	27.93
916.756	27.92
917.127	27.9
917.497	27.91
917.868	27.92
918.238	27.9
918.608	27.91
918.978	27.87
919.348	27.87
919.718	27.86
920.088	27.87
920.458	27.88
920.828	27.9
921.198	27.91
921.567	27.87
921.937	27.86
922.306	27.85
922.676	27.84
923.045	27.85
923.415	27.85
923.784	27.86
924.153	27.88
924.522	27.89
924.891	27.88
925.26	27.87
925.629	27.9
925.998	27.9
926.367	27.92
926.736	27.95
927.104	27.94
927.473	27.92
927.842	27.87
928.21	27.85
928.578	27.83
928.947	27.85
929.315	27.84
929.683	27.82
930.051	27.8
930.42	27.78
930.788	27.74
931.156	27.72
931.523	27.74
931.891	27.79
932.259	27.79
932.627	27.78
932.994	27.73
933.362	27.73
933.729	27.75
934.097	27.78
934.464	27.81
934.831	27.82
935.199	27.84
935.566	27.86
935.933	27.78
936.3	27.78
936.667	27.75
937.034	27.82
937.401	27.81
937.767	27.79
938.134	27.78
938.501	27.76
938.867	27.77
939.234	27.75
939.6	27.7
939.967	27.73
940.333	27.71
940.699	27.74
941.065	27.69
941.431	27.72
941.798	27.73
942.163	27.69
942.529	27.65
942.895	27.66
943.261	27.65
943.627	27.69
943.992	27.69
944.358	27.69
944.723	27.7
945.089	27.62
945.454	27.64
945.82	27.64
946.185	27.71
946.55	27.7
946.915	27.66
947.28	27.67
947.645	27.67
948.01	27.67
948.375	27.7
948.74	27.66
949.104	27.71
949.469	27.66
949.834	27.62
950.198	27.57
950.562	27.54
950.927	27.53
951.291	27.51
951.655	27.45
952.02	27.43
952.384	27.39
952.748	27.41
953.112	27.42
953.476	27.41
953.839	27.41
954.203	27.4
954.567	27.42
954.931	27.41
955.294	27.42
955.658	27.49
956.021	27.5
956.385	27.48
956.748	27.46
957.111	27.43
957.474	27.42
957.837	27.37
958.2	27.33
958.563	27.26
958.926	27.25
959.289	27.2
959.652	27.14
960.015	27.13
960.377	27.12
960.74	27.13
961.102	27.13
961.465	27.15
961.827	27.23
962.189	27.27
962.552	27.3
962.914	27.34
963.276	27.38
963.638	27.39
964	27.36
964.362	27.35
964.724	27.33
965.085	27.31
965.447	27.28
965.809	27.24
966.17	27.22
966.532	27.22
966.893	27.22
967.255	27.2
967.616	27.21
967.977	27.25
968.338	27.26
968.699	27.24
969.061	27.25
969.421	27.24
969.782	27.26
970.143	27.25
970.504	27.3
970.865	27.33
971.225	27.31
971.586	27.32
971.946	27.33
972.307	27.31
972.667	27.35
973.027	27.37
973.388	27.41
973.748	27.38
974.108	27.46
974.468	27.38
974.828	27.43
975.188	27.45
975.548	27.38
975.907	27.34
976.267	27.38
976.627	27.37
976.986	27.29
977.346	27.26
977.705	27.24
978.064	27.2
978.424	27.26
978.783	27.13
979.142	27.1
979.501	27.18
979.86	27.24
980.219	27.21
980.578	27.25
980.937	27.31
981.296	27.34
981.654	27.34
982.013	27.36
982.371	27.34
982.73	27.41
983.088	27.41
983.447	27.4
983.805	27.38
984.163	27.34
984.521	27.34
984.879	27.35
985.237	27.33
985.595	27.43
985.953	27.36
986.311	27.38
986.669	27.38
987.026	27.42
987.384	27.42
987.741	27.44
988.099	27.6
988.456	27.53
988.814	27.56
989.171	27.57
989.528	27.46
989.885	27.4
990.242	27.35
990.599	27.32
990.956	27.27
991.313	27.29
991.67	27.24
992.027	27.3
992.383	27.39
992.74	27.43
993.096	27.4
993.453	27.47
993.809	27.53
994.165	27.61
994.522	27.74
994.878	27.77
995.234	27.85
995.59	27.9
995.946	27.79
996.302	27.78
996.658	27.77
997.013	27.83
997.369	27.82
997.725	27.94
998.08	27.96
998.436	27.88
998.791	27.94
999.147	27.82
999.502	27.9
999.857	27.88
1000.212	27.85
1000.567	27.85
1000.922	27.79
1001.277	27.73
1001.632	27.55
1001.987	27.6
1002.342	27.59
1002.696	27.54
1003.051	27.67
1003.406	27.61
1003.76	27.57
1004.114	27.64
1004.469	27.67
1004.823	27.93
1005.177	28.05
1005.531	28.26
1005.885	28.18
1006.239	28.28
1006.593	28.5
1006.947	28.45
1007.301	28.37
1007.655	28.35
1008.008	28.31
1008.362	28.38
1008.715	28.18
1009.069	28.13
1009.422	28.17
1009.776	28.22
1010.129	28.1
1010.482	28.05
1010.835	28.1
1011.188	28.31
1011.541	28.39
1011.894	28.46
1012.247	28.33
1012.6	28.42
1012.952	28.37
1013.305	28.32
1013.657	28.31
1014.01	28.35
1014.362	28.15
1014.715	28.17
1015.067	28.04
1015.419	28.14
1015.771	28.09
1016.123	28.19
1016.475	28.16
1016.827	28.45
1017.179	28.67
1017.531	28.66
1017.883	28.57
1018.234	28.93
1018.586	29.06
1018.938	29.26
1019.289	29.24
1019.64	29.21
1019.992	29.33
1020.343	29.37
1020.694	29.19
1021.045	29.05
1021.396	29.06
1021.747	29.28
1022.098	29.24
1022.449	28.99
1022.8	28.94
1023.151	29.11
1023.501	29.3
1023.852	29.2
1024.202	29.2
1024.553	29.2
1024.903	29.27
1025.253	29.59
1025.604	29.76
1025.954	29.65
1026.304	29.68
1026.654	29.67
1027.004	29.53
1027.354	29.6
1027.703	29.22
1028.053	29.26
1028.403	29.4
1028.753	29.18
1029.102	29.26
1029.452	29.29
1029.801	29.53
1030.15	29.55
1030.499	29.48
897.758	1800.3
901.051	1802.01
904.343	1798.37
907.636	1828.54
910.928	1783.37
914.22	1775.8
917.511	1754.5
920.803	1675.84
924.094	1667.17
927.384	1628.79
930.675	1554.39
933.965	1543.85
937.255	1456.47
940.544	1395.3
943.834	1326.1
947.123	1310.92
950.411	1235.74
953.7	1207.37
956.988	1142.23
960.276	1093.48
963.563	1078.63
966.851	1041.54
970.138	1031.54
973.424	996.32
976.711	1002.08
979.997	951.66
983.283	948.67
986.568	928.71
989.853	898.62
993.138	885.15
996.423	851.83
999.708	825.84
1002.992	817.33
1006.275	779.82
1009.559	771.96
1012.842	745.26
1016.125	724.55
1019.408	710.39
1022.69	700.2
1025.972	688.22
1029.254	669.13
1032.536	658
1035.817	644.19
1039.098	634.28
1042.379	621.04
1045.659	615.31
1048.939	597.35
1052.219	587.37
1055.498	576.98
1058.778	564.74
1062.057	549.26
1065.335	543.24
1068.614	536.82
1071.892	531.32
1075.17	513.74
1078.447	503.69
1081.724	500.61
1085.001	497.76
1088.278	485.76
1091.554	477
1094.83	476.53
1098.106	474.47
1101.382	469.5
1104.657	465.58
1107.932	457.62
1111.206	460.32
1114.481	448.9
1117.755	443.85
1121.029	440.33
1124.302	440.82
1127.575	431.91
1130.848	426.16
1134.121	421.45
1137.393	420.23
1140.665	411.47
1143.937	409.34
1147.208	404.75
1150.48	404.93
1153.75	398.77
1157.021	392.92
1160.291	392.58
1163.561	388.31
1166.831	388.12
1170.101	385.51
1173.37	383.47
1176.639	384.81
1179.907	380.93
1183.176	377.94
1186.444	377.03
1189.711	377.1
1192.979	375.93
1196.246	372.61
1199.513	374.54
1202.78	372.67
1206.046	372.26
1209.312	367.72
1212.578	368.28
1215.843	371.42
1219.108	369.15
1222.373	377.01
1225.638	379.86
1228.902	386.29
1232.166	386.45
1235.43	389.55
1238.693	395.3
1241.956	396.89
1245.219	405.42
1248.482	403.63
1251.744	403.37
1255.006	405.13
1258.268	394.31
1261.529	390.06
1264.79	386.8
1268.051	385.64
1271.312	379.92
1274.572	374.49
1277.832	371.25
1281.092	364.71
1284.351	362.71
1287.61	362.32
1290.869	356.64
1294.128	355.11
1297.386	354.63
1300.644	349.99
1303.902	351.38
1307.159	349.72
1310.416	350.48
1313.673	350.07
1316.93	353.21
1320.186	353.81
1323.442	355.06
1326.697	361.62
1329.953	361.88
1333.208	364.57
1336.463	368.84
1339.717	369.12
1342.972	373.51
1346.226	376.17
1349.479	376.66
1352.733	379.32
1355.986	380.29
1359.238	380.53
1362.491	383.01
1365.743	387.24
1368.995	386.89
1372.247	385.54
1375.498	386.15
1378.749	390.86
1382	384.9
1385.251	388.25
1388.501	385.01
1391.751	388.16
1395	385.82
1398.25	383.25
1401.499	380.99
1404.748	380.6
1407.996	378.44
1411.244	376.05
1414.492	374.04
1417.74	372.29
1420.987	365.52
1424.234	366.75
1427.481	360.75
1430.728	361.2
1433.974	356.26
1437.22	353.87
1440.465	352.51
1443.711	350.32
1446.956	349.1
1450.201	343.39
1453.445	340.52
1456.689	339.67
1459.933	332.96
1463.177	330.7
1466.42	325.55
1469.663	321.96
1472.906	320.47
1476.148	311.78
1479.391	307.08
1482.633	303.73
1485.874	299.4
1489.115	297.75
1492.356	293.3
1495.597	292.97
1498.838	288.18
1502.078	285.83
1505.318	284.42
1508.557	283.94
1511.797	284.55
1515.036	282.65
1518.274	282.18
1521.513	279.15
1524.751	278.73
1527.989	278.05
1531.227	276.55
1534.464	278.15
1537.701	275.72
1540.938	275.01
1544.174	271.42
1547.41	270.42
1550.646	269.35
1553.882	268.98
1557.117	266.13
1560.352	263.73
1563.587	263.07
1566.821	261.2
1570.055	257.59
1573.289	255.96
1576.523	255.79
1579.756	253.79
1582.989	252.31
1586.222	252.37
1589.454	250.61
1592.686	251.98
1595.918	251.46
1599.15	250.53
1602.381	250.39
1605.612	250.55
1608.843	251.71
1612.073	250.89
1615.303	252.58
1618.533	253.19
1621.762	251.81
1624.992	251.71
1628.221	251.89
1631.449	251.18
1634.678	251.21
1637.906	252.94
1641.134	252.32
1644.361	251.58
1647.588	252.77
1650.815	250.95
1654.042	249.44
1657.269	251.93
1660.495	251.95
1663.72	250.06
1666.946	251.07
1670.171	251.08
1673.396	250.22
1676.621	250.72
1679.845	251.37
1683.069	250.96
1686.293	253.18
1689.517	254.42
1692.74	253.23
1695.963	254.65
1699.185	258.44
1702.408	258.94
1705.63	259.64
1708.852	261.01
1712.073	262.18
1715.294	262.26
1718.515	263.94
1721.736	263.64
1724.956	264.49
1728.176	264.73
1731.396	267.21
1734.616	265.91
1737.835	266.73
1741.054	264.71
1744.272	265.62
1747.491	267.39
1750.709	268.94
1753.927	268.82
1757.144	267.32
1760.361	269.19
1763.578	269.4
1766.795	268.49
1770.011	270.24
1773.227	270.69
1776.443	274.55
1779.658	275.75
1782.874	275.15
1786.089	275.39
1789.303	276.45
1792.518	280.23
1795.732	279.15
1798.945	283.22
1802.159	283.06
1805.372	283.97
1808.585	288.9
1811.797	290.11
1815.01	290.08
1818.222	292.59
1821.434	294.5
1824.645	296.12
1827.856	301.25
1831.067	305.16
1834.278	301.83
1837.488	304.98
1840.698	307.52
1843.908	304.1
1847.117	306.02
1850.326	307.98
1853.535	306.96
1856.744	312.57
1859.952	311.34
1863.16	310.21
1866.368	307.15
1869.575	313.22
1872.782	307.83
1875.989	305.95
1879.196	306.25
1882.402	304.49
1885.608	305.71
1888.814	307.12
1892.019	305.63
1895.224	305.53
1898.429	303.63
1901.634	306.44
1904.838	305.21
1908.042	310.11
1911.246	311.71
1914.449	312.7
1917.652	313.05
1920.855	312.95
1924.058	312.02
1927.26	310.72
1930.462	312.79
1933.664	316.31
1936.865	313.45
1940.066	314.65
1943.267	311.75
1946.467	311.91
1949.668	314.21
1952.868	318.17
1956.067	318
1959.267	318.24
1962.466	319.35
1965.665	317.12
1968.863	317.97
1972.061	321.98
1975.259	324.75
1978.457	326.82
1981.654	329.33
1984.852	330.07
1988.048	328.41
1991.245	331.05
1994.441	336.5
1997.637	338
2000.833	344.65
2004.028	349.34
2007.223	351.28
2010.418	355.3
2013.613	361.69
2016.807	365.72
2020.001	368.23
2023.194	373.94
2026.388	382.67
2029.581	390.12
2032.774	394.31
2035.966	401.91
2039.158	402.85
2042.35	411.67
2045.542	412.09
2048.733	418.77
2051.924	424.86
2055.115	431.61
2058.306	432.46
2061.496	437.95
2064.686	438.25
2067.875	445.62
2071.065	446.5
2074.254	444.19
2077.442	448.61
2080.631	451.7
2083.819	456.2
2087.007	453.97
2090.195	460.89
2093.382	464.46
2096.569	460.15
2099.756	467.74
2102.942	468.85
2106.128	474.51
2109.314	486.39
2112.5	484.75
2115.685	494.08
2118.87	494.63
2122.055	506.69
2125.239	509.17
2128.424	516.34
2131.608	520.06
2134.791	525.54
2137.974	529.06
2141.157	529.97
2144.34	528.84
2147.523	538.87
2150.705	536.07
2153.887	539.47
2157.068	541.12
2160.25	536.44
2163.431	537.91
2166.611	544.04
2169.792	555.73
2172.972	560.95
2176.152	563.89
2179.331	572.47
2182.511	581.42
2185.69	589.67
2188.868	602.63
2192.047	603.28
2195.225	619.62
2198.403	637.21
2201.58	648.05
2204.758	660.14
2207.935	673.34
2211.111	688.31
2214.288	696.09
2217.464	697.75
2220.64	706
2223.815	718.12
2226.991	748.29
2230.166	751.21
2233.34	762.97
2236.515	776.59
2239.689	776.68
2242.863	782.4
2246.036	804.53
2249.209	794.21
2252.382	807.86
2255.555	834.06
2258.727	834.69
2261.9	838.28
2265.071	845.67
2268.243	860.17
2271.414	870.07
2274.585	891.57
2277.756	899.17
2280.926	905.62
2284.096	929.29
2287.266	950.84
2290.436	956.04
2293.605	978.89
2296.774	1010.2
2299.942	1042.47
2303.111	1047.91
2306.279	1072.1
2309.447	1083.83
2312.614	1113.92
2315.781	1142.12
2318.948	1197.38
2322.115	1175.87
2325.281	1239.24
2328.447	1213.16
2331.613	1263.73
2334.779	1248.25
2337.944	1301.67
2341.109	1317.43
2344.274	1350.55
2347.438	1399.62
2350.602	1401.39
2353.766	1443.4
2356.929	1465.16
2360.092	1457.67
2363.255	1569.96
2366.418	1560.23
2369.58	1594.6
2372.742	1689.4
2375.904	1729.52
2379.066	1722.23
2382.227	1684.6
2385.388	1826.15
2388.548	1829.88
2391.709	1854.53
2394.869	2067.94
2398.029	1966.87
2401.188	2027.12
2404.347	2015.71
2407.506	1988.74
2410.665	2040.76
2413.823	2171.96
2416.981	2300.65
2420.139	2227.53
2423.296	2194.22
2426.453	2294.48
2429.61	2205.78
2432.767	2317.27
2435.923	2296.4
2439.079	2502.24
2442.235	2535.2
2445.391	2518.07
2448.546	2491.94
2451.701	2425.81
2454.855	2424.65
2458.009	2579.13
2461.163	2678.6
2464.317	2777.75
2467.471	2844.22
2470.624	2841.67
2473.777	2771.64
2476.929	2701.33
2480.082	2623.8
2483.234	2591.07
2486.385	2714.29
2489.537	2726.24
2492.688	2830.38
2495.839	2748.65
2498.989	2689.26
2502.14	2708.46
2505.29	2741.5
2508.439	2781.2
2511.589	2774.07
2514.738	3018.52
2517.887	2959.17
2521.035	3127.74
2524.183	3142.77
2527.331	3170.04
2530.479	3161.29
2533.627	3179.52
