Data from N_3_DIV_OH_2N_Splice17_13-46-23-235.txt Node
Date: Sat Mar 07 13:46:23 EST 2020
User: sa697716
Spectrometer: NQ5500242
Trigger mode: 0
Integration Time (sec): 1.450000E-1
Scans to average: 20
Nonlinearity correction enabled: false
Boxcar width: 5
Storing dark spectrum: false
XAxis mode: Wavelengths
Number of Pixels in Spectrum: 512
>>>>>Begin Spectral Data<<<<<
187.83	209.56
188.298	230.12
188.766	210.31
189.233	171.79
189.701	178.08
190.169	213.55
190.636	259.93
191.104	347.43
191.571	146.77
192.039	-390.44
192.506	-884.19
192.974	105.28
193.441	112.71
193.908	49.43
194.375	25.11
194.842	-31.66
195.31	-16.81
195.777	78.61
196.244	31.22
196.711	27.47
197.177	30.07
197.644	29.45
198.111	29.35
198.578	29.44
199.045	29.49
199.511	29.65
199.978	29.46
200.445	30.15
200.911	30.39
201.378	30.14
201.844	30
202.31	29.45
202.777	29.46
203.243	29.59
203.709	29.49
204.176	29.29
204.642	29.19
205.108	29.52
205.574	28.98
206.04	28.06
206.506	27.76
206.972	27.81
207.438	27.5
207.903	27.03
208.369	26.18
208.835	25.65
209.301	24.86
209.766	23.76
210.232	23
210.697	22.36
211.163	21.79
211.628	21.26
212.094	20.55
212.559	20.3
213.024	19.81
213.49	19.66
213.955	19.2
214.42	18.84
214.885	18.38
215.35	17.59
215.815	16.9
216.28	15.61
216.745	14.13
217.21	12.8
217.675	11.49
218.14	10.39
218.604	9.33
219.069	8.5
219.534	7.86
219.998	7.36
220.463	6.87
220.927	6.34
221.392	6.07
221.856	5.85
222.32	5.6
222.785	5.44
223.249	5.27
223.713	5.12
224.177	5.02
224.642	4.88
225.106	4.72
225.57	4.61
226.034	4.56
226.497	4.47
226.961	4.38
227.425	4.32
227.889	4.21
228.353	4.13
228.816	4.06
229.28	3.97
229.744	3.91
230.207	3.85
230.671	3.81
231.134	3.73
231.597	3.69
232.061	3.63
232.524	3.57
232.987	3.53
233.45	3.5
233.914	3.45
234.377	3.4
234.84	3.35
235.303	3.32
235.766	3.27
236.229	3.23
236.691	3.18
237.154	3.15
237.617	3.12
238.08	3.08
238.542	3.03
239.005	3
239.468	2.99
239.93	2.96
240.393	2.94
240.855	2.9
241.317	2.88
241.78	2.85
242.242	2.8
242.704	2.79
243.166	2.76
243.629	2.76
244.091	2.74
244.553	2.71
245.015	2.68
245.477	2.65
245.939	2.63
246.4	2.6
246.862	2.58
247.324	2.57
247.786	2.54
248.247	2.51
248.709	2.47
249.17	2.44
249.632	2.43
250.093	2.42
250.555	2.4
251.016	2.39
251.477	2.37
251.939	2.36
252.4	2.34
252.861	2.32
253.322	2.3
253.783	2.29
254.244	2.28
254.705	2.25
255.166	2.23
255.627	2.22
256.088	2.21
256.549	2.21
257.009	2.19
257.47	2.17
257.931	2.15
258.391	2.13
258.852	2.11
259.312	2.09
259.773	2.07
260.233	2.07
260.694	2.06
261.154	2.04
261.614	2.03
262.074	2.01
262.534	2
262.994	2
263.455	1.99
263.915	1.98
264.374	1.96
264.834	1.95
265.294	1.94
265.754	1.93
266.214	1.91
266.673	1.9
267.133	1.9
267.593	1.89
268.052	1.89
268.512	1.89
268.971	1.89
269.431	1.88
269.89	1.87
270.349	1.87
270.809	1.86
271.268	1.87
271.727	1.86
272.186	1.86
272.645	1.86
273.104	1.85
273.563	1.84
274.022	1.83
274.481	1.83
274.94	1.83
275.399	1.82
275.857	1.82
276.316	1.81
276.775	1.8
277.233	1.8
277.692	1.8
278.15	1.8
278.609	1.8
279.067	1.8
279.525	1.8
279.984	1.8
280.442	1.8
280.9	1.81
281.358	1.82
281.816	1.82
282.274	1.82
282.732	1.81
283.19	1.81
283.648	1.8
284.106	1.79
284.564	1.79
285.021	1.79
285.479	1.78
285.937	1.77
286.394	1.76
286.852	1.76
287.309	1.75
287.767	1.75
288.224	1.74
288.682	1.73
289.139	1.72
289.596	1.71
290.053	1.7
290.511	1.69
290.968	1.69
291.425	1.67
291.882	1.67
292.339	1.66
292.796	1.66
293.252	1.65
293.709	1.65
294.166	1.64
294.623	1.64
295.079	1.64
295.536	1.64
295.992	1.64
296.449	1.63
296.905	1.63
297.362	1.63
297.818	1.62
298.274	1.63
298.731	1.62
299.187	1.61
299.643	1.61
300.099	1.61
300.555	1.6
301.011	1.59
301.467	1.6
301.923	1.59
302.379	1.59
302.835	1.6
303.291	1.59
303.746	1.6
304.202	1.6
304.658	1.61
305.113	1.6
305.569	1.61
306.024	1.6
306.479	1.6
306.935	1.6
307.39	1.6
307.845	1.6
308.301	1.6
308.756	1.6
309.211	1.59
309.666	1.59
310.121	1.59
310.576	1.59
311.031	1.59
311.486	1.59
311.94	1.59
312.395	1.59
312.85	1.59
313.305	1.59
313.759	1.59
314.214	1.59
314.668	1.58
315.123	1.59
315.577	1.58
316.032	1.58
316.486	1.58
316.94	1.58
317.394	1.58
317.849	1.57
318.303	1.56
318.757	1.56
319.211	1.56
319.665	1.56
320.119	1.55
320.572	1.55
321.026	1.54
321.48	1.54
321.934	1.53
322.387	1.52
322.841	1.52
323.295	1.53
323.748	1.52
324.202	1.52
324.655	1.53
325.108	1.54
325.562	1.55
326.015	1.56
326.468	1.56
326.921	1.56
327.374	1.56
327.827	1.57
328.28	1.57
328.733	1.57
329.186	1.57
329.639	1.57
330.092	1.56
330.545	1.56
330.997	1.55
331.45	1.56
331.903	1.58
332.355	1.58
332.808	1.57
333.26	1.57
333.713	1.56
334.165	1.56
334.617	1.57
335.069	1.56
335.522	1.56
335.974	1.57
336.426	1.55
336.878	1.53
337.33	1.53
337.782	1.53
338.234	1.54
338.686	1.54
339.137	1.54
339.589	1.53
340.041	1.54
340.493	1.53
340.944	1.53
341.396	1.53
341.847	1.53
342.299	1.53
342.75	1.52
343.201	1.5
343.653	1.5
344.104	1.48
344.555	1.47
345.006	1.46
345.457	1.46
345.908	1.46
346.359	1.46
346.81	1.47
347.261	1.46
347.712	1.46
348.163	1.46
348.613	1.47
349.064	1.48
349.515	1.48
349.965	1.48
350.416	1.47
350.866	1.47
351.317	1.46
351.767	1.47
352.217	1.46
352.668	1.47
353.118	1.48
353.568	1.47
354.018	1.48
354.468	1.48
354.918	1.49
355.368	1.49
355.818	1.49
356.268	1.48
356.718	1.49
357.168	1.48
357.617	1.47
358.067	1.46
358.517	1.47
358.966	1.47
359.416	1.48
359.865	1.48
360.315	1.48
360.764	1.5
361.213	1.5
361.663	1.48
362.112	1.5
362.561	1.51
363.01	1.52
363.459	1.5
363.908	1.49
364.357	1.5
364.806	1.49
365.255	1.49
365.703	1.5
366.152	1.51
366.601	1.53
367.05	1.54
367.498	1.55
367.947	1.56
368.395	1.57
368.844	1.59
369.292	1.58
369.74	1.6
370.189	1.61
370.637	1.61
371.085	1.6
371.533	1.6
371.981	1.6
372.429	1.61
372.877	1.62
373.325	1.63
373.773	1.63
374.221	1.63
374.669	1.64
375.116	1.65
375.564	1.66
376.012	1.68
376.459	1.69
376.907	1.71
377.354	1.71
377.801	1.73
378.249	1.74
378.696	1.77
379.143	1.79
379.591	1.81
380.038	1.84
380.485	1.87
380.932	1.89
381.379	1.93
381.826	1.95
382.273	1.97
382.72	1.98
383.166	2.02
383.613	2.04
384.06	2.06
384.506	2.08
384.953	2.1
385.4	2.12
385.846	2.15
386.292	2.16
386.739	2.19
387.185	2.22
387.631	2.25
388.078	2.29
388.524	2.32
388.97	2.35
389.416	2.38
389.862	2.42
390.308	2.46
390.754	2.49
391.2	2.53
391.645	2.55
392.091	2.6
392.537	2.64
392.983	2.66
393.428	2.7
393.874	2.73
394.319	2.76
394.765	2.79
395.21	2.81
395.655	2.84
396.101	2.87
396.546	2.89
396.991	2.92
397.436	2.94
397.881	2.98
398.326	2.99
398.771	3.02
399.216	3.04
399.661	3.05
400.106	3.08
400.551	3.08
400.995	3.09
401.44	3.11
401.885	3.11
402.329	3.13
402.774	3.14
403.218	3.16
403.663	3.17
404.107	3.19
404.551	3.2
404.995	3.2
405.44	3.2
405.884	3.21
406.328	3.23
406.772	3.23
407.216	3.24
407.66	3.24
408.104	3.22
408.547	3.22
408.991	3.23
409.435	3.23
409.879	3.24
410.322	3.26
410.766	3.27
411.209	3.28
411.653	3.29
412.096	3.3
412.54	3.31
412.983	3.32
413.426	3.35
413.869	3.35
414.312	3.36
414.756	3.36
415.199	3.36
415.642	3.36
416.085	3.36
416.527	3.36
416.97	3.35
417.413	3.35
417.856	3.36
418.298	3.34
418.741	3.34
419.184	3.34
419.626	3.33
420.069	3.34
420.511	3.35
420.953	3.36
421.396	3.37
421.838	3.37
422.28	3.38
422.722	3.39
423.164	3.38
423.606	3.39
424.048	3.38
424.49	3.39
424.932	3.38
425.374	3.35
425.816	3.32
426.258	3.31
426.699	3.29
427.141	3.29
427.582	3.28
428.024	3.29
428.465	3.29
428.907	3.29
429.348	3.26
429.789	3.26
430.231	3.29
430.672	3.31
431.113	3.32
431.554	3.33
431.995	3.33
432.436	3.35
432.877	3.35
433.318	3.37
433.759	3.39
434.2	3.42
434.64	3.42
435.081	3.42
435.522	3.43
435.962	3.45
436.403	3.48
436.843	3.5
437.284	3.5
437.724	3.51
438.164	3.5
438.604	3.5
439.045	3.52
439.485	3.54
439.925	3.53
440.365	3.54
440.805	3.53
441.245	3.53
441.685	3.55
442.125	3.57
442.564	3.59
443.004	3.61
443.444	3.62
443.883	3.65
444.323	3.66
444.762	3.69
445.202	3.72
445.641	3.77
446.081	3.79
446.52	3.8
446.959	3.84
447.398	3.87
447.837	3.9
448.276	3.93
448.716	3.95
449.154	3.99
449.593	4.02
450.032	4.04
450.471	4.04
450.91	4.06
451.349	4.09
451.787	4.08
452.226	4.09
452.664	4.1
453.103	4.11
453.541	4.13
453.98	4.14
454.418	4.13
454.856	4.14
455.295	4.13
455.733	4.12
456.171	4.11
456.609	4.12
457.047	4.11
457.485	4.1
457.923	4.11
458.361	4.1
458.798	4.1
459.236	4.1
459.674	4.08
460.111	4.08
460.549	4.09
460.987	4.09
461.424	4.09
461.862	4.09
462.299	4.11
462.736	4.1
463.173	4.1
463.611	4.1
464.048	4.11
464.485	4.13
464.922	4.13
465.359	4.13
465.796	4.17
466.233	4.18
466.67	4.19
467.106	4.19
467.543	4.18
467.98	4.17
468.416	4.16
468.853	4.16
469.29	4.15
469.726	4.15
470.162	4.14
470.599	4.11
471.035	4.1
471.471	4.09
471.907	4.08
472.344	4.09
472.78	4.11
473.216	4.1
473.652	4.11
474.088	4.1
474.523	4.11
474.959	4.11
475.395	4.1
475.831	4.11
476.266	4.11
476.702	4.11
477.138	4.11
477.573	4.11
478.008	4.12
478.444	4.12
478.879	4.15
479.314	4.15
479.75	4.15
480.185	4.14
480.62	4.14
481.055	4.14
481.49	4.15
481.925	4.16
482.36	4.18
482.795	4.19
483.229	4.2
483.664	4.2
484.099	4.2
484.534	4.22
484.968	4.24
485.403	4.25
485.837	4.27
486.271	4.3
486.706	4.32
487.14	4.32
487.574	4.33
488.009	4.36
488.443	4.39
488.877	4.43
489.311	4.46
489.745	4.5
490.179	4.56
490.613	4.61
491.046	4.64
491.48	4.69
491.914	4.75
492.348	4.8
492.781	4.85
493.215	4.9
493.648	4.96
494.082	5.01
494.515	5.06
494.948	5.12
495.382	5.18
495.815	5.24
496.248	5.32
496.681	5.38
497.114	5.46
497.547	5.55
497.98	5.64
498.413	5.72
498.846	5.81
499.279	5.9
499.711	5.99
500.144	6.1
500.577	6.22
501.009	6.32
501.442	6.44
501.874	6.56
502.306	6.67
502.739	6.81
503.171	6.93
503.603	7.07
504.036	7.21
504.468	7.33
504.9	7.46
505.332	7.59
505.764	7.74
506.196	7.88
506.627	8.04
507.059	8.22
507.491	8.36
507.923	8.53
508.354	8.71
508.786	8.89
509.217	9.08
509.649	9.28
510.08	9.47
510.512	9.67
510.943	9.87
511.374	10.06
511.805	10.26
512.237	10.45
512.668	10.65
513.099	10.84
513.53	11.04
513.961	11.24
514.391	11.45
514.822	11.67
515.253	11.87
515.684	12.07
516.114	12.27
516.545	12.47
516.975	12.69
517.406	12.9
517.836	13.11
518.267	13.33
518.697	13.53
519.127	13.72
519.558	13.92
519.988	14.1
520.418	14.3
520.848	14.49
521.278	14.68
521.708	15.11
522.138	15.28
522.567	15.44
522.997	15.59
523.427	15.75
523.857	15.91
524.286	16.06
524.716	16.21
525.145	16.36
525.575	16.5
526.004	16.63
526.433	16.49
526.863	16.61
527.292	16.75
527.721	16.87
528.15	16.99
528.579	17.09
529.008	17.2
529.437	17.28
529.866	17.36
530.295	17.46
530.724	17.54
531.152	17.64
531.581	17.73
532.01	17.79
532.438	17.85
532.867	17.91
533.295	17.97
533.723	18.02
534.152	18.08
534.58	18.14
535.008	18.17
535.436	18.22
535.865	18.25
536.293	18.28
536.721	18.31
537.149	18.34
537.576	18.38
538.004	18.42
538.432	18.43
538.86	18.47
539.287	18.48
539.715	18.51
540.143	18.53
540.57	18.55
540.998	18.57
541.425	18.6
541.852	18.62
542.28	18.63
542.707	18.64
543.134	18.66
543.561	18.67
543.988	18.68
544.415	18.69
544.842	18.71
545.269	18.73
545.696	18.75
546.123	18.75
546.549	18.77
546.976	18.79
547.403	18.81
547.829	18.82
548.256	18.83
548.682	18.85
549.108	18.87
549.535	18.89
549.961	18.89
550.387	18.89
550.813	18.9
551.24	18.9
551.666	18.89
552.092	18.89
552.518	18.89
552.943	18.89
553.369	18.89
553.795	18.87
554.221	18.86
554.646	18.84
555.072	18.81
555.498	18.78
555.923	18.74
556.349	18.72
556.774	18.66
557.199	18.63
557.625	18.58
558.05	18.52
558.475	18.47
558.9	18.43
559.325	18.38
559.75	18.33
560.175	18.29
560.6	18.23
561.025	18.17
561.449	18.11
561.874	18.03
562.299	17.97
562.723	17.89
563.148	17.8
563.572	17.71
563.997	17.62
564.421	17.53
564.846	17.43
565.27	17.35
565.694	17.26
566.118	17.17
566.542	17.09
566.966	16.98
567.39	16.9
567.814	16.82
568.238	16.73
568.662	16.65
569.086	16.57
569.509	16.49
569.933	16.4
570.357	16.31
570.78	16.21
571.204	16.13
571.627	16.05
572.05	15.96
572.474	15.88
572.897	15.79
573.32	15.72
573.743	15.63
574.166	15.54
574.589	15.45
575.012	15.37
575.435	15.3
575.858	15.22
576.281	15.14
576.704	15.07
577.126	14.99
577.549	14.93
577.972	14.85
578.394	14.78
578.817	14.72
579.239	14.66
579.661	14.59
580.084	14.54
580.506	14.49
580.928	14.44
581.35	14.38
581.772	14.33
582.194	14.28
582.616	14.22
583.038	14.17
583.46	14.11
583.882	14.06
584.303	14.01
584.725	13.94
585.147	13.92
585.568	13.87
585.99	13.82
586.411	13.76
586.833	13.72
587.254	13.68
587.675	13.63
588.096	13.59
588.518	13.55
588.939	13.51
589.36	13.47
589.781	13.42
590.202	13.39
590.623	13.37
591.043	13.34
591.464	13.31
591.885	13.27
592.305	13.24
592.726	13.23
593.147	13.2
593.567	13.17
593.987	13.15
594.408	13.11
594.828	13.06
595.248	13.05
595.669	13.03
596.089	13
596.509	12.98
596.929	12.96
597.349	12.92
597.769	12.91
598.189	12.88
598.608	12.87
599.028	12.86
599.448	12.84
599.867	12.8
600.287	12.77
600.706	12.75
601.126	12.73
601.545	12.7
601.965	12.68
602.384	12.65
602.803	12.62
603.222	12.58
603.641	12.53
604.061	12.5
604.48	12.45
604.898	12.41
605.317	12.36
605.736	12.32
606.155	12.28
606.574	12.22
606.992	12.16
607.411	12.12
607.829	12.03
608.248	11.97
608.666	11.9
609.085	11.85
609.503	11.81
609.921	11.75
610.339	11.69
610.758	11.63
611.176	11.57
611.594	11.52
612.012	11.46
612.43	11.43
612.847	11.39
613.265	11.34
613.683	11.29
614.101	11.22
614.518	11.16
614.936	11.11
615.353	11.04
615.771	11
616.188	10.95
616.606	10.91
617.023	10.85
617.44	10.81
617.857	10.76
618.274	10.72
618.691	10.69
619.108	10.66
619.525	10.62
619.942	10.61
620.359	10.57
620.776	10.55
621.192	10.52
621.609	10.5
622.026	10.47
622.442	10.46
622.859	10.44
623.275	10.42
623.691	10.4
624.108	10.38
624.524	10.36
624.94	10.35
625.356	10.33
625.772	10.31
626.188	10.32
626.604	10.31
627.02	10.3
627.436	10.29
627.852	10.28
628.268	10.28
628.683	10.27
629.099	10.25
629.514	10.24
629.93	10.23
630.345	10.2
630.761	10.17
631.176	10.15
631.591	10.14
632.007	10.12
632.422	10.08
632.837	10.03
633.252	9.99
633.667	9.94
634.082	9.89
634.497	9.84
634.911	9.79
635.326	9.73
635.741	9.67
636.155	9.59
636.57	9.51
636.984	9.44
637.399	9.36
637.813	9.28
638.228	9.19
638.642	9.1
639.056	9
639.47	8.91
639.884	8.82
640.298	8.71
640.712	8.63
641.126	8.52
641.54	8.43
641.954	8.32
642.368	8.22
642.781	8.14
643.195	8.05
643.609	7.97
644.022	7.88
644.436	7.79
644.849	7.7
645.262	7.61
645.676	7.53
646.089	7.46
646.502	7.4
646.915	7.35
647.328	7.28
647.741	7.22
648.154	7.16
648.567	7.12
648.98	7.07
649.393	7.04
649.805	7.01
650.218	6.98
650.631	6.95
651.043	6.92
651.456	6.88
651.868	6.85
652.28	6.81
652.693	6.78
653.105	6.74
653.517	6.7
653.929	6.66
654.341	6.62
654.753	6.56
655.165	6.5
655.577	6.44
655.989	6.39
656.401	6.32
656.813	6.27
657.224	6.19
657.636	6.1
658.047	6.04
658.459	5.96
658.87	5.87
659.282	5.78
659.693	5.71
660.104	5.62
660.515	5.54
660.926	5.46
661.338	5.37
661.749	5.3
662.159	5.22
662.57	5.14
662.981	5.06
663.392	4.99
663.803	4.92
664.213	4.84
664.624	4.77
665.035	4.71
665.445	4.65
665.855	4.6
666.266	4.56
666.676	4.51
667.086	4.46
667.497	4.43
667.907	4.39
668.317	4.36
668.727	4.34
669.137	4.31
669.547	4.28
669.956	4.27
670.366	4.26
670.776	4.24
671.186	4.23
671.595	4.22
672.005	4.21
672.414	4.22
672.824	4.22
673.233	4.22
673.642	4.22
674.052	4.23
674.461	4.24
674.87	4.25
675.279	4.28
675.688	4.3
676.097	4.32
676.506	4.35
676.915	4.37
677.323	4.41
677.732	4.43
678.141	4.48
678.549	4.51
678.958	4.56
679.366	4.62
679.775	4.66
680.183	4.75
680.592	4.82
681	4.91
681.408	5
681.816	5.1
682.224	5.23
682.632	5.36
683.04	5.49
683.448	5.65
683.856	5.8
684.264	5.97
684.671	6.14
685.079	6.34
685.487	6.55
685.894	6.79
686.302	7.03
686.709	7.29
687.116	7.55
687.524	7.86
687.931	8.16
688.338	8.49
688.745	8.83
689.152	9.17
689.559	9.55
689.966	9.93
690.373	10.32
690.78	10.71
691.187	11.11
691.593	11.51
692	11.91
692.407	12.31
692.813	12.73
693.22	13.13
693.626	13.53
694.032	13.94
694.439	14.34
694.845	14.72
695.251	15.12
695.657	15.5
696.063	15.89
696.469	16.27
696.875	16.67
697.281	17.03
697.687	17.41
698.093	17.77
698.498	18.13
698.904	18.47
699.31	18.79
699.715	19.14
700.12	19.48
700.526	19.8
700.931	20.12
701.337	20.41
701.742	20.73
702.147	21.03
702.552	21.32
702.957	21.58
703.362	21.84
703.767	22.11
704.172	22.36
704.577	22.61
704.981	22.85
705.386	23.1
705.791	23.34
706.195	23.57
706.6	23.81
707.004	24.02
707.408	24.27
707.813	24.52
708.217	24.75
708.621	24.97
709.025	25.15
709.43	25.37
709.834	25.58
710.237	25.77
710.641	25.96
711.045	26.12
711.449	26.34
711.853	26.54
712.256	26.69
712.66	26.86
713.064	27.01
713.467	27.2
713.87	27.35
714.274	27.51
714.677	27.66
715.08	27.79
715.484	27.94
715.887	28.09
716.29	28.18
716.693	28.33
717.096	28.47
717.499	28.63
717.901	28.74
718.304	28.87
718.707	28.98
719.109	29.12
719.512	29.24
719.915	29.4
720.317	29.48
720.719	29.59
721.122	29.7
721.524	29.78
721.926	29.88
722.328	30
722.731	30.09
723.133	30.19
723.535	30.25
723.937	30.34
724.338	30.4
724.74	30.51
725.142	30.79
725.544	30.87
725.945	31.03
726.347	31.07
726.748	31.11
727.15	31.16
727.551	31.24
727.952	31.31
728.354	31.37
728.755	31.41
729.156	31.45
729.557	31.29
729.958	31.3
730.359	31.27
730.76	31.35
731.161	31.41
731.562	31.46
731.962	31.47
732.363	31.52
732.763	31.56
733.164	31.6
733.564	31.65
733.965	31.73
734.365	31.8
734.766	31.83
735.166	31.86
735.566	31.88
735.966	31.92
736.366	31.96
736.766	31.99
737.166	32.02
737.566	32.04
737.966	32.05
738.365	32.07
738.765	32.1
739.165	32.12
739.564	32.14
739.964	32.16
740.363	32.17
740.763	32.19
741.162	32.19
741.561	32.2
741.96	32.22
742.36	32.24
742.759	32.24
743.158	32.23
743.557	32.23
743.955	32.25
744.354	32.26
744.753	32.27
745.152	32.3
745.55	32.32
745.949	32.33
746.348	32.34
746.746	32.33
747.144	32.36
747.543	32.38
747.941	32.39
748.339	32.38
748.737	32.39
749.136	32.39
749.534	32.36
749.932	32.37
750.33	32.38
750.727	32.39
751.125	32.41
751.523	32.37
751.921	32.39
752.318	32.41
752.716	32.43
753.113	32.45
753.511	32.46
753.908	32.5
754.305	32.52
754.703	32.5
755.1	32.51
755.497	32.51
755.894	32.51
756.291	32.49
756.688	32.46
757.085	32.45
757.482	32.43
757.878	32.42
758.275	32.39
758.672	32.35
759.068	32.37
759.465	32.35
759.861	32.35
760.258	32.37
760.654	32.38
761.05	32.38
761.447	32.38
761.843	32.37
762.239	32.38
762.635	32.38
763.031	32.4
763.427	32.37
763.822	32.39
764.218	32.39
764.614	32.39
765.01	32.38
765.405	32.38
765.801	32.37
766.196	32.38
766.592	32.38
766.987	32.37
767.382	32.36
767.778	32.37
768.173	32.36
768.568	32.35
768.963	32.35
769.358	32.36
769.753	32.36
770.148	32.37
770.542	32.36
770.937	32.36
771.332	32.38
771.726	32.39
772.121	32.37
772.515	32.37
772.91	32.36
773.304	32.37
773.699	32.37
774.093	32.36
774.487	32.37
774.881	32.41
775.275	32.4
775.669	32.37
776.063	32.35
776.457	32.37
776.851	32.36
777.245	32.37
777.638	32.34
778.032	32.34
778.425	32.37
778.819	32.38
779.212	32.36
779.606	32.38
779.999	32.4
780.392	32.43
780.786	32.42
781.179	32.44
781.572	32.46
781.965	32.46
782.358	32.46
782.751	32.43
783.143	32.41
783.536	32.39
783.929	32.36
784.322	32.36
784.714	32.34
785.107	32.35
785.499	32.31
785.891	32.31
786.284	32.31
786.676	32.32
787.068	32.33
787.46	32.31
787.852	32.31
788.245	32.31
788.636	32.29
789.028	32.31
789.42	32.3
789.812	32.31
790.204	32.29
790.595	32.3
790.987	32.29
791.378	32.29
791.77	32.29
792.161	32.28
792.553	32.3
792.944	32.32
793.335	32.31
793.726	32.31
794.117	32.32
794.508	32.3
794.899	32.28
795.29	32.28
795.681	32.28
796.072	32.29
796.463	32.38
796.853	32.36
797.244	32.37
797.634	32.36
798.025	32.38
798.415	32.35
798.806	32.39
799.196	32.41
799.586	32.42
799.976	32.43
800.366	32.42
800.756	32.35
801.146	32.37
801.536	32.37
801.926	32.37
802.316	32.35
802.706	32.36
803.095	32.36
803.485	32.35
803.874	32.34
804.264	32.35
804.653	32.35
805.043	32.34
805.432	32.35
805.821	32.34
806.21	32.36
806.599	32.35
806.988	32.35
807.377	32.34
807.766	32.32
808.155	32.32
808.544	32.32
808.933	32.32
809.321	32.31
809.71	32.29
810.098	32.28
810.487	32.26
810.875	32.26
811.264	32.25
811.652	32.28
812.04	32.29
812.428	32.3
812.816	32.28
813.204	32.27
813.592	32.25
813.98	32.24
814.368	32.27
814.756	32.26
815.144	32.25
815.531	32.24
815.919	32.23
816.306	32.23
816.694	32.23
817.081	32.24
817.469	32.25
817.856	32.25
818.243	32.23
818.63	32.22
819.017	32.21
819.404	32.19
819.791	32.19
820.178	32.17
820.565	32.14
820.952	32.16
821.339	32.13
821.725	32.12
822.112	32.14
822.498	32.16
822.885	32.14
823.271	32.15
823.657	32.15
824.044	32.15
824.43	32.14
824.816	32.18
825.202	32.15
825.588	32.16
825.974	32.15
826.36	32.13
826.746	32.1
827.132	32.1
827.517	32.13
827.903	32.14
828.289	32.16
828.674	32.17
829.06	32.12
829.445	32.11
829.83	32.1
830.216	32.08
830.601	32.1
830.986	32.13
831.371	32.13
831.756	32.11
832.141	32.08
832.526	32.06
832.911	32.05
833.295	32.06
833.68	32.08
834.065	32.08
834.449	32.07
834.834	32.06
835.218	32.05
835.603	32.04
835.987	32.04
836.371	32.04
836.755	32.03
837.139	32.01
837.524	31.99
837.908	31.97
838.291	31.98
838.675	32
839.059	31.99
839.443	31.97
839.827	31.97
840.21	31.95
840.594	31.96
840.977	31.96
841.361	31.97
841.744	31.96
842.127	31.95
842.511	31.94
842.894	31.93
843.277	31.93
843.66	31.9
844.043	31.91
844.426	31.93
844.809	31.92
845.191	31.93
845.574	31.93
845.957	31.94
846.339	31.95
846.722	31.93
847.104	31.93
847.487	31.92
847.869	31.94
848.252	31.93
848.634	31.93
849.016	31.93
849.398	31.94
849.78	31.93
850.162	31.93
850.544	31.92
850.926	31.94
851.307	31.93
851.689	31.93
852.071	31.91
852.452	31.9
852.834	31.92
853.215	31.91
853.597	31.9
853.978	31.89
854.359	31.91
854.741	31.91
855.122	31.9
855.503	31.89
855.884	31.9
856.265	31.89
856.646	31.89
857.026	31.87
857.407	31.88
857.788	31.86
858.169	31.88
858.549	31.87
858.93	31.86
859.31	31.87
859.69	31.89
860.071	31.9
860.451	31.92
860.831	31.92
861.211	31.9
861.591	31.89
861.971	31.9
862.351	31.9
862.731	31.88
863.111	31.87
863.491	31.87
863.87	31.83
864.25	31.81
864.629	31.8
865.009	31.82
865.388	31.83
865.768	31.83
866.147	31.83
866.526	31.82
866.905	31.82
867.284	31.82
867.663	31.81
868.042	31.83
868.421	31.84
868.8	31.83
869.179	31.82
869.558	31.79
869.936	31.79
870.315	31.77
870.693	31.78
871.072	31.8
871.45	31.81
871.828	31.83
872.207	31.84
872.585	31.82
872.963	31.81
873.341	31.8
873.719	31.82
874.097	31.79
874.475	31.79
874.853	31.76
875.23	31.73
875.608	31.72
875.986	31.72
876.363	31.71
876.741	31.74
877.118	31.74
877.495	31.75
877.873	31.75
878.25	31.77
878.627	31.78
879.004	31.79
879.381	31.78
879.758	31.75
880.135	31.74
880.512	31.71
880.889	31.69
881.265	31.68
881.642	31.66
882.019	31.65
882.395	31.64
882.772	31.63
883.148	31.61
883.524	31.62
883.901	31.64
884.277	31.62
884.653	31.61
885.029	31.59
885.405	31.6
885.781	31.61
886.157	31.61
886.532	31.62
886.908	31.6
887.284	31.61
887.659	31.59
888.035	31.6
888.411	31.6
888.786	31.62
889.161	31.64
889.537	31.64
889.912	31.64
890.287	31.63
890.662	31.61
891.037	31.63
891.412	31.63
891.787	31.63
892.162	31.63
892.536	31.63
892.911	31.61
893.286	31.61
893.66	31.6
894.035	31.6
894.409	31.59
894.784	31.59
895.158	31.57
895.532	31.59
895.906	31.57
896.281	31.55
896.655	31.55
897.029	31.56
897.402	31.56
897.776	31.57
898.15	31.56
898.524	31.59
898.898	31.61
899.271	31.63
899.645	31.62
900.018	31.65
900.392	31.66
900.765	31.65
901.138	31.64
901.511	31.63
901.884	31.62
902.258	31.61
902.631	31.62
903.003	31.62
903.376	31.6
903.749	31.59
904.122	31.59
904.495	31.61
904.867	31.63
905.24	31.63
905.612	31.65
905.985	31.65
906.357	31.66
906.729	31.63
907.102	31.59
907.474	31.62
907.846	31.63
908.218	31.62
908.59	31.64
908.962	31.64
909.334	31.66
909.705	31.67
910.077	31.66
910.449	31.66
910.82	31.65
911.192	31.67
911.563	31.64
911.935	31.63
912.306	31.63
912.677	31.61
913.048	31.62
913.419	31.59
913.79	31.57
914.161	31.58
914.532	31.59
914.903	31.61
915.274	31.62
915.645	31.63
916.015	31.62
916.386	31.63
916.756	31.63
917.127	31.61
917.497	31.64
917.868	31.65
918.238	31.65
918.608	31.66
918.978	31.67
919.348	31.68
919.718	31.69
920.088	31.72
920.458	31.72
920.828	31.7
921.198	31.67
921.567	31.68
921.937	31.71
922.306	31.72
922.676	31.68
923.045	31.69
923.415	31.7
923.784	31.69
924.153	31.69
924.522	31.69
924.891	31.71
925.26	31.76
925.629	31.77
925.998	31.76
926.367	31.79
926.736	31.83
927.104	31.82
927.473	31.82
927.842	31.82
928.21	31.85
928.578	31.86
928.947	31.88
929.315	31.88
929.683	31.89
930.051	31.88
930.42	31.86
930.788	31.83
931.156	31.85
931.523	31.87
931.891	31.94
932.259	31.93
932.627	31.98
932.994	31.98
933.362	31.99
933.729	32.01
934.097	32.02
934.464	32.06
934.831	32.09
935.199	32.1
935.566	32.12
935.933	32.04
936.3	32.07
936.667	32.03
937.034	32.14
937.401	32.15
937.767	32.11
938.134	32.14
938.501	32.1
938.867	32.13
939.234	32.1
939.6	32.03
939.967	32.06
940.333	32.02
940.699	32.04
941.065	31.86
941.431	31.83
941.798	31.79
942.163	31.72
942.529	31.67
942.895	31.62
943.261	31.59
943.627	31.54
943.992	31.52
944.358	31.5
944.723	31.49
945.089	31.43
945.454	31.44
945.82	31.43
946.185	31.41
946.55	31.39
946.915	31.36
947.28	31.39
947.645	31.4
948.01	31.43
948.375	31.39
948.74	31.31
949.104	31.38
949.469	31.33
949.834	31.32
950.198	31.35
950.562	31.35
950.927	31.33
951.291	31.26
951.655	31.25
952.02	31.23
952.384	31.22
952.748	31.26
953.112	31.25
953.476	31.22
953.839	31.21
954.203	31.21
954.567	31.21
954.931	31.17
955.294	31.19
955.658	31.2
956.021	31.18
956.385	31.16
956.748	31.12
957.111	31.07
957.474	31.1
957.837	31.07
958.2	31.04
958.563	31.02
958.926	31.05
959.289	31.06
959.652	31.05
960.015	31.09
960.377	31.09
960.74	31.11
961.102	31.09
961.465	31.11
961.827	31.26
962.189	31.29
962.552	31.32
962.914	31.34
963.276	31.34
963.638	31.33
964	31.32
964.362	31.33
964.724	31.32
965.085	31.36
965.447	31.35
965.809	31.24
966.17	31.23
966.532	31.25
966.893	31.28
967.255	31.26
967.616	31.3
967.977	31.28
968.338	31.26
968.699	31.31
969.061	31.3
969.421	31.31
969.782	31.33
970.143	31.34
970.504	31.37
970.865	31.4
971.225	31.43
971.586	31.41
971.946	31.37
972.307	31.43
972.667	31.39
973.027	31.44
973.388	31.44
973.748	31.46
974.108	31.48
974.468	31.46
974.828	31.48
975.188	31.47
975.548	31.5
975.907	31.54
976.267	31.51
976.627	31.59
976.986	31.54
977.346	31.54
977.705	31.54
978.064	31.56
978.424	31.56
978.783	31.44
979.142	31.47
979.501	31.45
979.86	31.48
980.219	31.49
980.578	31.46
980.937	31.46
981.296	31.41
981.654	31.43
982.013	31.41
982.371	31.42
982.73	31.49
983.088	31.47
983.447	31.51
983.805	31.56
984.163	31.58
984.521	31.61
984.879	31.64
985.237	31.71
985.595	31.74
985.953	31.76
986.311	31.71
986.669	31.7
987.026	31.69
987.384	31.71
987.741	31.62
988.099	31.69
988.456	31.65
988.814	31.68
989.171	31.6
989.528	31.57
989.885	31.53
990.242	31.64
990.599	31.67
990.956	31.68
991.313	31.67
991.67	31.7
992.027	31.91
992.383	31.98
992.74	32.14
993.096	32.29
993.453	32.28
993.809	32.32
994.165	32.33
994.522	32.47
994.878	32.56
995.234	32.59
995.59	32.58
995.946	32.37
996.302	32.37
996.658	32.29
997.013	32.23
997.369	32.33
997.725	32.36
998.08	32.3
998.436	32.15
998.791	32.07
999.147	32.04
999.502	32.06
999.857	31.95
1000.212	31.88
1000.567	31.89
1000.922	31.84
1001.277	31.77
1001.632	31.68
1001.987	31.77
1002.342	31.71
1002.696	31.77
1003.051	31.96
1003.406	32.06
1003.76	32.02
1004.114	32.15
1004.469	32.19
1004.823	32.45
1005.177	32.43
1005.531	32.51
1005.885	32.5
1006.239	32.72
1006.593	32.8
1006.947	32.62
1007.301	32.46
1007.655	32.57
1008.008	32.51
1008.362	32.55
1008.715	32.43
1009.069	32.46
1009.422	32.6
1009.776	32.49
1010.129	32.31
1010.482	32.2
1010.835	32.22
1011.188	32.5
1011.541	32.36
1011.894	32.47
1012.247	32.41
1012.6	32.26
1012.952	32.21
1013.305	32.08
1013.657	32.25
1014.01	32.37
1014.362	32.28
1014.715	32.48
1015.067	32.44
1015.419	32.62
1015.771	32.58
1016.123	32.56
1016.475	32.57
1016.827	32.66
1017.179	32.87
1017.531	32.7
1017.883	32.72
1018.234	33.14
1018.586	33.13
1018.938	33.4
1019.289	33.52
1019.64	33.49
1019.992	33.33
1020.343	33.32
1020.694	33.51
1021.045	33.27
1021.396	33.4
1021.747	33.44
1022.098	33.22
1022.449	33.1
1022.8	32.8
1023.151	32.72
1023.501	33.06
1023.852	33.23
1024.202	33.39
1024.553	33.09
1024.903	33.56
1025.253	33.76
1025.604	33.72
1025.954	33.52
1026.304	33.61
1026.654	33.82
1027.004	33.83
1027.354	33.53
1027.703	33.28
1028.053	33.33
1028.403	33.41
1028.753	32.67
1029.102	32.52
1029.452	32.55
1029.801	32.8
1030.15	32.6
1030.499	32.19
897.758	2106.17
901.051	2101.23
904.343	2092.51
907.636	2136.56
910.928	2083.1
914.22	2072.64
917.511	2042.29
920.803	1952.61
924.094	1944.79
927.384	1900.27
930.675	1810.82
933.965	1796.45
937.255	1697.31
940.544	1628.71
943.834	1541.43
947.123	1525.08
950.411	1439.32
953.7	1406.06
956.988	1330.31
960.276	1270.49
963.563	1251.05
966.851	1208.33
970.138	1197.62
973.424	1157.56
976.711	1165.69
979.997	1105.19
983.283	1100.16
986.568	1076.08
989.853	1038.62
993.138	1020.91
996.423	982.16
999.708	954.62
1002.992	945.72
1006.275	899.02
1009.559	889.39
1012.842	855.4
1016.125	832.78
1019.408	816.72
1022.69	804.21
1025.972	792.72
1029.254	770.96
1032.536	758.14
1035.817	739.64
1039.098	728.96
1042.379	712.74
1045.659	704.96
1048.939	686.93
1052.219	674.26
1055.498	660.56
1058.778	647.12
1062.057	627.75
1065.335	620.75
1068.614	612.83
1071.892	606.68
1075.17	584.12
1078.447	574.29
1081.724	570.95
1085.001	565.37
1088.278	552.1
1091.554	542.13
1094.83	540.32
1098.106	537.66
1101.382	531.98
1104.657	528.43
1107.932	519.16
1111.206	524.28
1114.481	509.08
1117.755	502.77
1121.029	499.5
1124.302	500.54
1127.575	489.32
1130.848	482.91
1134.121	477.06
1137.393	475.66
1140.665	464.33
1143.937	462.29
1147.208	455.24
1150.48	456.97
1153.75	450.64
1157.021	441.68
1160.291	441.51
1163.561	436.93
1166.831	437.38
1170.101	435.16
1173.37	431.67
1176.639	432.83
1179.907	427.98
1183.176	425.14
1186.444	423.82
1189.711	423.04
1192.979	422.61
1196.246	418.34
1199.513	420.63
1202.78	418.17
1206.046	417.84
1209.312	414.3
1212.578	414.8
1215.843	418.83
1219.108	414.79
1222.373	423.94
1225.638	427.88
1228.902	436.19
1232.166	435.18
1235.43	439.46
1238.693	445.02
1241.956	445.77
1245.219	454.69
1248.482	453.55
1251.744	453.09
1255.006	455.69
1258.268	444.14
1261.529	439.04
1264.79	433.59
1268.051	432.4
1271.312	425.96
1274.572	420.12
1277.832	416.51
1281.092	408.41
1284.351	405.86
1287.61	405.26
1290.869	399.2
1294.128	395.91
1297.386	395.29
1300.644	391.75
1303.902	392.94
1307.159	390.77
1310.416	392.02
1313.673	392.35
1316.93	396.53
1320.186	397.18
1323.442	398.61
1326.697	407.15
1329.953	407.82
1333.208	410.69
1336.463	415.88
1339.717	416.98
1342.972	421.49
1346.226	424.4
1349.479	424.65
1352.733	428.68
1355.986	430.14
1359.238	430.42
1362.491	433.43
1365.743	438.01
1368.995	438.51
1372.247	436.05
1375.498	437.19
1378.749	444.43
1382	437.96
1385.251	441.49
1388.501	437.82
1391.751	442.35
1395	439.95
1398.25	436.76
1401.499	435.98
1404.748	435.97
1407.996	433.04
1411.244	430.93
1414.492	429.07
1417.74	427.55
1420.987	419.92
1424.234	422.13
1427.481	414.01
1430.728	415.41
1433.974	410.31
1437.22	407.5
1440.465	405.87
1443.711	404.74
1446.956	402.76
1450.201	395.24
1453.445	391.84
1456.689	391
1459.933	383.28
1463.177	381.36
1466.42	373.97
1469.663	369.43
1472.906	367.1
1476.148	356.99
1479.391	351.31
1482.633	346.47
1485.874	342.39
1489.115	340.04
1492.356	334.79
1495.597	333.51
1498.838	327.64
1502.078	325.56
1505.318	323.93
1508.557	323.4
1511.797	323.28
1515.036	321.58
1518.274	319.62
1521.513	314.99
1524.751	314.91
1527.989	313.77
1531.227	311.98
1534.464	313.55
1537.701	310.23
1540.938	308.99
1544.174	304.13
1547.41	303.28
1550.646	301.72
1553.882	302.71
1557.117	298.94
1560.352	295.66
1563.587	294.85
1566.821	292.63
1570.055	287.66
1573.289	285.53
1576.523	285.42
1579.756	283.41
1582.989	280.96
1586.222	280.67
1589.454	277.87
1592.686	279.66
1595.918	278.98
1599.15	277.74
1602.381	277.37
1605.612	277.85
1608.843	279.57
1612.073	278.28
1615.303	279.75
1618.533	280.6
1621.762	279.11
1624.992	279.41
1628.221	279.46
1631.449	278.73
1634.678	277.79
1637.906	279.36
1641.134	279.22
1644.361	278.58
1647.588	279.67
1650.815	277.97
1654.042	276.28
1657.269	278.45
1660.495	278.89
1663.72	276.05
1666.946	277.78
1670.171	278.54
1673.396	278.24
1676.621	278.2
1679.845	277.6
1683.069	277.53
1686.293	279.7
1689.517	281.55
1692.74	280.88
1695.963	282.34
1699.185	286.93
1702.408	286.55
1705.63	287.48
1708.852	288.72
1712.073	289.32
1715.294	290.45
1718.515	291.49
1721.736	291.25
1724.956	291.78
1728.176	291.72
1731.396	294.62
1734.616	293.74
1737.835	294.78
1741.054	293.15
1744.272	293.91
1747.491	297.5
1750.709	298.01
1753.927	298.79
1757.144	297.5
1760.361	300.5
1763.578	300.5
1766.795	299.74
1770.011	301.41
1773.227	301.91
1776.443	306.12
1779.658	308.3
1782.874	307
1786.089	308.97
1789.303	310.07
1792.518	314.71
1795.732	313.15
1798.945	318.19
1802.159	317.88
1805.372	319.87
1808.585	325.74
1811.797	327.74
1815.01	326.46
1818.222	329.54
1821.434	330.84
1824.645	332.89
1827.856	339.16
1831.067	343.12
1834.278	339.53
1837.488	342.81
1840.698	346.11
1843.908	342.37
1847.117	343.59
1850.326	347.01
1853.535	346.3
1856.744	354.18
1859.952	353.39
1863.16	351.96
1866.368	349.73
1869.575	357.93
1872.782	352.35
1875.989	350.88
1879.196	350.68
1882.402	350.57
1885.608	353.24
1888.814	356.34
1892.019	354.54
1895.224	354.91
1898.429	352.84
1901.634	357.14
1904.838	356.53
1908.042	362.61
1911.246	364.77
1914.449	367.97
1917.652	368.05
1920.855	366.95
1924.058	365.53
1927.26	364.72
1930.462	367.69
1933.664	372.37
1936.865	368.37
1940.066	369.16
1943.267	365.66
1946.467	364.61
1949.668	367.41
1952.868	371.61
1956.067	371.23
1959.267	371.85
1962.466	373.15
1965.665	370.12
1968.863	370.6
1972.061	375.28
1975.259	378.86
1978.457	382.23
1981.654	385.17
1984.852	386.01
1988.048	384.14
1991.245	387.77
1994.441	393.16
1997.637	395.35
2000.833	402.94
2004.028	408.37
2007.223	411.09
2010.418	415.51
2013.613	421.57
2016.807	426.96
2020.001	428.94
2023.194	435.31
2026.388	445
2029.581	453.69
2032.774	458.64
2035.966	466.69
2039.158	468.81
2042.35	477.49
2045.542	479.03
2048.733	486.62
2051.924	492.51
2055.115	501.82
2058.306	502.58
2061.496	509.72
2064.686	508.68
2067.875	516.7
2071.065	519.14
2074.254	515.33
2077.442	520.14
2080.631	523.23
2083.819	528.82
2087.007	528.18
2090.195	532.96
2093.382	538.51
2096.569	532.44
2099.756	542.82
2102.942	543.56
2106.128	549.76
2109.314	562.77
2112.5	561.23
2115.685	573.45
2118.87	573.98
2122.055	586.7
2125.239	592.8
2128.424	600.13
2131.608	604.8
2134.791	611.71
2137.974	615.72
2141.157	616.4
2144.34	616.47
2147.523	626.71
2150.705	621.15
2153.887	626.76
2157.068	628.48
2160.25	621.72
2163.431	623.59
2166.611	629.85
2169.792	642.39
2172.972	649.42
2176.152	652.29
2179.331	662.93
2182.511	675.81
2185.69	684.23
2188.868	698.39
2192.047	699.93
2195.225	719.8
2198.403	738.02
2201.58	752.1
2204.758	766.48
2207.935	782.79
2211.111	798.37
2214.288	807.92
2217.464	809.69
2220.64	819.4
2223.815	832.44
2226.991	865.63
2230.166	869.79
2233.34	886.6
2236.515	900.84
2239.689	901.88
2242.863	906.67
2246.036	937.05
2249.209	925.56
2252.382	939.79
2255.555	971.36
2258.727	972.59
2261.9	979.43
2265.071	987.86
2268.243	1002.73
2271.414	1015.3
2274.585	1041.72
2277.756	1050.3
2280.926	1053.01
2284.096	1077.55
2287.266	1104.98
2290.436	1112.47
2293.605	1141.76
2296.774	1179.71
2299.942	1216.52
2303.111	1226.45
2306.279	1256.33
2309.447	1269.71
2312.614	1304.07
2315.781	1343.6
2318.948	1409.38
2322.115	1384.29
2325.281	1459.73
2328.447	1425.77
2331.613	1485.31
2334.779	1467.83
2337.944	1527.9
2341.109	1546.69
2344.274	1585.83
2347.438	1649.61
2350.602	1648.5
2353.766	1695.81
2356.929	1720.42
2360.092	1706.79
2363.255	1840.79
2366.418	1827.73
2369.58	1870.25
2372.742	1981.46
2375.904	2028.59
2379.066	2017.48
2382.227	1971.35
2385.388	2138.99
2388.548	2147.88
2391.709	2180.65
2394.869	2435.71
2398.029	2310.39
2401.188	2384.08
2404.347	2366.38
2407.506	2338.34
2410.665	2404.46
2413.823	2552.48
2416.981	2701.97
2420.139	2608.57
2423.296	2576.33
2426.453	2687
2429.61	2579.52
2432.767	2714.93
2435.923	2689.86
2439.079	2927.02
2442.235	2960.63
2445.391	2929.97
2448.546	2913.13
2451.701	2834.53
2454.855	2837.57
2458.009	3006.5
2461.163	3121.76
2464.317	3239.79
2467.471	3325.29
2470.624	3324.27
2473.777	3243.72
2476.929	3172.52
2480.082	3087.1
2483.234	3042.63
2486.385	3185.41
2489.537	3196.75
2492.688	3331.87
2495.839	3226.2
2498.989	3168.74
2502.14	3185.7
2505.29	3223.55
2508.439	3279.57
2511.589	3261.81
2514.738	3549.15
2517.887	3481.11
2521.035	3680.18
2524.183	3711.12
2527.331	3738.5
2530.479	3748.21
2533.627	3762.39
