Data from N_3_HIR_WI_4N_Splice17_14-07-44-201.txt Node
Date: Sat Mar 07 14:07:44 EST 2020
User: sa697716
Spectrometer: NQ5500242
Trigger mode: 0
Integration Time (sec): 1.450000E-1
Scans to average: 20
Nonlinearity correction enabled: false
Boxcar width: 5
Storing dark spectrum: false
XAxis mode: Wavelengths
Number of Pixels in Spectrum: 512
>>>>>Begin Spectral Data<<<<<
187.83	211.27
188.298	203.58
188.766	173.22
189.233	153.03
189.701	154.07
190.169	172.3
190.636	179.48
191.104	127.09
191.571	-78.83
192.039	-69.25
192.506	-411.48
192.974	280.63
193.441	256.16
193.908	51.87
194.375	48.31
194.842	-3.2
195.31	-19.42
195.777	-56.02
196.244	42.61
196.711	58.38
197.177	63.61
197.644	62.98
198.111	62.16
198.578	62.9
199.045	64.32
199.511	64.63
199.978	64.56
200.445	64.98
200.911	64.81
201.378	65.05
201.844	64.93
202.31	64.45
202.777	64.63
203.243	64.78
203.709	64.14
204.176	63.09
204.642	62.37
205.108	62.26
205.574	61.37
206.04	60.82
206.506	59.99
206.972	59.95
207.438	59.32
207.903	58.21
208.369	56.98
208.835	55.87
209.301	54.53
209.766	53.25
210.232	51.61
210.697	50.25
211.163	48.65
211.628	47.35
212.094	45.83
212.559	44.67
213.024	43.83
213.49	42.79
213.955	41.7
214.42	40.7
214.885	39.22
215.35	37.68
215.815	35.54
216.28	32.82
216.745	29.81
217.21	26.85
217.675	24.03
218.14	21.46
218.604	19.24
219.069	17.41
219.534	15.89
219.998	14.65
220.463	13.56
220.927	12.66
221.392	11.98
221.856	11.43
222.32	10.88
222.785	10.44
223.249	10.05
223.713	9.72
224.177	9.45
224.642	9.19
225.106	8.92
225.57	8.65
226.034	8.43
226.497	8.22
226.961	7.98
227.425	7.78
227.889	7.6
228.353	7.45
228.816	7.3
229.28	7.14
229.744	6.98
230.207	6.83
230.671	6.71
231.134	6.59
231.597	6.48
232.061	6.37
232.524	6.29
232.987	6.18
233.45	6.08
233.914	5.98
234.377	5.89
234.84	5.8
235.303	5.74
235.766	5.67
236.229	5.6
236.691	5.53
237.154	5.46
237.617	5.41
238.08	5.35
238.542	5.28
239.005	5.22
239.468	5.15
239.93	5.11
240.393	5.07
240.855	5
241.317	4.93
241.78	4.89
242.242	4.83
242.704	4.78
243.166	4.73
243.629	4.69
244.091	4.63
244.553	4.59
245.015	4.54
245.477	4.48
245.939	4.44
246.4	4.4
246.862	4.35
247.324	4.31
247.786	4.26
248.247	4.21
248.709	4.15
249.17	4.11
249.632	4.08
250.093	4.05
250.555	4.01
251.016	3.98
251.477	3.94
251.939	3.92
252.4	3.89
252.861	3.86
253.322	3.84
253.783	3.82
254.244	3.8
254.705	3.77
255.166	3.75
255.627	3.72
256.088	3.7
256.549	3.68
257.009	3.65
257.47	3.62
257.931	3.59
258.391	3.55
258.852	3.52
259.312	3.49
259.773	3.46
260.233	3.43
260.694	3.4
261.154	3.36
261.614	3.33
262.074	3.3
262.534	3.26
262.994	3.24
263.455	3.21
263.915	3.18
264.374	3.15
264.834	3.12
265.294	3.1
265.754	3.08
266.214	3.06
266.673	3.04
267.133	3.02
267.593	3.01
268.052	2.99
268.512	2.98
268.971	2.97
269.431	2.95
269.89	2.93
270.349	2.93
270.809	2.91
271.268	2.9
271.727	2.89
272.186	2.88
272.645	2.87
273.104	2.87
273.563	2.86
274.022	2.85
274.481	2.84
274.94	2.84
275.399	2.83
275.857	2.82
276.316	2.81
276.775	2.81
277.233	2.81
277.692	2.8
278.15	2.79
278.609	2.79
279.067	2.79
279.525	2.79
279.984	2.78
280.442	2.78
280.9	2.79
281.358	2.79
281.816	2.79
282.274	2.79
282.732	2.8
283.19	2.8
283.648	2.8
284.106	2.79
284.564	2.79
285.021	2.8
285.479	2.8
285.937	2.79
286.394	2.79
286.852	2.78
287.309	2.78
287.767	2.77
288.224	2.76
288.682	2.74
289.139	2.73
289.596	2.71
290.053	2.69
290.511	2.67
290.968	2.66
291.425	2.64
291.882	2.63
292.339	2.61
292.796	2.6
293.252	2.58
293.709	2.59
294.166	2.58
294.623	2.57
295.079	2.56
295.536	2.56
295.992	2.56
296.449	2.54
296.905	2.54
297.362	2.54
297.818	2.53
298.274	2.53
298.731	2.52
299.187	2.5
299.643	2.5
300.099	2.49
300.555	2.49
301.011	2.48
301.467	2.48
301.923	2.47
302.379	2.47
302.835	2.48
303.291	2.47
303.746	2.47
304.202	2.48
304.658	2.47
305.113	2.47
305.569	2.47
306.024	2.48
306.479	2.48
306.935	2.48
307.39	2.48
307.845	2.49
308.301	2.5
308.756	2.5
309.211	2.5
309.666	2.52
310.121	2.52
310.576	2.53
311.031	2.53
311.486	2.54
311.94	2.55
312.395	2.55
312.85	2.55
313.305	2.55
313.759	2.56
314.214	2.56
314.668	2.56
315.123	2.56
315.577	2.56
316.032	2.56
316.486	2.55
316.94	2.55
317.394	2.54
317.849	2.53
318.303	2.52
318.757	2.5
319.211	2.49
319.665	2.48
320.119	2.47
320.572	2.46
321.026	2.45
321.48	2.44
321.934	2.43
322.387	2.43
322.841	2.42
323.295	2.42
323.748	2.42
324.202	2.42
324.655	2.42
325.108	2.42
325.562	2.42
326.015	2.42
326.468	2.43
326.921	2.43
327.374	2.44
327.827	2.45
328.28	2.45
328.733	2.46
329.186	2.46
329.639	2.47
330.092	2.47
330.545	2.47
330.997	2.47
331.45	2.48
331.903	2.48
332.355	2.49
332.808	2.49
333.26	2.5
333.713	2.5
334.165	2.49
334.617	2.51
335.069	2.51
335.522	2.53
335.974	2.54
336.426	2.54
336.878	2.54
337.33	2.54
337.782	2.55
338.234	2.56
338.686	2.56
339.137	2.57
339.589	2.56
340.041	2.56
340.493	2.55
340.944	2.53
341.396	2.52
341.847	2.51
342.299	2.49
342.75	2.48
343.201	2.47
343.653	2.46
344.104	2.44
344.555	2.44
345.006	2.43
345.457	2.43
345.908	2.42
346.359	2.43
346.81	2.42
347.261	2.43
347.712	2.43
348.163	2.42
348.613	2.44
349.064	2.44
349.515	2.45
349.965	2.45
350.416	2.45
350.866	2.45
351.317	2.45
351.767	2.46
352.217	2.47
352.668	2.47
353.118	2.48
353.568	2.49
354.018	2.5
354.468	2.51
354.918	2.53
355.368	2.55
355.818	2.57
356.268	2.59
356.718	2.61
357.168	2.62
357.617	2.63
358.067	2.65
358.517	2.69
358.966	2.72
359.416	2.74
359.865	2.76
360.315	2.8
360.764	2.83
361.213	2.86
361.663	2.89
362.112	2.94
362.561	3
363.01	3.05
363.459	3.09
363.908	3.14
364.357	3.2
364.806	3.26
365.255	3.32
365.703	3.4
366.152	3.49
366.601	3.58
367.05	3.67
367.498	3.76
367.947	3.87
368.395	3.98
368.844	4.09
369.292	4.21
369.74	4.34
370.189	4.45
370.637	4.58
371.085	4.7
371.533	4.83
371.981	4.96
372.429	5.09
372.877	5.23
373.325	5.36
373.773	5.5
374.221	5.65
374.669	5.79
375.116	5.93
375.564	6.08
376.012	6.22
376.459	6.37
376.907	6.53
377.354	6.69
377.801	6.84
378.249	7
378.696	7.15
379.143	7.3
379.591	7.46
380.038	7.61
380.485	7.76
380.932	7.92
381.379	8.06
381.826	8.2
382.273	8.34
382.72	8.46
383.166	8.59
383.613	8.71
384.06	8.83
384.506	8.95
384.953	9.07
385.4	9.18
385.846	9.3
386.292	9.41
386.739	9.5
387.185	9.6
387.631	9.72
388.078	9.8
388.524	9.89
388.97	9.97
389.416	10.05
389.862	10.13
390.308	10.2
390.754	10.26
391.2	10.34
391.645	10.4
392.091	10.47
392.537	10.53
392.983	10.59
393.428	10.64
393.874	10.68
394.319	10.71
394.765	10.74
395.21	10.75
395.655	10.77
396.101	10.79
396.546	10.8
396.991	10.8
397.436	10.79
397.881	10.81
398.326	10.82
398.771	10.84
399.216	10.84
399.661	10.85
400.106	10.84
400.551	10.82
400.995	10.78
401.44	10.74
401.885	10.71
402.329	10.7
402.774	10.66
403.218	10.63
403.663	10.59
404.107	10.55
404.551	10.51
404.995	10.48
405.44	10.44
405.884	10.41
406.328	10.38
406.772	10.34
407.216	10.29
407.66	10.25
408.104	10.19
408.547	10.14
408.991	10.09
409.435	10.04
409.879	9.98
410.322	9.96
410.766	9.93
411.209	9.92
411.653	9.9
412.096	9.88
412.54	9.86
412.983	9.85
413.426	9.86
413.869	9.86
414.312	9.87
414.756	9.87
415.199	9.85
415.642	9.86
416.085	9.84
416.527	9.82
416.97	9.79
417.413	9.77
417.856	9.73
418.298	9.68
418.741	9.64
419.184	9.61
419.626	9.58
420.069	9.57
420.511	9.52
420.953	9.51
421.396	9.51
421.838	9.5
422.28	9.49
422.722	9.5
423.164	9.49
423.606	9.49
424.048	9.48
424.49	9.48
424.932	9.44
425.374	9.41
425.816	9.35
426.258	9.3
426.699	9.26
427.141	9.21
427.582	9.2
428.024	9.18
428.465	9.17
428.907	9.15
429.348	9.11
429.789	9.1
430.231	9.11
430.672	9.13
431.113	9.15
431.554	9.17
431.995	9.21
432.436	9.22
432.877	9.23
433.318	9.24
433.759	9.29
434.2	9.34
434.64	9.38
435.081	9.42
435.522	9.47
435.962	9.51
436.403	9.56
436.843	9.61
437.284	9.64
437.724	9.7
438.164	9.73
438.604	9.77
439.045	9.8
439.485	9.86
439.925	9.91
440.365	9.96
440.805	10.02
441.245	10.09
441.685	10.16
442.125	10.25
442.564	10.34
443.004	10.42
443.444	10.51
443.883	10.61
444.323	10.7
444.762	10.81
445.202	10.92
445.641	11.04
446.081	11.12
446.52	11.21
446.959	11.3
447.398	11.41
447.837	11.52
448.276	11.62
448.716	11.73
449.154	11.83
449.593	11.92
450.032	12.01
450.471	12.09
450.91	12.17
451.349	12.26
451.787	12.34
452.226	12.4
452.664	12.46
453.103	12.51
453.541	12.55
453.98	12.61
454.418	12.64
454.856	12.68
455.295	12.71
455.733	12.72
456.171	12.74
456.609	12.77
457.047	12.79
457.485	12.82
457.923	12.86
458.361	12.88
458.798	12.9
459.236	12.93
459.674	12.95
460.111	12.98
460.549	13.02
460.987	13.06
461.424	13.08
461.862	13.1
462.299	13.13
462.736	13.13
463.173	13.15
463.611	13.15
464.048	13.16
464.485	13.19
464.922	13.19
465.359	13.21
465.796	13.22
466.233	13.25
466.67	13.27
467.106	13.29
467.543	13.3
467.98	13.31
468.416	13.31
468.853	13.33
469.29	13.34
469.726	13.36
470.162	13.36
470.599	13.37
471.035	13.36
471.471	13.36
471.907	13.38
472.344	13.4
472.78	13.43
473.216	13.44
473.652	13.46
474.088	13.47
474.523	13.48
474.959	13.5
475.395	13.48
475.831	13.51
476.266	13.52
476.702	13.52
477.138	13.52
477.573	13.53
478.008	13.55
478.444	13.56
478.879	13.57
479.314	13.58
479.75	13.59
480.185	13.61
480.62	13.63
481.055	13.65
481.49	13.68
481.925	13.7
482.36	13.74
482.795	13.77
483.229	13.8
483.664	13.85
484.099	13.91
484.534	13.97
484.968	14.05
485.403	14.11
485.837	14.19
486.271	14.29
486.706	14.39
487.14	14.48
487.574	14.6
488.009	14.71
488.443	14.82
488.877	14.94
489.311	15.09
489.745	15.23
490.179	15.4
490.613	15.55
491.046	15.71
491.48	15.87
491.914	16.05
492.348	16.23
492.781	16.44
493.215	16.64
493.648	16.85
494.082	17.06
494.515	17.25
494.948	17.46
495.382	17.7
495.815	17.93
496.248	18.18
496.681	18.43
497.114	18.68
497.547	18.94
497.98	19.2
498.413	19.47
498.846	19.75
499.279	20.05
499.711	20.34
500.144	20.63
500.577	20.93
501.009	21.22
501.442	21.53
501.874	21.84
502.306	22.16
502.739	22.49
503.171	22.83
503.603	23.16
504.036	23.49
504.468	23.81
504.9	24.15
505.332	24.5
505.764	24.84
506.196	25.18
506.627	25.54
507.059	25.89
507.491	26.23
507.923	26.58
508.354	26.94
508.786	27.31
509.217	27.69
509.649	28.06
510.08	28.42
510.512	28.79
510.943	29.15
511.374	29.51
511.805	29.88
512.237	30.24
512.668	30.59
513.099	30.96
513.53	31.3
513.961	31.65
514.391	31.99
514.822	32.35
515.253	32.68
515.684	33.01
516.114	33.35
516.545	33.65
516.975	33.97
517.406	34.28
517.836	34.58
518.267	34.88
518.697	35.16
519.127	35.43
519.558	35.71
519.988	35.99
520.418	36.27
520.848	36.52
521.278	36.78
521.708	37.15
522.138	37.39
522.567	37.62
522.997	37.83
523.427	38.06
523.857	38.28
524.286	38.46
524.716	38.65
525.145	38.83
525.575	39.02
526.004	39.2
526.433	39.26
526.863	39.4
527.292	39.54
527.721	39.68
528.15	39.81
528.579	39.96
529.008	40.11
529.437	40.23
529.866	40.34
530.295	40.46
530.724	40.58
531.152	40.67
531.581	40.8
532.01	40.92
532.438	41.04
532.867	41.14
533.295	41.22
533.723	41.29
534.152	41.37
534.58	41.46
535.008	41.49
535.436	41.55
535.865	41.61
536.293	41.64
536.721	41.67
537.149	41.72
537.576	41.77
538.004	41.83
538.432	41.85
538.86	41.89
539.287	41.92
539.715	41.98
540.143	42.01
540.57	42.04
540.998	42.07
541.425	42.09
541.852	42.13
542.28	42.16
542.707	42.17
543.134	42.2
543.561	42.23
543.988	42.26
544.415	42.27
544.842	42.3
545.269	42.32
545.696	42.36
546.123	42.41
546.549	42.45
546.976	42.5
547.403	42.53
547.829	42.56
548.256	42.59
548.682	42.62
549.108	42.68
549.535	42.72
549.961	42.77
550.387	42.79
550.813	42.79
551.24	42.81
551.666	42.8
552.092	42.82
552.518	42.86
552.943	42.87
553.369	42.87
553.795	42.87
554.221	42.85
554.646	42.85
555.072	42.85
555.498	42.84
555.923	42.81
556.349	42.79
556.774	42.78
557.199	42.74
557.625	42.71
558.05	42.68
558.475	42.64
558.9	42.63
559.325	42.61
559.75	42.56
560.175	42.53
560.6	42.47
561.025	42.43
561.449	42.37
561.874	42.31
562.299	42.25
562.723	42.19
563.148	42.11
563.572	42.01
563.997	41.91
564.421	41.81
564.846	41.72
565.27	41.64
565.694	41.54
566.118	41.43
566.542	41.32
566.966	41.19
567.39	41.09
567.814	40.96
568.238	40.83
568.662	40.69
569.086	40.59
569.509	40.46
569.933	40.34
570.357	40.19
570.78	40.07
571.204	39.95
571.627	39.84
572.05	39.73
572.474	39.66
572.897	39.55
573.32	39.45
573.743	39.35
574.166	39.26
574.589	39.17
575.012	39.11
575.435	39.03
575.858	38.95
576.281	38.87
576.704	38.81
577.126	38.73
577.549	38.67
577.972	38.62
578.394	38.55
578.817	38.47
579.239	38.41
579.661	38.33
580.084	38.28
580.506	38.24
580.928	38.17
581.35	38.09
581.772	38.01
582.194	37.97
582.616	37.91
583.038	37.84
583.46	37.77
583.882	37.7
584.303	37.66
584.725	37.6
585.147	37.53
585.568	37.49
585.99	37.43
586.411	37.38
586.833	37.31
587.254	37.26
587.675	37.24
588.096	37.21
588.518	37.16
588.939	37.11
589.36	37.06
589.781	37.03
590.202	37
590.623	36.97
591.043	36.92
591.464	36.91
591.885	36.87
592.305	36.82
592.726	36.8
593.147	36.78
593.567	36.75
593.987	36.72
594.408	36.68
594.828	36.64
595.248	36.61
595.669	36.61
596.089	36.56
596.509	36.53
596.929	36.49
597.349	36.44
597.769	36.4
598.189	36.35
598.608	36.33
599.028	36.3
599.448	36.25
599.867	36.19
600.287	36.13
600.706	36.09
601.126	36.03
601.545	35.98
601.965	35.93
602.384	35.87
602.803	35.83
603.222	35.76
603.641	35.69
604.061	35.62
604.48	35.55
604.898	35.48
605.317	35.41
605.736	35.35
606.155	35.28
606.574	35.21
606.992	35.12
607.411	35.04
607.829	34.93
608.248	34.84
608.666	34.76
609.085	34.69
609.503	34.61
609.921	34.51
610.339	34.41
610.758	34.32
611.176	34.22
611.594	34.13
612.012	34.01
612.43	33.94
612.847	33.86
613.265	33.77
613.683	33.7
614.101	33.6
614.518	33.51
614.936	33.42
615.353	33.33
615.771	33.26
616.188	33.18
616.606	33.12
617.023	33.05
617.44	32.98
617.857	32.92
618.274	32.84
618.691	32.79
619.108	32.74
619.525	32.7
619.942	32.65
620.359	32.6
620.776	32.54
621.192	32.5
621.609	32.47
622.026	32.43
622.442	32.39
622.859	32.37
623.275	32.32
623.691	32.29
624.108	32.25
624.524	32.23
624.94	32.22
625.356	32.2
625.772	32.19
626.188	32.17
626.604	32.14
627.02	32.14
627.436	32.11
627.852	32.11
628.268	32.1
628.683	32.11
629.099	32.1
629.514	32.08
629.93	32.07
630.345	32.04
630.761	31.99
631.176	31.97
631.591	31.91
632.007	31.87
632.422	31.82
632.837	31.77
633.252	31.69
633.667	31.6
634.082	31.51
634.497	31.43
634.911	31.31
635.326	31.23
635.741	31.12
636.155	31
636.57	30.87
636.984	30.73
637.399	30.59
637.813	30.43
638.228	30.26
638.642	30.09
639.056	29.91
639.47	29.74
639.884	29.55
640.298	29.34
640.712	29.16
641.126	28.97
641.54	28.75
641.954	28.54
642.368	28.32
642.781	28.12
643.195	27.92
643.609	27.7
644.022	27.5
644.436	27.31
644.849	27.12
645.262	26.91
645.676	26.72
646.089	26.56
646.502	26.39
646.915	26.24
647.328	26.09
647.741	25.94
648.154	25.81
648.567	25.68
648.98	25.54
649.393	25.42
649.805	25.31
650.218	25.2
650.631	25.1
651.043	24.99
651.456	24.89
651.868	24.78
652.28	24.68
652.693	24.58
653.105	24.44
653.517	24.34
653.929	24.21
654.341	24.06
654.753	23.89
655.165	23.74
655.577	23.57
655.989	23.37
656.401	23.17
656.813	22.98
657.224	22.75
657.636	22.52
658.047	22.29
658.459	22.05
658.87	21.8
659.282	21.57
659.693	21.31
660.104	21.04
660.515	20.78
660.926	20.51
661.338	20.22
661.749	19.98
662.159	19.73
662.57	19.48
662.981	19.22
663.392	18.96
663.803	18.72
664.213	18.47
664.624	18.24
665.035	18.01
665.445	17.81
665.855	17.6
666.266	17.39
666.676	17.21
667.086	17.02
667.497	16.85
667.907	16.71
668.317	16.55
668.727	16.41
669.137	16.29
669.547	16.19
669.956	16.08
670.366	15.99
670.776	15.89
671.186	15.8
671.595	15.75
672.005	15.67
672.414	15.62
672.824	15.58
673.233	15.55
673.642	15.52
674.052	15.48
674.461	15.45
674.87	15.45
675.279	15.46
675.688	15.48
676.097	15.5
676.506	15.54
676.915	15.59
677.323	15.67
677.732	15.76
678.141	15.89
678.549	16.03
678.958	16.2
679.366	16.4
679.775	16.62
680.183	16.88
680.592	17.18
681	17.53
681.408	17.9
681.816	18.3
682.224	18.74
682.632	19.21
683.04	19.71
683.448	20.26
683.856	20.82
684.264	21.43
684.671	22.07
685.079	22.75
685.487	23.43
685.894	24.15
686.302	24.89
686.709	25.63
687.116	26.37
687.524	27.15
687.931	27.93
688.338	28.72
688.745	29.49
689.152	30.24
689.559	31.02
689.966	31.77
690.373	32.5
690.78	33.24
691.187	33.97
691.593	34.66
692	35.32
692.407	35.97
692.813	36.61
693.22	37.23
693.626	37.83
694.032	38.42
694.439	38.97
694.845	39.51
695.251	40.02
695.657	40.5
696.063	40.98
696.469	41.46
696.875	41.92
697.281	42.37
697.687	42.78
698.093	43.17
698.498	43.55
698.904	43.92
699.31	44.26
699.715	44.6
700.12	44.93
700.526	45.27
700.931	45.57
701.337	45.86
701.742	46.11
702.147	46.38
702.552	46.67
702.957	46.9
703.362	47.14
703.767	47.37
704.172	47.58
704.577	47.79
704.981	48
705.386	48.19
705.791	48.38
706.195	48.59
706.6	48.77
707.004	48.92
707.408	49.08
707.813	49.27
708.217	49.42
708.621	49.6
709.025	49.74
709.43	49.83
709.834	49.99
710.237	50.12
710.641	50.23
711.045	50.33
711.449	50.48
711.853	50.62
712.256	50.72
712.66	50.85
713.064	50.94
713.467	51.07
713.87	51.21
714.274	51.29
714.677	51.4
715.08	51.48
715.484	51.6
715.887	51.7
716.29	51.79
716.693	51.89
717.096	51.96
717.499	52.05
717.901	52.13
718.304	52.22
718.707	52.34
719.109	52.45
719.512	52.53
719.915	52.62
720.317	52.67
720.719	52.71
721.122	52.78
721.524	52.86
721.926	52.93
722.328	53
722.731	53.06
723.133	53.11
723.535	53.14
723.937	53.21
724.338	53.25
724.74	53.32
725.142	53.45
725.544	53.5
725.945	53.56
726.347	53.59
726.748	53.61
727.15	53.64
727.551	53.68
727.952	53.69
728.354	53.73
728.755	53.75
729.156	53.76
729.557	53.72
729.958	53.72
730.359	53.75
730.76	53.78
731.161	53.83
731.562	53.88
731.962	53.86
732.363	53.9
732.763	53.94
733.164	53.95
733.564	53.98
733.965	54.02
734.365	54.05
734.766	54.07
735.166	54.08
735.566	54.09
735.966	54.11
736.366	54.15
736.766	54.13
737.166	54.11
737.566	54.13
737.966	54.12
738.365	54.14
738.765	54.15
739.165	54.15
739.564	54.17
739.964	54.18
740.363	54.16
740.763	54.16
741.162	54.19
741.561	54.21
741.96	54.2
742.36	54.2
742.759	54.19
743.158	54.18
743.557	54.15
743.955	54.15
744.354	54.15
744.753	54.21
745.152	54.25
745.55	54.24
745.949	54.27
746.348	54.31
746.746	54.34
747.144	54.36
747.543	54.37
747.941	54.4
748.339	54.39
748.737	54.39
749.136	54.35
749.534	54.34
749.932	54.36
750.33	54.36
750.727	54.36
751.125	54.36
751.523	54.34
751.921	54.35
752.318	54.37
752.716	54.37
753.113	54.39
753.511	54.41
753.908	54.42
754.305	54.41
754.703	54.37
755.1	54.36
755.497	54.35
755.894	54.35
756.291	54.32
756.688	54.29
757.085	54.3
757.482	54.26
757.878	54.24
758.275	54.22
758.672	54.21
759.068	54.23
759.465	54.19
759.861	54.19
760.258	54.21
760.654	54.21
761.05	54.23
761.447	54.22
761.843	54.21
762.239	54.2
762.635	54.2
763.031	54.19
763.427	54.18
763.822	54.21
764.218	54.2
764.614	54.18
765.01	54.16
765.405	54.13
765.801	54.11
766.196	54.13
766.592	54.12
766.987	54.11
767.382	54.11
767.778	54.11
768.173	54.13
768.568	54.13
768.963	54.12
769.358	54.16
769.753	54.17
770.148	54.17
770.542	54.17
770.937	54.18
771.332	54.18
771.726	54.18
772.121	54.17
772.515	54.18
772.91	54.15
773.304	54.17
773.699	54.16
774.093	54.12
774.487	54.14
774.881	54.14
775.275	54.11
775.669	54.11
776.063	54.09
776.457	54.1
776.851	54.04
777.245	54.05
777.638	54.03
778.032	54.03
778.425	54.07
778.819	54.06
779.212	54.07
779.606	54.11
779.999	54.1
780.392	54.16
780.786	54.17
781.179	54.2
781.572	54.26
781.965	54.27
782.358	54.29
782.751	54.28
783.143	54.3
783.536	54.29
783.929	54.28
784.322	54.31
784.714	54.3
785.107	54.32
785.499	54.32
785.891	54.31
786.284	54.34
786.676	54.33
787.068	54.34
787.46	54.36
787.852	54.39
788.245	54.38
788.636	54.39
789.028	54.41
789.42	54.39
789.812	54.42
790.204	54.43
790.595	54.45
790.987	54.49
791.378	54.53
791.77	54.53
792.161	54.49
792.553	54.53
792.944	54.53
793.335	54.52
793.726	54.55
794.117	54.5
794.508	54.48
794.899	54.46
795.29	54.46
795.681	54.42
796.072	54.43
796.463	54.46
796.853	54.46
797.244	54.46
797.634	54.47
798.025	54.49
798.415	54.5
798.806	54.51
799.196	54.54
799.586	54.52
799.976	54.57
800.366	54.58
800.756	54.62
801.146	54.64
801.536	54.7
801.926	54.68
802.316	54.67
802.706	54.71
803.095	54.75
803.485	54.74
803.874	54.76
804.264	54.75
804.653	54.76
805.043	54.74
805.432	54.75
805.821	54.73
806.21	54.76
806.599	54.78
806.988	54.78
807.377	54.79
807.766	54.81
808.155	54.78
808.544	54.78
808.933	54.78
809.321	54.8
809.71	54.79
810.098	54.78
810.487	54.76
810.875	54.76
811.264	54.77
811.652	54.75
812.04	54.75
812.428	54.8
812.816	54.81
813.204	54.82
813.592	54.82
813.98	54.82
814.368	54.85
814.756	54.86
815.144	54.85
815.531	54.86
815.919	54.85
816.306	54.87
816.694	54.86
817.081	54.86
817.469	54.88
817.856	54.89
818.243	54.87
818.63	54.85
819.017	54.88
819.404	54.88
819.791	54.87
820.178	54.91
820.565	54.86
820.952	54.87
821.339	54.87
821.725	54.87
822.112	54.87
822.498	54.91
822.885	54.93
823.271	54.9
823.657	54.87
824.044	54.86
824.43	54.86
824.816	54.89
825.202	54.87
825.588	54.87
825.974	54.87
826.36	54.88
826.746	54.84
827.132	54.81
827.517	54.83
827.903	54.86
828.289	54.87
828.674	54.85
829.06	54.84
829.445	54.82
829.83	54.81
830.216	54.77
830.601	54.74
830.986	54.72
831.371	54.71
831.756	54.71
832.141	54.66
832.526	54.64
832.911	54.6
833.295	54.58
833.68	54.58
834.065	54.58
834.449	54.55
834.834	54.53
835.218	54.54
835.603	54.53
835.987	54.5
836.371	54.49
836.755	54.45
837.139	54.44
837.524	54.44
837.908	54.45
838.291	54.45
838.675	54.46
839.059	54.46
839.443	54.43
839.827	54.42
840.21	54.4
840.594	54.43
840.977	54.41
841.361	54.4
841.744	54.36
842.127	54.32
842.511	54.26
842.894	54.26
843.277	54.25
843.66	54.23
844.043	54.24
844.426	54.23
844.809	54.21
845.191	54.25
845.574	54.25
845.957	54.28
846.339	54.28
846.722	54.29
847.104	54.29
847.487	54.28
847.869	54.28
848.252	54.27
848.634	54.27
849.016	54.27
849.398	54.25
849.78	54.27
850.162	54.24
850.544	54.23
850.926	54.23
851.307	54.22
851.689	54.23
852.071	54.24
852.452	54.25
852.834	54.27
853.215	54.26
853.597	54.25
853.978	54.24
854.359	54.26
854.741	54.25
855.122	54.27
855.503	54.26
855.884	54.22
856.265	54.19
856.646	54.15
857.026	54.16
857.407	54.16
857.788	54.18
858.169	54.17
858.549	54.16
858.93	54.17
859.31	54.16
859.69	54.18
860.071	54.22
860.451	54.24
860.831	54.25
861.211	54.2
861.591	54.22
861.971	54.21
862.351	54.25
862.731	54.28
863.111	54.28
863.491	54.29
863.87	54.28
864.25	54.22
864.629	54.22
865.009	54.23
865.388	54.26
865.768	54.23
866.147	54.23
866.526	54.19
866.905	54.16
867.284	54.17
867.663	54.17
868.042	54.18
868.421	54.21
868.8	54.23
869.179	54.23
869.558	54.21
869.936	54.22
870.315	54.21
870.693	54.22
871.072	54.24
871.45	54.24
871.828	54.23
872.207	54.22
872.585	54.2
872.963	54.2
873.341	54.19
873.719	54.22
874.097	54.2
874.475	54.23
874.853	54.24
875.23	54.23
875.608	54.23
875.986	54.26
876.363	54.3
876.741	54.31
877.118	54.33
877.495	54.35
877.873	54.34
878.25	54.37
878.627	54.37
879.004	54.38
879.381	54.38
879.758	54.37
880.135	54.37
880.512	54.32
880.889	54.31
881.265	54.29
881.642	54.29
882.019	54.31
882.395	54.26
882.772	54.23
883.148	54.17
883.524	54.18
883.901	54.16
884.277	54.12
884.653	54.1
885.029	54.09
885.405	54.07
885.781	54.04
886.157	54
886.532	54.03
886.908	54
887.284	54
887.659	53.96
888.035	53.95
888.411	53.97
888.786	53.97
889.161	53.96
889.537	53.96
889.912	53.95
890.287	53.95
890.662	53.92
891.037	53.93
891.412	53.92
891.787	53.89
892.162	53.88
892.536	53.85
892.911	53.84
893.286	53.83
893.66	53.8
894.035	53.79
894.409	53.77
894.784	53.76
895.158	53.75
895.532	53.74
895.906	53.73
896.281	53.74
896.655	53.72
897.029	53.71
897.402	53.69
897.776	53.72
898.15	53.71
898.524	53.73
898.898	53.71
899.271	53.71
899.645	53.74
900.018	53.77
900.392	53.78
900.765	53.81
901.138	53.82
901.511	53.86
901.884	53.88
902.258	53.91
902.631	53.9
903.003	53.94
903.376	53.95
903.749	53.95
904.122	53.96
904.495	53.98
904.867	53.99
905.24	54.02
905.612	54.01
905.985	53.98
906.357	53.97
906.729	53.98
907.102	53.97
907.474	53.98
907.846	54
908.218	53.99
908.59	54.01
908.962	54.02
909.334	54
909.705	53.99
910.077	54.01
910.449	54.02
910.82	54.02
911.192	54.03
911.563	54.02
911.935	54.01
912.306	54.06
912.677	54.06
913.048	54.05
913.419	54.06
913.79	54.07
914.161	54.06
914.532	54.09
914.903	54.09
915.274	54.12
915.645	54.13
916.015	54.17
916.386	54.15
916.756	54.13
917.127	54.15
917.497	54.16
917.868	54.19
918.238	54.21
918.608	54.24
918.978	54.25
919.348	54.25
919.718	54.23
920.088	54.21
920.458	54.21
920.828	54.21
921.198	54.18
921.567	54.17
921.937	54.17
922.306	54.17
922.676	54.14
923.045	54.1
923.415	54.07
923.784	54.07
924.153	54.08
924.522	54.1
924.891	54.11
925.26	54.14
925.629	54.14
925.998	54.15
926.367	54.16
926.736	54.18
927.104	54.23
927.473	54.21
927.842	54.2
928.21	54.2
928.578	54.15
928.947	54.16
929.315	54.11
929.683	54.09
930.051	54
930.42	53.96
930.788	53.9
931.156	53.81
931.523	53.78
931.891	53.78
932.259	53.75
932.627	53.71
932.994	53.68
933.362	53.66
933.729	53.65
934.097	53.68
934.464	53.7
934.831	53.65
935.199	53.68
935.566	53.71
935.933	53.66
936.3	53.61
936.667	53.61
937.034	53.58
937.401	53.62
937.767	53.63
938.134	53.59
938.501	53.55
938.867	53.61
939.234	53.64
939.6	53.63
939.967	53.71
940.333	53.73
940.699	53.8
941.065	53.87
941.431	53.88
941.798	53.88
942.163	53.9
942.529	53.97
942.895	54.02
943.261	54.04
943.627	54.08
943.992	54.09
944.358	54.15
944.723	54.15
945.089	54.08
945.454	54.09
945.82	54.09
946.185	54.15
946.55	54.12
946.915	54.12
947.28	54.08
947.645	54.05
948.01	54.07
948.375	54.03
948.74	54.02
949.104	54.05
949.469	53.98
949.834	53.91
950.198	53.89
950.562	53.86
950.927	53.82
951.291	53.78
951.655	53.75
952.02	53.68
952.384	53.64
952.748	53.6
953.112	53.55
953.476	53.54
953.839	53.51
954.203	53.46
954.567	53.43
954.931	53.37
955.294	53.37
955.658	53.38
956.021	53.38
956.385	53.32
956.748	53.28
957.111	53.24
957.474	53.23
957.837	53.21
958.2	53.19
958.563	53.18
958.926	53.2
959.289	53.17
959.652	53.12
960.015	53.1
960.377	53.12
960.74	53.16
961.102	53.2
961.465	53.23
961.827	53.26
962.189	53.3
962.552	53.27
962.914	53.21
963.276	53.25
963.638	53.28
964	53.26
964.362	53.29
964.724	53.26
965.085	53.23
965.447	53.2
965.809	53.19
966.17	53.18
966.532	53.19
966.893	53.27
967.255	53.24
967.616	53.25
967.977	53.26
968.338	53.24
968.699	53.21
969.061	53.24
969.421	53.25
969.782	53.23
970.143	53.23
970.504	53.24
970.865	53.26
971.225	53.27
971.586	53.27
971.946	53.28
972.307	53.26
972.667	53.29
973.027	53.31
973.388	53.3
973.748	53.38
974.108	53.42
974.468	53.44
974.828	53.46
975.188	53.42
975.548	53.44
975.907	53.46
976.267	53.48
976.627	53.47
976.986	53.44
977.346	53.43
977.705	53.43
978.064	53.36
978.424	53.37
978.783	53.31
979.142	53.34
979.501	53.36
979.86	53.34
980.219	53.29
980.578	53.38
980.937	53.44
981.296	53.4
981.654	53.36
982.013	53.44
982.371	53.41
982.73	53.42
983.088	53.46
983.447	53.37
983.805	53.39
984.163	53.49
984.521	53.45
984.879	53.32
985.237	53.35
985.595	53.41
985.953	53.37
986.311	53.35
986.669	53.42
987.026	53.42
987.384	53.48
987.741	53.48
988.099	53.47
988.456	53.48
988.814	53.6
989.171	53.66
989.528	53.7
989.885	53.67
990.242	53.73
990.599	53.74
990.956	53.84
991.313	53.91
991.67	53.9
992.027	53.93
992.383	54
992.74	54.07
993.096	54.07
993.453	54.03
993.809	54.15
994.165	54.27
994.522	54.28
994.878	54.24
995.234	54.24
995.59	54.19
995.946	54.22
996.302	54.24
996.658	54.35
997.013	54.38
997.369	54.4
997.725	54.36
998.08	54.37
998.436	54.41
998.791	54.43
999.147	54.42
999.502	54.56
999.857	54.58
1000.212	54.54
1000.567	54.53
1000.922	54.6
1001.277	54.66
1001.632	54.72
1001.987	54.62
1002.342	54.57
1002.696	54.53
1003.051	54.6
1003.406	54.73
1003.76	54.76
1004.114	54.74
1004.469	54.67
1004.823	54.86
1005.177	54.9
1005.531	55.02
1005.885	55.07
1006.239	55.04
1006.593	55.2
1006.947	55.28
1007.301	55.15
1007.655	55.18
1008.008	55.25
1008.362	55.36
1008.715	55.29
1009.069	55.36
1009.422	55.3
1009.776	55.34
1010.129	55.66
1010.482	55.77
1010.835	55.77
1011.188	55.95
1011.541	55.95
1011.894	56.1
1012.247	56.05
1012.6	56.01
1012.952	55.88
1013.305	56
1013.657	56.18
1014.01	56.03
1014.362	55.92
1014.715	55.89
1015.067	55.96
1015.419	56.22
1015.771	56.31
1016.123	56.44
1016.475	56.58
1016.827	56.7
1017.179	56.69
1017.531	56.82
1017.883	56.85
1018.234	57.04
1018.586	57.23
1018.938	57.14
1019.289	56.95
1019.64	56.9
1019.992	56.83
1020.343	56.89
1020.694	57.09
1021.045	57.27
1021.396	57.17
1021.747	57.22
1022.098	57.13
1022.449	57.21
1022.8	57.48
1023.151	57.59
1023.501	57.83
1023.852	58
1024.202	57.82
1024.553	57.9
1024.903	57.98
1025.253	58.2
1025.604	58.23
1025.954	58.11
1026.304	58.05
1026.654	58.07
1027.004	58
1027.354	57.9
1027.703	57.88
1028.053	57.91
1028.403	57.75
1028.753	57.44
1029.102	57.63
1029.452	58.02
1029.801	58.62
1030.15	58.73
1030.499	58.65
897.758	1209.35
901.051	1217.67
904.343	1215.84
907.636	1235.21
910.928	1201.23
914.22	1198.39
917.511	1182.44
920.803	1134.37
924.094	1129.28
927.384	1103.88
930.675	1058.34
933.965	1052.2
937.255	989.68
940.544	948.83
943.834	905.07
947.123	898.47
950.411	845.39
953.7	827.91
956.988	786.3
960.276	752.43
963.563	738.22
966.851	713.04
970.138	708.18
973.424	686.11
976.711	690.49
979.997	656.87
983.283	652.93
986.568	641.24
989.853	622.81
993.138	609.57
996.423	588.46
999.708	574.06
1002.992	566.89
1006.275	543.05
1009.559	537.41
1012.842	518.7
1016.125	504.7
1019.408	494.59
1022.69	489.77
1025.972	480.19
1029.254	469.03
1032.536	460.72
1035.817	451.86
1039.098	446.84
1042.379	436.52
1045.659	432.15
1048.939	421.78
1052.219	413.67
1055.498	409.73
1058.778	398.76
1062.057	389.52
1065.335	385.68
1068.614	381.7
1071.892	377.53
1075.17	365.75
1078.447	359.72
1081.724	357.33
1085.001	354.92
1088.278	349.13
1091.554	340.65
1094.83	342.46
1098.106	339.31
1101.382	336.57
1104.657	333.08
1107.932	327.79
1111.206	330.3
1114.481	321.84
1117.755	318.76
1121.029	315.84
1124.302	313.73
1127.575	310.2
1130.848	305.59
1134.121	302.59
1137.393	301.03
1140.665	296
1143.937	294.42
1147.208	291.08
1150.48	290.9
1153.75	286.85
1157.021	282.63
1160.291	283.17
1163.561	279.42
1166.831	278.54
1170.101	276.96
1173.37	276.2
1176.639	276.83
1179.907	274.04
1183.176	271.45
1186.444	271.09
1189.711	271.04
1192.979	270.28
1196.246	268.67
1199.513	269.06
1202.78	269.03
1206.046	268.76
1209.312	266.02
1212.578	266.07
1215.843	267.59
1219.108	267.23
1222.373	271.94
1225.638	273.78
1228.902	277.96
1232.166	277.42
1235.43	279.68
1238.693	283.11
1241.956	284.66
1245.219	289.18
1248.482	289.21
1251.744	289.79
1255.006	289.86
1258.268	283.75
1261.529	281.3
1264.79	279.61
1268.051	278.49
1271.312	275.14
1274.572	270.86
1277.832	268.74
1281.092	264.14
1284.351	262.36
1287.61	262.4
1290.869	257.72
1294.128	256.1
1297.386	256.58
1300.644	252.89
1303.902	254.88
1307.159	253.45
1310.416	253.84
1313.673	252.86
1316.93	255.8
1320.186	254.93
1323.442	255.4
1326.697	260.16
1329.953	261.28
1333.208	261.04
1336.463	265.35
1339.717	264.81
1342.972	268.02
1346.226	269.67
1349.479	270.58
1352.733	271.71
1355.986	273.25
1359.238	273.15
1362.491	273.48
1365.743	275.99
1368.995	276.26
1372.247	274.44
1375.498	274.57
1378.749	276.07
1382	272.73
1385.251	273.69
1388.501	270.85
1391.751	271.97
1395	269.64
1398.25	267.76
1401.499	265.5
1404.748	264.86
1407.996	262.05
1411.244	260.1
1414.492	258.4
1417.74	255.25
1420.987	251.23
1424.234	251.2
1427.481	247.05
1430.728	247.65
1433.974	244.96
1437.22	242.46
1440.465	241.79
1443.711	239.46
1446.956	238.46
1450.201	235.07
1453.445	233.82
1456.689	232.95
1459.933	228.63
1463.177	227.05
1466.42	223.27
1469.663	220.92
1472.906	219.08
1476.148	213.2
1479.391	211.24
1482.633	209.45
1485.874	206.86
1489.115	205.22
1492.356	202.55
1495.597	202.78
1498.838	199.57
1502.078	198.42
1505.318	197.63
1508.557	197.67
1511.797	198.5
1515.036	196.62
1518.274	196.46
1521.513	194.56
1524.751	194.69
1527.989	194.24
1531.227	193.06
1534.464	194.23
1537.701	193.68
1540.938	193.17
1544.174	190.55
1547.41	190.52
1550.646	190.05
1553.882	189.15
1557.117	187.74
1560.352	186.44
1563.587	186.64
1566.821	185.59
1570.055	184.21
1573.289	182.53
1576.523	182.38
1579.756	181.79
1582.989	180.57
1586.222	180.55
1589.454	180.12
1592.686	180.57
1595.918	180.02
1599.15	179.07
1602.381	179.7
1605.612	179.1
1608.843	179.68
1612.073	179.39
1615.303	180.52
1618.533	180.52
1621.762	179.86
1624.992	179.75
1628.221	180.26
1631.449	180.2
1634.678	180.08
1637.906	180.78
1641.134	181.02
1644.361	180.5
1647.588	181.23
1650.815	180.08
1654.042	179.89
1657.269	181.26
1660.495	181.53
1663.72	180.73
1666.946	181.3
1670.171	181.86
1673.396	181.46
1676.621	181.77
1679.845	182.18
1683.069	182.7
1686.293	183.72
1689.517	184.41
1692.74	184.2
1695.963	184.95
1699.185	186.84
1702.408	186.31
1705.63	186.9
1708.852	187.5
1712.073	187.32
1715.294	187.83
1718.515	188.33
1721.736	187.98
1724.956	189.18
1728.176	189.12
1731.396	190.19
1734.616	189.14
1737.835	190.36
1741.054	189.06
1744.272	189.31
1747.491	191.33
1750.709	191.54
1753.927	191.35
1757.144	190.64
1760.361	190.46
1763.578	190.99
1766.795	190.28
1770.011	192.52
1773.227	192.17
1776.443	194.25
1779.658	194.68
1782.874	193.56
1786.089	193.84
1789.303	194.53
1792.518	197.77
1795.732	197.02
1798.945	198.96
1802.159	199.28
1805.372	198.87
1808.585	202.26
1811.797	202.81
1815.01	203.23
1818.222	205.34
1821.434	207.81
1824.645	207.79
1827.856	210.53
1831.067	212.96
1834.278	212.2
1837.488	213.46
1840.698	215.02
1843.908	213.15
1847.117	214.3
1850.326	216.02
1853.535	214.8
1856.744	217.5
1859.952	217.21
1863.16	215.11
1866.368	213.25
1869.575	214.73
1872.782	211.56
1875.989	210.98
1879.196	210.24
1882.402	208.71
1885.608	208.65
1888.814	209
1892.019	207.25
1895.224	206.93
1898.429	207.25
1901.634	207.78
1904.838	208.58
1908.042	210.74
1911.246	211.15
1914.449	212.21
1917.652	211.99
1920.855	211.62
1924.058	211.63
1927.26	210.79
1930.462	211.44
1933.664	212.58
1936.865	211.45
1940.066	210.1
1943.267	209.45
1946.467	209.53
1949.668	210.5
1952.868	213.29
1956.067	213.84
1959.267	212.79
1962.466	213.47
1965.665	212.41
1968.863	213.5
1972.061	216.51
1975.259	218.57
1978.457	219.74
1981.654	220.82
1984.852	221.41
1988.048	220.25
1991.245	222.73
1994.441	226.16
1997.637	228.04
2000.833	233.13
2004.028	236
2007.223	237.14
2010.418	239.89
2013.613	244.89
2016.807	248.15
2020.001	250.13
2023.194	254.11
2026.388	259.61
2029.581	265.13
2032.774	267.74
2035.966	271.82
2039.158	271.8
2042.35	277.13
2045.542	278.61
2048.733	282.69
2051.924	286.7
2055.115	291.48
2058.306	292.44
2061.496	293.88
2064.686	295.45
2067.875	300.23
2071.065	301.5
2074.254	299.82
2077.442	304.61
2080.631	306.25
2083.819	308.43
2087.007	308.14
2090.195	311.52
2093.382	314.3
2096.569	313.02
2099.756	316.87
2102.942	317.84
2106.128	320.91
2109.314	329.13
2112.5	326.76
2115.685	334.59
2118.87	334.81
2122.055	342.5
2125.239	344.97
2128.424	348.92
2131.608	352.13
2134.791	357.73
2137.974	359.39
2141.157	359.56
2144.34	359.93
2147.523	366.8
2150.705	363.53
2153.887	367.23
2157.068	367.26
2160.25	365.21
2163.431	366.3
2166.611	371.04
2169.792	376.23
2172.972	381.07
2176.152	384.48
2179.331	389.47
2182.511	394.74
2185.69	398.89
2188.868	406.59
2192.047	408.2
2195.225	418.91
2198.403	429.96
2201.58	438.9
2204.758	447.84
2207.935	455.14
2211.111	464.6
2214.288	468.72
2217.464	469.81
2220.64	477.92
2223.815	483.93
2226.991	504.07
2230.166	505
2233.34	513.58
2236.515	520.32
2239.689	520.47
2242.863	523.39
2246.036	538.52
2249.209	534.33
2252.382	544.56
2255.555	559.51
2258.727	563
2261.9	565.75
2265.071	570.9
2268.243	581.06
2271.414	588.44
2274.585	600.94
2277.756	607.66
2280.926	606.9
2284.096	623.67
2287.266	635.02
2290.436	641.14
2293.605	656.25
2296.774	675.72
2299.942	695.76
2303.111	700.05
2306.279	713.51
2309.447	724.9
2312.614	743.47
2315.781	768.36
2318.948	802.34
2322.115	791
2325.281	835.48
2328.447	816.78
2331.613	849.61
2334.779	842.5
2337.944	874.72
2341.109	882.71
2344.274	904.75
2347.438	938.5
2350.602	941.08
2353.766	969.85
2356.929	985.32
2360.092	978.14
2363.255	1049.3
2366.418	1044.28
2369.58	1066.45
2372.742	1135.87
2375.904	1166.64
2379.066	1162.18
2382.227	1134.51
2385.388	1228.05
2388.548	1229.46
2391.709	1246.23
2394.869	1385.78
2398.029	1328.35
2401.188	1369.27
2404.347	1358.62
2407.506	1331.55
2410.665	1368.89
2413.823	1452.87
2416.981	1542.01
2420.139	1495.18
2423.296	1475.68
2426.453	1542.84
2429.61	1481.96
2432.767	1547.94
2435.923	1529.43
2439.079	1676.42
2442.235	1702.26
2445.391	1688.66
2448.546	1668.02
2451.701	1624.97
2454.855	1620.11
2458.009	1724.48
2461.163	1790.61
2464.317	1859.69
2467.471	1907.16
2470.624	1907.49
2473.777	1858.18
2476.929	1809.52
2480.082	1752.54
2483.234	1740.74
2486.385	1824.5
2489.537	1829.22
2492.688	1891.34
2495.839	1840.64
2498.989	1798.14
2502.14	1804.88
2505.29	1821.06
2508.439	1846.24
2511.589	1845.8
2514.738	2011.48
2517.887	1967.76
2521.035	2082.01
2524.183	2098.12
2527.331	2114.53
2530.479	2100.06
2533.627	2115.97
