Data from N_3_DEC_OH_4N_Splice17_14-22-42-114.txt Node
Date: Sat Mar 07 14:22:42 EST 2020
User: sa697716
Spectrometer: NQ5500242
Trigger mode: 0
Integration Time (sec): 1.450000E-1
Scans to average: 20
Nonlinearity correction enabled: false
Boxcar width: 5
Storing dark spectrum: false
XAxis mode: Wavelengths
Number of Pixels in Spectrum: 512
>>>>>Begin Spectral Data<<<<<
187.83	116.31
188.298	123.98
188.766	100.21
189.233	80.17
189.701	82.13
190.169	120.55
190.636	124.02
191.104	111.42
191.571	61.33
192.039	-28.38
192.506	319.91
192.974	201.84
193.441	284.13
193.908	109.61
194.375	35.88
194.842	22.49
195.31	109.7
195.777	90.96
196.244	58.08
196.711	68.59
197.177	69.48
197.644	70.69
198.111	70.07
198.578	70.06
199.045	71.17
199.511	71.74
199.978	72.13
200.445	72.46
200.911	72.77
201.378	73.3
201.844	73.16
202.31	72.95
202.777	73.12
203.243	73.24
203.709	73.07
204.176	72.41
204.642	71.79
205.108	71.21
205.574	70.47
206.04	69.76
206.506	68.87
206.972	68.65
207.438	67.96
207.903	66.77
208.369	65.08
208.835	63.63
209.301	62.05
209.766	60.31
210.232	58.41
210.697	56.64
211.163	55.11
211.628	53.71
212.094	52.02
212.559	50.62
213.024	49.49
213.49	48.38
213.955	47.16
214.42	45.93
214.885	44.28
215.35	42.65
215.815	40.31
216.28	37.27
216.745	33.97
217.21	30.66
217.675	27.59
218.14	24.92
218.604	22.55
219.069	20.58
219.534	18.92
219.998	17.69
220.463	16.52
220.927	15.55
221.392	14.79
221.856	14.17
222.32	13.65
222.785	13.22
223.249	12.74
223.713	12.36
224.177	12.05
224.642	11.73
225.106	11.39
225.57	11.13
226.034	10.91
226.497	10.67
226.961	10.4
227.425	10.18
227.889	9.97
228.353	9.79
228.816	9.59
229.28	9.42
229.744	9.26
230.207	9.1
230.671	8.94
231.134	8.78
231.597	8.65
232.061	8.53
232.524	8.42
232.987	8.29
233.45	8.19
233.914	8.08
234.377	7.96
234.84	7.86
235.303	7.78
235.766	7.69
236.229	7.61
236.691	7.53
237.154	7.44
237.617	7.36
238.08	7.29
238.542	7.21
239.005	7.15
239.468	7.08
239.93	7.02
240.393	6.96
240.855	6.87
241.317	6.8
241.78	6.73
242.242	6.66
242.704	6.6
243.166	6.53
243.629	6.48
244.091	6.41
244.553	6.35
245.015	6.28
245.477	6.22
245.939	6.17
246.4	6.11
246.862	6.06
247.324	6.01
247.786	5.96
248.247	5.9
248.709	5.85
249.17	5.8
249.632	5.76
250.093	5.72
250.555	5.68
251.016	5.65
251.477	5.61
251.939	5.58
252.4	5.55
252.861	5.51
253.322	5.48
253.783	5.45
254.244	5.43
254.705	5.39
255.166	5.36
255.627	5.33
256.088	5.3
256.549	5.28
257.009	5.25
257.47	5.21
257.931	5.18
258.391	5.14
258.852	5.1
259.312	5.07
259.773	5.04
260.233	5.01
260.694	4.97
261.154	4.93
261.614	4.9
262.074	4.86
262.534	4.84
262.994	4.81
263.455	4.78
263.915	4.76
264.374	4.74
264.834	4.72
265.294	4.7
265.754	4.69
266.214	4.67
266.673	4.66
267.133	4.65
267.593	4.63
268.052	4.62
268.512	4.61
268.971	4.61
269.431	4.59
269.89	4.58
270.349	4.58
270.809	4.56
271.268	4.55
271.727	4.54
272.186	4.53
272.645	4.53
273.104	4.52
273.563	4.51
274.022	4.51
274.481	4.5
274.94	4.49
275.399	4.48
275.857	4.47
276.316	4.47
276.775	4.46
277.233	4.45
277.692	4.45
278.15	4.44
278.609	4.43
279.067	4.43
279.525	4.42
279.984	4.41
280.442	4.41
280.9	4.41
281.358	4.41
281.816	4.41
282.274	4.41
282.732	4.4
283.19	4.41
283.648	4.41
284.106	4.4
284.564	4.4
285.021	4.4
285.479	4.4
285.937	4.4
286.394	4.4
286.852	4.39
287.309	4.38
287.767	4.37
288.224	4.36
288.682	4.35
289.139	4.33
289.596	4.32
290.053	4.3
290.511	4.28
290.968	4.26
291.425	4.24
291.882	4.22
292.339	4.21
292.796	4.19
293.252	4.17
293.709	4.16
294.166	4.14
294.623	4.13
295.079	4.12
295.536	4.11
295.992	4.1
296.449	4.09
296.905	4.09
297.362	4.08
297.818	4.07
298.274	4.06
298.731	4.06
299.187	4.04
299.643	4.03
300.099	4.03
300.555	4.02
301.011	4.01
301.467	4.01
301.923	4
302.379	3.99
302.835	3.99
303.291	3.99
303.746	3.99
304.202	4
304.658	3.99
305.113	4
305.569	4
306.024	4
306.479	4
306.935	4.01
307.39	4.01
307.845	4.02
308.301	4.02
308.756	4.02
309.211	4.02
309.666	4.04
310.121	4.04
310.576	4.04
311.031	4.04
311.486	4.05
311.94	4.05
312.395	4.05
312.85	4.05
313.305	4.05
313.759	4.05
314.214	4.05
314.668	4.04
315.123	4.04
315.577	4.03
316.032	4.02
316.486	4.01
316.94	4
317.394	3.99
317.849	3.98
318.303	3.96
318.757	3.94
319.211	3.93
319.665	3.92
320.119	3.91
320.572	3.89
321.026	3.89
321.48	3.89
321.934	3.87
322.387	3.87
322.841	3.86
323.295	3.86
323.748	3.86
324.202	3.85
324.655	3.86
325.108	3.85
325.562	3.85
326.015	3.84
326.468	3.84
326.921	3.84
327.374	3.84
327.827	3.84
328.28	3.85
328.733	3.85
329.186	3.85
329.639	3.86
330.092	3.86
330.545	3.86
330.997	3.86
331.45	3.88
331.903	3.88
332.355	3.89
332.808	3.89
333.26	3.89
333.713	3.89
334.165	3.89
334.617	3.89
335.069	3.89
335.522	3.9
335.974	3.91
336.426	3.91
336.878	3.9
337.33	3.89
337.782	3.9
338.234	3.9
338.686	3.91
339.137	3.92
339.589	3.91
340.041	3.9
340.493	3.89
340.944	3.87
341.396	3.86
341.847	3.85
342.299	3.84
342.75	3.83
343.201	3.82
343.653	3.8
344.104	3.77
344.555	3.76
345.006	3.75
345.457	3.74
345.908	3.74
346.359	3.74
346.81	3.73
347.261	3.73
347.712	3.72
348.163	3.71
348.613	3.72
349.064	3.72
349.515	3.72
349.965	3.72
350.416	3.72
350.866	3.71
351.317	3.7
351.767	3.7
352.217	3.7
352.668	3.7
353.118	3.7
353.568	3.69
354.018	3.7
354.468	3.71
354.918	3.7
355.368	3.72
355.818	3.72
356.268	3.73
356.718	3.73
357.168	3.73
357.617	3.73
358.067	3.74
358.517	3.76
358.966	3.75
359.416	3.75
359.865	3.75
360.315	3.75
360.764	3.76
361.213	3.76
361.663	3.76
362.112	3.77
362.561	3.78
363.01	3.77
363.459	3.76
363.908	3.76
364.357	3.76
364.806	3.76
365.255	3.76
365.703	3.76
366.152	3.77
366.601	3.77
367.05	3.78
367.498	3.76
367.947	3.77
368.395	3.78
368.844	3.79
369.292	3.78
369.74	3.79
370.189	3.8
370.637	3.79
371.085	3.78
371.533	3.78
371.981	3.77
372.429	3.77
372.877	3.77
373.325	3.76
373.773	3.76
374.221	3.76
374.669	3.76
375.116	3.74
375.564	3.75
376.012	3.75
376.459	3.75
376.907	3.76
377.354	3.78
377.801	3.79
378.249	3.8
378.696	3.8
379.143	3.8
379.591	3.81
380.038	3.82
380.485	3.82
380.932	3.83
381.379	3.83
381.826	3.82
382.273	3.82
382.72	3.81
383.166	3.81
383.613	3.81
384.06	3.81
384.506	3.8
384.953	3.81
385.4	3.82
385.846	3.83
386.292	3.83
386.739	3.83
387.185	3.83
387.631	3.85
388.078	3.86
388.524	3.85
388.97	3.86
389.416	3.87
389.862	3.88
390.308	3.89
390.754	3.91
391.2	3.92
391.645	3.94
392.091	3.96
392.537	3.97
392.983	3.99
393.428	4.01
393.874	4.02
394.319	4.04
394.765	4.05
395.21	4.05
395.655	4.06
396.101	4.07
396.546	4.08
396.991	4.1
397.436	4.11
397.881	4.13
398.326	4.15
398.771	4.17
399.216	4.19
399.661	4.22
400.106	4.25
400.551	4.27
400.995	4.27
401.44	4.3
401.885	4.3
402.329	4.32
402.774	4.33
403.218	4.34
403.663	4.38
404.107	4.39
404.551	4.39
404.995	4.4
405.44	4.41
405.884	4.42
406.328	4.44
406.772	4.45
407.216	4.46
407.66	4.48
408.104	4.49
408.547	4.48
408.991	4.49
409.435	4.51
409.879	4.52
410.322	4.54
410.766	4.56
411.209	4.58
411.653	4.6
412.096	4.61
412.54	4.62
412.983	4.64
413.426	4.67
413.869	4.69
414.312	4.72
414.756	4.74
415.199	4.76
415.642	4.77
416.085	4.78
416.527	4.79
416.97	4.79
417.413	4.79
417.856	4.8
418.298	4.8
418.741	4.8
419.184	4.79
419.626	4.8
420.069	4.81
420.511	4.81
420.953	4.81
421.396	4.82
421.838	4.83
422.28	4.85
422.722	4.87
423.164	4.87
423.606	4.89
424.048	4.9
424.49	4.91
424.932	4.92
425.374	4.91
425.816	4.89
426.258	4.88
426.699	4.87
427.141	4.87
427.582	4.87
428.024	4.88
428.465	4.89
428.907	4.88
429.348	4.87
429.789	4.86
430.231	4.88
430.672	4.91
431.113	4.93
431.554	4.95
431.995	4.98
432.436	4.98
432.877	4.99
433.318	5
433.759	5.02
434.2	5.06
434.64	5.08
435.081	5.09
435.522	5.11
435.962	5.14
436.403	5.17
436.843	5.18
437.284	5.18
437.724	5.19
438.164	5.21
438.604	5.23
439.045	5.23
439.485	5.24
439.925	5.23
440.365	5.23
440.805	5.22
441.245	5.24
441.685	5.24
442.125	5.28
442.564	5.28
443.004	5.28
443.444	5.28
443.883	5.3
444.323	5.3
444.762	5.32
445.202	5.33
445.641	5.35
446.081	5.35
446.52	5.35
446.959	5.36
447.398	5.37
447.837	5.38
448.276	5.38
448.716	5.37
449.154	5.39
449.593	5.4
450.032	5.39
450.471	5.38
450.91	5.36
451.349	5.37
451.787	5.36
452.226	5.35
452.664	5.34
453.103	5.32
453.541	5.31
453.98	5.32
454.418	5.3
454.856	5.29
455.295	5.26
455.733	5.23
456.171	5.21
456.609	5.19
457.047	5.17
457.485	5.16
457.923	5.16
458.361	5.14
458.798	5.13
459.236	5.12
459.674	5.11
460.111	5.11
460.549	5.12
460.987	5.13
461.424	5.15
461.862	5.15
462.299	5.15
462.736	5.15
463.173	5.15
463.611	5.16
464.048	5.17
464.485	5.18
464.922	5.19
465.359	5.19
465.796	5.19
466.233	5.2
466.67	5.21
467.106	5.22
467.543	5.22
467.98	5.22
468.416	5.22
468.853	5.23
469.29	5.23
469.726	5.24
470.162	5.23
470.599	5.23
471.035	5.22
471.471	5.22
471.907	5.21
472.344	5.21
472.78	5.22
473.216	5.21
473.652	5.21
474.088	5.2
474.523	5.2
474.959	5.2
475.395	5.18
475.831	5.17
476.266	5.17
476.702	5.16
477.138	5.14
477.573	5.13
478.008	5.13
478.444	5.1
478.879	5.11
479.314	5.1
479.75	5.09
480.185	5.07
480.62	5.06
481.055	5.05
481.49	5.04
481.925	5.04
482.36	5.03
482.795	5.01
483.229	5.01
483.664	5
484.099	5
484.534	4.99
484.968	5
485.403	5
485.837	5.01
486.271	5.01
486.706	5.01
487.14	5.02
487.574	5.03
488.009	5.04
488.443	5.05
488.877	5.07
489.311	5.08
489.745	5.1
490.179	5.12
490.613	5.14
491.046	5.16
491.48	5.19
491.914	5.21
492.348	5.23
492.781	5.26
493.215	5.29
493.648	5.32
494.082	5.35
494.515	5.38
494.948	5.41
495.382	5.45
495.815	5.49
496.248	5.53
496.681	5.57
497.114	5.61
497.547	5.65
497.98	5.7
498.413	5.74
498.846	5.79
499.279	5.84
499.711	5.89
500.144	5.95
500.577	6.01
501.009	6.07
501.442	6.13
501.874	6.2
502.306	6.27
502.739	6.35
503.171	6.43
503.603	6.5
504.036	6.59
504.468	6.66
504.9	6.74
505.332	6.83
505.764	6.92
506.196	7.02
506.627	7.11
507.059	7.2
507.491	7.29
507.923	7.41
508.354	7.52
508.786	7.63
509.217	7.76
509.649	7.87
510.08	7.99
510.512	8.11
510.943	8.24
511.374	8.36
511.805	8.49
512.237	8.62
512.668	8.75
513.099	8.87
513.53	9
513.961	9.13
514.391	9.27
514.822	9.4
515.253	9.53
515.684	9.66
516.114	9.8
516.545	9.94
516.975	10.07
517.406	10.2
517.836	10.33
518.267	10.46
518.697	10.58
519.127	10.69
519.558	10.83
519.988	10.96
520.418	11.08
520.848	11.2
521.278	11.32
521.708	11.54
522.138	11.67
522.567	11.78
522.997	11.89
523.427	12.01
523.857	12.14
524.286	12.23
524.716	12.34
525.145	12.44
525.575	12.53
526.004	12.62
526.433	12.62
526.863	12.7
527.292	12.78
527.721	12.87
528.15	12.94
528.579	13.02
529.008	13.1
529.437	13.17
529.866	13.24
530.295	13.32
530.724	13.37
531.152	13.44
531.581	13.5
532.01	13.56
532.438	13.62
532.867	13.69
533.295	13.74
533.723	13.78
534.152	13.82
534.58	13.86
535.008	13.89
535.436	13.94
535.865	13.96
536.293	14
536.721	14.03
537.149	14.05
537.576	14.06
538.004	14.09
538.432	14.11
538.86	14.15
539.287	14.16
539.715	14.19
540.143	14.22
540.57	14.25
540.998	14.28
541.425	14.28
541.852	14.31
542.28	14.35
542.707	14.37
543.134	14.4
543.561	14.43
543.988	14.46
544.415	14.49
544.842	14.5
545.269	14.53
545.696	14.54
546.123	14.57
546.549	14.59
546.976	14.61
547.403	14.64
547.829	14.67
548.256	14.68
548.682	14.71
549.108	14.74
549.535	14.78
549.961	14.81
550.387	14.83
550.813	14.86
551.24	14.88
551.666	14.89
552.092	14.9
552.518	14.92
552.943	14.92
553.369	14.92
553.795	14.92
554.221	14.92
554.646	14.91
555.072	14.91
555.498	14.91
555.923	14.91
556.349	14.89
556.774	14.88
557.199	14.87
557.625	14.86
558.05	14.85
558.475	14.84
558.9	14.8
559.325	14.8
559.75	14.77
560.175	14.74
560.6	14.69
561.025	14.67
561.449	14.63
561.874	14.58
562.299	14.53
562.723	14.49
563.148	14.44
563.572	14.39
563.997	14.33
564.421	14.26
564.846	14.21
565.27	14.16
565.694	14.09
566.118	14.03
566.542	13.97
566.966	13.9
567.39	13.83
567.814	13.74
568.238	13.67
568.662	13.59
569.086	13.53
569.509	13.46
569.933	13.39
570.357	13.33
570.78	13.26
571.204	13.21
571.627	13.15
572.05	13.1
572.474	13.07
572.897	13.03
573.32	12.99
573.743	12.95
574.166	12.91
574.589	12.86
575.012	12.82
575.435	12.78
575.858	12.74
576.281	12.7
576.704	12.67
577.126	12.65
577.549	12.6
577.972	12.58
578.394	12.54
578.817	12.51
579.239	12.49
579.661	12.47
580.084	12.43
580.506	12.41
580.928	12.39
581.35	12.37
581.772	12.33
582.194	12.3
582.616	12.27
583.038	12.25
583.46	12.22
583.882	12.19
584.303	12.16
584.725	12.15
585.147	12.13
585.568	12.1
585.99	12.06
586.411	12.04
586.833	12.02
587.254	11.99
587.675	11.96
588.096	11.94
588.518	11.92
588.939	11.91
589.36	11.89
589.781	11.86
590.202	11.84
590.623	11.83
591.043	11.81
591.464	11.79
591.885	11.77
592.305	11.75
592.726	11.75
593.147	11.72
593.567	11.69
593.987	11.67
594.408	11.65
594.828	11.63
595.248	11.62
595.669	11.61
596.089	11.59
596.509	11.58
596.929	11.56
597.349	11.53
597.769	11.53
598.189	11.51
598.608	11.5
599.028	11.49
599.448	11.47
599.867	11.45
600.287	11.44
600.706	11.43
601.126	11.41
601.545	11.4
601.965	11.38
602.384	11.36
602.803	11.34
603.222	11.31
603.641	11.29
604.061	11.28
604.48	11.26
604.898	11.23
605.317	11.21
605.736	11.19
606.155	11.16
606.574	11.15
606.992	11.12
607.411	11.11
607.829	11.07
608.248	11.04
608.666	11.02
609.085	10.99
609.503	10.98
609.921	10.95
610.339	10.93
610.758	10.91
611.176	10.88
611.594	10.87
612.012	10.83
612.43	10.83
612.847	10.8
613.265	10.76
613.683	10.74
614.101	10.71
614.518	10.67
614.936	10.64
615.353	10.61
615.771	10.59
616.188	10.56
616.606	10.55
617.023	10.52
617.44	10.52
617.857	10.5
618.274	10.48
618.691	10.46
619.108	10.45
619.525	10.44
619.942	10.42
620.359	10.41
620.776	10.39
621.192	10.37
621.609	10.37
622.026	10.36
622.442	10.36
622.859	10.35
623.275	10.33
623.691	10.33
624.108	10.33
624.524	10.34
624.94	10.34
625.356	10.34
625.772	10.34
626.188	10.34
626.604	10.33
627.02	10.34
627.436	10.35
627.852	10.35
628.268	10.34
628.683	10.34
629.099	10.33
629.514	10.33
629.93	10.33
630.345	10.31
630.761	10.3
631.176	10.28
631.591	10.24
632.007	10.21
632.422	10.19
632.837	10.15
633.252	10.11
633.667	10.07
634.082	10.01
634.497	9.95
634.911	9.9
635.326	9.84
635.741	9.78
636.155	9.71
636.57	9.65
636.984	9.57
637.399	9.49
637.813	9.41
638.228	9.32
638.642	9.24
639.056	9.16
639.47	9.08
639.884	9
640.298	8.92
640.712	8.83
641.126	8.75
641.54	8.66
641.954	8.59
642.368	8.51
642.781	8.43
643.195	8.35
643.609	8.28
644.022	8.19
644.436	8.14
644.849	8.07
645.262	8.01
645.676	7.97
646.089	7.93
646.502	7.88
646.915	7.85
647.328	7.81
647.741	7.79
648.154	7.77
648.567	7.76
648.98	7.73
649.393	7.72
649.805	7.71
650.218	7.68
650.631	7.67
651.043	7.67
651.456	7.66
651.868	7.65
652.28	7.64
652.693	7.62
653.105	7.62
653.517	7.61
653.929	7.61
654.341	7.6
654.753	7.6
655.165	7.58
655.577	7.56
655.989	7.54
656.401	7.53
656.813	7.51
657.224	7.49
657.636	7.45
658.047	7.43
658.459	7.39
658.87	7.36
659.282	7.31
659.693	7.29
660.104	7.25
660.515	7.21
660.926	7.17
661.338	7.15
661.749	7.11
662.159	7.08
662.57	7.05
662.981	7.02
663.392	6.99
663.803	6.97
664.213	6.94
664.624	6.92
665.035	6.89
665.445	6.89
665.855	6.86
666.266	6.84
666.676	6.83
667.086	6.81
667.497	6.8
667.907	6.79
668.317	6.79
668.727	6.78
669.137	6.78
669.547	6.8
669.956	6.79
670.366	6.8
670.776	6.8
671.186	6.81
671.595	6.83
672.005	6.84
672.414	6.86
672.824	6.87
673.233	6.9
673.642	6.92
674.052	6.94
674.461	6.97
674.87	7
675.279	7.04
675.688	7.08
676.097	7.11
676.506	7.15
676.915	7.18
677.323	7.22
677.732	7.26
678.141	7.3
678.549	7.36
678.958	7.41
679.366	7.47
679.775	7.53
680.183	7.6
680.592	7.68
681	7.78
681.408	7.88
681.816	7.99
682.224	8.11
682.632	8.23
683.04	8.37
683.448	8.52
683.856	8.67
684.264	8.85
684.671	9.03
685.079	9.22
685.487	9.42
685.894	9.65
686.302	9.88
686.709	10.12
687.116	10.39
687.524	10.66
687.931	10.95
688.338	11.26
688.745	11.57
689.152	11.88
689.559	12.22
689.966	12.57
690.373	12.91
690.78	13.26
691.187	13.61
691.593	13.97
692	14.32
692.407	14.67
692.813	15.01
693.22	15.36
693.626	15.71
694.032	16.05
694.439	16.38
694.845	16.73
695.251	17.08
695.657	17.41
696.063	17.74
696.469	18.07
696.875	18.4
697.281	18.73
697.687	19.05
698.093	19.35
698.498	19.66
698.904	19.95
699.31	20.24
699.715	20.5
700.12	20.78
700.526	21.04
700.931	21.29
701.337	21.54
701.742	21.78
702.147	22.01
702.552	22.24
702.957	22.45
703.362	22.65
703.767	22.85
704.172	23.06
704.577	23.26
704.981	23.46
705.386	23.65
705.791	23.83
706.195	24.01
706.6	24.22
707.004	24.39
707.408	24.59
707.813	24.78
708.217	24.96
708.621	25.14
709.025	25.29
709.43	25.45
709.834	25.62
710.237	25.77
710.641	25.93
711.045	26.06
711.449	26.23
711.853	26.36
712.256	26.5
712.66	26.65
713.064	26.79
713.467	26.93
713.87	27.08
714.274	27.2
714.677	27.33
715.08	27.45
715.484	27.58
715.887	27.71
716.29	27.82
716.693	27.97
717.096	28.08
717.499	28.2
717.901	28.33
718.304	28.44
718.707	28.56
719.109	28.66
719.512	28.78
719.915	28.88
720.317	28.95
720.719	29.03
721.122	29.11
721.524	29.18
721.926	29.27
722.328	29.32
722.731	29.41
723.133	29.5
723.535	29.58
723.937	29.65
724.338	29.71
724.74	29.8
725.142	29.91
725.544	29.97
725.945	30.06
726.347	30.1
726.748	30.15
727.15	30.2
727.551	30.24
727.952	30.31
728.354	30.38
728.755	30.44
729.156	30.5
729.557	30.51
729.958	30.57
730.359	30.61
730.76	30.68
731.161	30.76
731.562	30.82
731.962	30.84
732.363	30.88
732.763	30.91
733.164	30.94
733.564	30.97
733.965	31.02
734.365	31.07
734.766	31.12
735.166	31.14
735.566	31.16
735.966	31.21
736.366	31.25
736.766	31.27
737.166	31.33
737.566	31.36
737.966	31.4
738.365	31.42
738.765	31.43
739.165	31.44
739.564	31.47
739.964	31.49
740.363	31.5
740.763	31.52
741.162	31.55
741.561	31.53
741.96	31.54
742.36	31.57
742.759	31.6
743.158	31.61
743.557	31.64
743.955	31.67
744.354	31.68
744.753	31.71
745.152	31.76
745.55	31.8
745.949	31.84
746.348	31.89
746.746	31.9
747.144	31.93
747.543	31.95
747.941	31.98
748.339	32
748.737	32.04
749.136	32.05
749.534	32.05
749.932	32.08
750.33	32.09
750.727	32.07
751.125	32.08
751.523	32.07
751.921	32.08
752.318	32.08
752.716	32.09
753.113	32.06
753.511	32.08
753.908	32.08
754.305	32.06
754.703	32.06
755.1	32.05
755.497	32.05
755.894	32.04
756.291	32.05
756.688	32.02
757.085	32.02
757.482	32.04
757.878	32.03
758.275	32.01
758.672	32.02
759.068	32.04
759.465	32.05
759.861	32.07
760.258	32.08
760.654	32.09
761.05	32.11
761.447	32.12
761.843	32.1
762.239	32.11
762.635	32.13
763.031	32.14
763.427	32.12
763.822	32.14
764.218	32.16
764.614	32.18
765.01	32.16
765.405	32.17
765.801	32.17
766.196	32.2
766.592	32.2
766.987	32.21
767.382	32.21
767.778	32.23
768.173	32.24
768.568	32.22
768.963	32.23
769.358	32.3
769.753	32.31
770.148	32.32
770.542	32.32
770.937	32.35
771.332	32.37
771.726	32.37
772.121	32.38
772.515	32.41
772.91	32.41
773.304	32.44
773.699	32.43
774.093	32.43
774.487	32.45
774.881	32.47
775.275	32.46
775.669	32.46
776.063	32.47
776.457	32.5
776.851	32.48
777.245	32.51
777.638	32.48
778.032	32.5
778.425	32.53
778.819	32.54
779.212	32.54
779.606	32.58
779.999	32.6
780.392	32.64
780.786	32.65
781.179	32.68
781.572	32.71
781.965	32.76
782.358	32.75
782.751	32.77
783.143	32.8
783.536	32.82
783.929	32.8
784.322	32.82
784.714	32.84
785.107	32.86
785.499	32.84
785.891	32.84
786.284	32.86
786.676	32.9
787.068	32.89
787.46	32.91
787.852	32.92
788.245	32.94
788.636	32.95
789.028	32.94
789.42	32.94
789.812	32.98
790.204	32.99
790.595	32.99
790.987	32.99
791.378	33.02
791.77	33.02
792.161	33.04
792.553	33.05
792.944	33.06
793.335	33.08
793.726	33.09
794.117	33.08
794.508	33.08
794.899	33.09
795.29	33.09
795.681	33.08
796.072	33.09
796.463	33.07
796.853	33.05
797.244	33.09
797.634	33.07
798.025	33.11
798.415	33.15
798.806	33.15
799.196	33.18
799.586	33.19
799.976	33.25
800.366	33.25
800.756	33.3
801.146	33.32
801.536	33.33
801.926	33.35
802.316	33.36
802.706	33.36
803.095	33.4
803.485	33.39
803.874	33.4
804.264	33.39
804.653	33.39
805.043	33.39
805.432	33.43
805.821	33.43
806.21	33.45
806.599	33.46
806.988	33.47
807.377	33.48
807.766	33.51
808.155	33.52
808.544	33.53
808.933	33.54
809.321	33.54
809.71	33.55
810.098	33.57
810.487	33.56
810.875	33.57
811.264	33.59
811.652	33.58
812.04	33.57
812.428	33.6
812.816	33.61
813.204	33.64
813.592	33.64
813.98	33.65
814.368	33.65
814.756	33.65
815.144	33.65
815.531	33.64
815.919	33.64
816.306	33.66
816.694	33.65
817.081	33.7
817.469	33.69
817.856	33.69
818.243	33.68
818.63	33.68
819.017	33.68
819.404	33.69
819.791	33.71
820.178	33.72
820.565	33.71
820.952	33.69
821.339	33.66
821.725	33.69
822.112	33.71
822.498	33.74
822.885	33.74
823.271	33.74
823.657	33.71
824.044	33.71
824.43	33.71
824.816	33.7
825.202	33.69
825.588	33.67
825.974	33.64
826.36	33.63
826.746	33.6
827.132	33.59
827.517	33.6
827.903	33.62
828.289	33.63
828.674	33.62
829.06	33.61
829.445	33.6
829.83	33.61
830.216	33.61
830.601	33.59
830.986	33.59
831.371	33.59
831.756	33.57
832.141	33.56
832.526	33.54
832.911	33.53
833.295	33.53
833.68	33.53
834.065	33.5
834.449	33.5
834.834	33.5
835.218	33.49
835.603	33.49
835.987	33.48
836.371	33.49
836.755	33.47
837.139	33.45
837.524	33.45
837.908	33.46
838.291	33.47
838.675	33.46
839.059	33.45
839.443	33.46
839.827	33.45
840.21	33.44
840.594	33.42
840.977	33.43
841.361	33.45
841.744	33.4
842.127	33.39
842.511	33.37
842.894	33.38
843.277	33.37
843.66	33.34
844.043	33.35
844.426	33.34
844.809	33.35
845.191	33.34
845.574	33.34
845.957	33.37
846.339	33.41
846.722	33.43
847.104	33.44
847.487	33.46
847.869	33.48
848.252	33.47
848.634	33.48
849.016	33.48
849.398	33.48
849.78	33.46
850.162	33.47
850.544	33.44
850.926	33.43
851.307	33.43
851.689	33.42
852.071	33.43
852.452	33.45
852.834	33.46
853.215	33.44
853.597	33.46
853.978	33.48
854.359	33.5
854.741	33.51
855.122	33.52
855.503	33.51
855.884	33.52
856.265	33.54
856.646	33.53
857.026	33.54
857.407	33.57
857.788	33.56
858.169	33.58
858.549	33.57
858.93	33.56
859.31	33.55
859.69	33.58
860.071	33.59
860.451	33.55
860.831	33.56
861.211	33.53
861.591	33.52
861.971	33.51
862.351	33.52
862.731	33.53
863.111	33.53
863.491	33.52
863.87	33.52
864.25	33.51
864.629	33.52
865.009	33.54
865.388	33.55
865.768	33.57
866.147	33.59
866.526	33.57
866.905	33.59
867.284	33.61
867.663	33.64
868.042	33.64
868.421	33.66
868.8	33.66
869.179	33.65
869.558	33.66
869.936	33.67
870.315	33.67
870.693	33.65
871.072	33.66
871.45	33.64
871.828	33.64
872.207	33.64
872.585	33.63
872.963	33.65
873.341	33.66
873.719	33.66
874.097	33.66
874.475	33.67
874.853	33.68
875.23	33.69
875.608	33.69
875.986	33.69
876.363	33.71
876.741	33.72
877.118	33.72
877.495	33.73
877.873	33.74
878.25	33.76
878.627	33.79
879.004	33.8
879.381	33.81
879.758	33.8
880.135	33.82
880.512	33.82
880.889	33.82
881.265	33.81
881.642	33.81
882.019	33.81
882.395	33.8
882.772	33.79
883.148	33.79
883.524	33.78
883.901	33.81
884.277	33.79
884.653	33.78
885.029	33.76
885.405	33.78
885.781	33.77
886.157	33.77
886.532	33.77
886.908	33.73
887.284	33.7
887.659	33.68
888.035	33.64
888.411	33.63
888.786	33.62
889.161	33.63
889.537	33.61
889.912	33.6
890.287	33.58
890.662	33.56
891.037	33.58
891.412	33.57
891.787	33.55
892.162	33.56
892.536	33.54
892.911	33.53
893.286	33.5
893.66	33.49
894.035	33.46
894.409	33.44
894.784	33.45
895.158	33.44
895.532	33.44
895.906	33.44
896.281	33.43
896.655	33.43
897.029	33.44
897.402	33.45
897.776	33.46
898.15	33.48
898.524	33.49
898.898	33.51
899.271	33.52
899.645	33.55
900.018	33.56
900.392	33.6
900.765	33.63
901.138	33.64
901.511	33.65
901.884	33.66
902.258	33.67
902.631	33.7
903.003	33.7
903.376	33.72
903.749	33.73
904.122	33.74
904.495	33.75
904.867	33.78
905.24	33.8
905.612	33.81
905.985	33.83
906.357	33.83
906.729	33.84
907.102	33.83
907.474	33.85
907.846	33.86
908.218	33.86
908.59	33.88
908.962	33.88
909.334	33.9
909.705	33.91
910.077	33.94
910.449	33.97
910.82	33.98
911.192	34.03
911.563	34.05
911.935	34.05
912.306	34.07
912.677	34.09
913.048	34.09
913.419	34.1
913.79	34.14
914.161	34.13
914.532	34.15
914.903	34.15
915.274	34.14
915.645	34.13
916.015	34.17
916.386	34.16
916.756	34.16
917.127	34.19
917.497	34.19
917.868	34.2
918.238	34.23
918.608	34.26
918.978	34.29
919.348	34.29
919.718	34.28
920.088	34.29
920.458	34.3
920.828	34.32
921.198	34.32
921.567	34.34
921.937	34.36
922.306	34.34
922.676	34.33
923.045	34.33
923.415	34.34
923.784	34.37
924.153	34.37
924.522	34.39
924.891	34.39
925.26	34.39
925.629	34.41
925.998	34.4
926.367	34.42
926.736	34.4
927.104	34.43
927.473	34.44
927.842	34.44
928.21	34.47
928.578	34.45
928.947	34.49
929.315	34.47
929.683	34.44
930.051	34.45
930.42	34.48
930.788	34.48
931.156	34.45
931.523	34.42
931.891	34.49
932.259	34.49
932.627	34.51
932.994	34.5
933.362	34.5
933.729	34.54
934.097	34.54
934.464	34.55
934.831	34.58
935.199	34.62
935.566	34.66
935.933	34.65
936.3	34.66
936.667	34.7
937.034	34.75
937.401	34.78
937.767	34.82
938.134	34.87
938.501	34.92
938.867	34.95
939.234	34.98
939.6	35.05
939.967	35.07
940.333	35.04
940.699	35.1
941.065	35.07
941.431	35.13
941.798	35.14
942.163	35.14
942.529	35.16
942.895	35.25
943.261	35.27
943.627	35.21
943.992	35.2
944.358	35.28
944.723	35.24
945.089	35.23
945.454	35.23
945.82	35.24
946.185	35.26
946.55	35.21
946.915	35.18
947.28	35.14
947.645	35.19
948.01	35.19
948.375	35.14
948.74	35.15
949.104	35.21
949.469	35.22
949.834	35.18
950.198	35.16
950.562	35.14
950.927	35.07
951.291	35
951.655	34.93
952.02	34.95
952.384	34.9
952.748	34.86
953.112	34.77
953.476	34.71
953.839	34.64
954.203	34.58
954.567	34.55
954.931	34.5
955.294	34.53
955.658	34.59
956.021	34.52
956.385	34.52
956.748	34.5
957.111	34.54
957.474	34.51
957.837	34.51
958.2	34.54
958.563	34.55
958.926	34.61
959.289	34.65
959.652	34.59
960.015	34.61
960.377	34.61
960.74	34.63
961.102	34.62
961.465	34.68
961.827	34.7
962.189	34.69
962.552	34.68
962.914	34.65
963.276	34.64
963.638	34.64
964	34.66
964.362	34.66
964.724	34.66
965.085	34.61
965.447	34.59
965.809	34.62
966.17	34.62
966.532	34.64
966.893	34.63
967.255	34.62
967.616	34.65
967.977	34.61
968.338	34.65
968.699	34.64
969.061	34.65
969.421	34.68
969.782	34.71
970.143	34.72
970.504	34.72
970.865	34.78
971.225	34.78
971.586	34.77
971.946	34.82
972.307	34.84
972.667	34.87
973.027	34.98
973.388	34.98
973.748	34.95
974.108	35.04
974.468	35.04
974.828	35.08
975.188	35.12
975.548	35.13
975.907	35.15
976.267	35.16
976.627	35.19
976.986	35.11
977.346	35.08
977.705	35.1
978.064	35.07
978.424	35.16
978.783	35.12
979.142	35.12
979.501	35.13
979.86	35.12
980.219	35.16
980.578	35.22
980.937	35.29
981.296	35.32
981.654	35.36
982.013	35.39
982.371	35.35
982.73	35.37
983.088	35.45
983.447	35.47
983.805	35.54
984.163	35.49
984.521	35.48
984.879	35.53
985.237	35.62
985.595	35.67
985.953	35.72
986.311	35.77
986.669	35.82
987.026	35.83
987.384	35.94
987.741	35.92
988.099	36.01
988.456	35.97
988.814	35.95
989.171	35.97
989.528	35.99
989.885	35.95
990.242	35.97
990.599	36.02
990.956	36.07
991.313	36.08
991.67	36.21
992.027	36.35
992.383	36.48
992.74	36.6
993.096	36.63
993.453	36.61
993.809	36.65
994.165	36.74
994.522	36.75
994.878	36.77
995.234	36.75
995.59	36.73
995.946	36.74
996.302	36.78
996.658	36.79
997.013	36.83
997.369	36.94
997.725	37.04
998.08	37.15
998.436	37.23
998.791	37.34
999.147	37.42
999.502	37.5
999.857	37.47
1000.212	37.42
1000.567	37.5
1000.922	37.64
1001.277	37.62
1001.632	37.65
1001.987	37.69
1002.342	37.7
1002.696	37.64
1003.051	37.78
1003.406	37.88
1003.76	37.98
1004.114	38.1
1004.469	38.15
1004.823	38.33
1005.177	38.5
1005.531	38.55
1005.885	38.52
1006.239	38.59
1006.593	38.77
1006.947	38.74
1007.301	38.66
1007.655	38.68
1008.008	38.7
1008.362	38.84
1008.715	38.8
1009.069	39.04
1009.422	39.11
1009.776	39.16
1010.129	39.2
1010.482	39.23
1010.835	39.31
1011.188	39.46
1011.541	39.58
1011.894	39.79
1012.247	39.79
1012.6	39.89
1012.952	39.76
1013.305	39.92
1013.657	40.02
1014.01	40.28
1014.362	40.31
1014.715	40.53
1015.067	40.73
1015.419	40.91
1015.771	40.9
1016.123	40.89
1016.475	40.9
1016.827	41.15
1017.179	41.37
1017.531	41.66
1017.883	41.69
1018.234	41.91
1018.586	41.9
1018.938	42.14
1019.289	42.17
1019.64	42.51
1019.992	42.68
1020.343	42.67
1020.694	42.67
1021.045	42.79
1021.396	42.86
1021.747	43.15
1022.098	43.19
1022.449	43.3
1022.8	43.26
1023.151	43.43
1023.501	43.65
1023.852	43.98
1024.202	44.08
1024.553	44.12
1024.903	44.18
1025.253	44.45
1025.604	44.57
1025.954	44.62
1026.304	45.04
1026.654	45.16
1027.004	45.1
1027.354	44.84
1027.703	44.57
1028.053	44.86
1028.403	45.12
1028.753	44.91
1029.102	45.25
1029.452	45.53
1029.801	46.17
1030.15	45.98
1030.499	46.06
897.758	935.1
901.051	941.89
904.343	944.09
907.636	958.85
910.928	931.62
914.22	931.27
917.511	918.67
920.803	879
924.094	875
927.384	854.41
930.675	824.06
933.965	818.99
937.255	767.83
940.544	735.3
943.834	705.15
947.123	699.72
950.411	657.82
953.7	647.39
956.988	609.9
960.276	583.71
963.563	577.65
966.851	552.77
970.138	550.38
973.424	535.84
976.711	538.98
979.997	509.51
983.283	506.36
986.568	497.34
989.853	483.62
993.138	474.84
996.423	460.65
999.708	446.16
1002.992	442.78
1006.275	423.36
1009.559	420.81
1012.842	403.57
1016.125	394.58
1019.408	387.41
1022.69	383.76
1025.972	374.04
1029.254	365.87
1032.536	358.9
1035.817	352.74
1039.098	348.55
1042.379	341.31
1045.659	336.7
1048.939	329.42
1052.219	323.49
1055.498	319.92
1058.778	310.59
1062.057	306.72
1065.335	303.67
1068.614	300.67
1071.892	296.39
1075.17	287.87
1078.447	283.12
1081.724	280.5
1085.001	278.51
1088.278	273.41
1091.554	267.88
1094.83	269.3
1098.106	265.96
1101.382	263.3
1104.657	261.02
1107.932	257.33
1111.206	258.81
1114.481	252.12
1117.755	251.11
1121.029	248.9
1124.302	247.53
1127.575	244.11
1130.848	240.84
1134.121	238.38
1137.393	237.62
1140.665	232.87
1143.937	230.62
1147.208	229.51
1150.48	229
1153.75	224.95
1157.021	222.83
1160.291	223.03
1163.561	218.92
1166.831	219.05
1170.101	217.35
1173.37	217.39
1176.639	217.42
1179.907	216.31
1183.176	213.2
1186.444	212.91
1189.711	212.89
1192.979	212.51
1196.246	211.2
1199.513	212.64
1202.78	210.65
1206.046	210.59
1209.312	208.16
1212.578	208.82
1215.843	210.08
1219.108	209.81
1222.373	213.66
1225.638	214.9
1228.902	217.19
1232.166	217.28
1235.43	218.46
1238.693	222.37
1241.956	223.53
1245.219	226.47
1248.482	227.25
1251.744	227.26
1255.006	227.97
1258.268	223.29
1261.529	221.53
1264.79	220.83
1268.051	218.8
1271.312	216.58
1274.572	213.38
1277.832	211.95
1281.092	208.4
1284.351	206.31
1287.61	206.23
1290.869	202.39
1294.128	201.18
1297.386	200.72
1300.644	198.63
1303.902	200.16
1307.159	199.73
1310.416	199.39
1313.673	197.95
1316.93	200.2
1320.186	200.09
1323.442	200.37
1326.697	203.83
1329.953	204.67
1333.208	205.32
1336.463	207.85
1339.717	208.05
1342.972	209.53
1346.226	211.79
1349.479	212.89
1352.733	213.86
1355.986	215.36
1359.238	214.77
1362.491	214.42
1365.743	217.09
1368.995	217.27
1372.247	215.9
1375.498	215.39
1378.749	216.55
1382	215.2
1385.251	215.19
1388.501	214.49
1391.751	213.4
1395	213.41
1398.25	212.35
1401.499	209.36
1404.748	209.15
1407.996	206.73
1411.244	206.18
1414.492	205.11
1417.74	201.39
1420.987	198.95
1424.234	198.24
1427.481	196.68
1430.728	196.18
1433.974	194.4
1437.22	192.89
1440.465	192.49
1443.711	190.75
1446.956	189.45
1450.201	187.69
1453.445	186.44
1456.689	185.6
1459.933	182.38
1463.177	180.56
1466.42	178.33
1469.663	176.37
1472.906	175.35
1476.148	170.08
1479.391	168.74
1482.633	167.48
1485.874	164.99
1489.115	163.78
1492.356	162.11
1495.597	161.61
1498.838	159.71
1502.078	158.26
1505.318	157.59
1508.557	157.83
1511.797	158.2
1515.036	156.01
1518.274	156.02
1521.513	155.11
1524.751	154.76
1527.989	154.63
1531.227	153.97
1534.464	153.89
1537.701	153.81
1540.938	153.43
1544.174	151.23
1547.41	151.62
1550.646	151.76
1553.882	150.81
1557.117	149.28
1560.352	148.81
1563.587	148.42
1566.821	147.31
1570.055	146.54
1573.289	145.12
1576.523	145.25
1579.756	144.72
1582.989	143.61
1586.222	143.76
1589.454	143.11
1592.686	143.8
1595.918	143.1
1599.15	142.41
1602.381	143.09
1605.612	142.73
1608.843	142.75
1612.073	142.98
1615.303	143.38
1618.533	143.75
1621.762	143.22
1624.992	144.04
1628.221	143.66
1631.449	143.12
1634.678	143.53
1637.906	144.27
1641.134	143.85
1644.361	143.82
1647.588	143.81
1650.815	143.45
1654.042	142.98
1657.269	143.52
1660.495	143.15
1663.72	143.5
1666.946	144.34
1670.171	144.36
1673.396	143.73
1676.621	143.76
1679.845	144.59
1683.069	144.97
1686.293	145.45
1689.517	145.97
1692.74	146.07
1695.963	146.66
1699.185	147.19
1702.408	147.59
1705.63	147.75
1708.852	147.99
1712.073	148.81
1715.294	148.67
1718.515	149.32
1721.736	149.31
1724.956	150.14
1728.176	150.05
1731.396	151.06
1734.616	150.38
1737.835	150.86
1741.054	150.21
1744.272	150.84
1747.491	152.15
1750.709	152.18
1753.927	151.66
1757.144	151.62
1760.361	151.57
1763.578	152.48
1766.795	151.53
1770.011	153.4
1773.227	152.72
1776.443	154.48
1779.658	154.73
1782.874	154.69
1786.089	154.4
1789.303	154.97
1792.518	157.3
1795.732	156.71
1798.945	157.54
1802.159	157.98
1805.372	157.61
1808.585	160.71
1811.797	161.04
1815.01	161.42
1818.222	162.19
1821.434	164.99
1824.645	165.02
1827.856	166.72
1831.067	167.67
1834.278	167.73
1837.488	169.19
1840.698	170.35
1843.908	168.63
1847.117	169.07
1850.326	170.26
1853.535	169.5
1856.744	170.93
1859.952	171.41
1863.16	169.55
1866.368	169.48
1869.575	170.41
1872.782	168.27
1875.989	167.59
1879.196	167.73
1882.402	166.69
1885.608	166.33
1888.814	166.52
1892.019	165.81
1895.224	164.79
1898.429	164.64
1901.634	164.72
1904.838	165
1908.042	165.71
1911.246	166.21
1914.449	166.01
1917.652	166.4
1920.855	166.03
1924.058	166.99
1927.26	165.93
1930.462	166.88
1933.664	168.21
1936.865	167.27
1940.066	166.35
1943.267	166.14
1946.467	166.33
1949.668	167.1
1952.868	169.31
1956.067	170.26
1959.267	169.69
1962.466	170.24
1965.665	169.23
1968.863	169.66
1972.061	173.19
1975.259	174.66
1978.457	175.62
1981.654	177.03
1984.852	177.51
1988.048	176.93
1991.245	178.78
1994.441	179.95
1997.637	182.17
2000.833	185.93
2004.028	187.99
2007.223	188.14
2010.418	189.7
2013.613	194.02
2016.807	195.36
2020.001	197.22
2023.194	200.72
2026.388	204.4
2029.581	210.14
2032.774	210.79
2035.966	214.39
2039.158	215.35
2042.35	218.63
2045.542	220.77
2048.733	223.1
2051.924	227.34
2055.115	230.39
2058.306	230.26
2061.496	231.93
2064.686	231.42
2067.875	237.32
2071.065	237.76
2074.254	236.24
2077.442	240.18
2080.631	241.19
2083.819	243.04
2087.007	243.13
2090.195	246.47
2093.382	249.31
2096.569	248.3
2099.756	252.05
2102.942	251.43
2106.128	253.76
2109.314	260.74
2112.5	259.57
2115.685	265.01
2118.87	265.89
2122.055	270.26
2125.239	271.87
2128.424	274.05
2131.608	276.47
2134.791	280.37
2137.974	281.52
2141.157	282.91
2144.34	282.74
2147.523	288.53
2150.705	286.57
2153.887	289.84
2157.068	290.11
2160.25	287.03
2163.431	289.18
2166.611	292.97
2169.792	297.36
2172.972	300.18
2176.152	303.55
2179.331	306.75
2182.511	309.51
2185.69	313.41
2188.868	319.19
2192.047	319.8
2195.225	330.54
2198.403	338.15
2201.58	345
2204.758	350.55
2207.935	357.32
2211.111	363.22
2214.288	367.22
2217.464	368.53
2220.64	374.27
2223.815	377.9
2226.991	394.11
2230.166	394.15
2233.34	397.95
2236.515	404.94
2239.689	406.48
2242.863	409.32
2246.036	417.07
2249.209	415.42
2252.382	424.64
2255.555	435.63
2258.727	437.89
2261.9	440.94
2265.071	445.8
2268.243	455.53
2271.414	458.55
2274.585	467.49
2277.756	472.94
2280.926	477.8
2284.096	490.12
2287.266	497.81
2290.436	503.12
2293.605	512.69
2296.774	527.44
2299.942	543.66
2303.111	545.71
2306.279	556.02
2309.447	566.16
2312.614	582.36
2315.781	597.28
2318.948	625.02
2322.115	616.88
2325.281	648.47
2328.447	640.44
2331.613	663.62
2334.779	655.82
2337.944	687.06
2341.109	694.48
2344.274	713.12
2347.438	735.52
2350.602	736.99
2353.766	756.95
2356.929	769.23
2360.092	763.27
2363.255	813.46
2366.418	812.44
2369.58	827.46
2372.742	878.16
2375.904	901.43
2379.066	893.77
2382.227	878.35
2385.388	950.58
2388.548	949.95
2391.709	961.66
2394.869	1074.29
2398.029	1031.95
2401.188	1065.01
2404.347	1058.67
2407.506	1036.51
2410.665	1065.12
2413.823	1129.81
2416.981	1188.43
2420.139	1161.06
2423.296	1145.71
2426.453	1200.15
2429.61	1155.36
2432.767	1205.51
2435.923	1189.95
2439.079	1309.47
2442.235	1331.01
2445.391	1319.48
2448.546	1306.19
2451.701	1272.62
2454.855	1261.78
2458.009	1348.19
2461.163	1393.66
2464.317	1444.5
2467.471	1483.66
2470.624	1483.32
2473.777	1438.44
2476.929	1397.96
2480.082	1354.85
2483.234	1346.4
2486.385	1423.38
2489.537	1430.77
2492.688	1473.07
2495.839	1444.51
2498.989	1403.82
2502.14	1404.01
2505.29	1419.94
2508.439	1435.04
2511.589	1432.1
2514.738	1568.5
2517.887	1530.71
2521.035	1598.05
2524.183	1623.89
2527.331	1634.6
2530.479	1612.4
2533.627	1633.79
