Data from N_3_DEC_NC_4N_Splice17_14-00-52-853.txt Node
Date: Sat Mar 07 14:00:52 EST 2020
User: sa697716
Spectrometer: NQ5500242
Trigger mode: 0
Integration Time (sec): 1.450000E-1
Scans to average: 20
Nonlinearity correction enabled: false
Boxcar width: 5
Storing dark spectrum: false
XAxis mode: Wavelengths
Number of Pixels in Spectrum: 512
>>>>>Begin Spectral Data<<<<<
187.83	145.96
188.298	162.55
188.766	146.65
189.233	112.24
189.701	120.58
190.169	153.12
190.636	181.36
191.104	225.71
191.571	273.2
192.039	314.29
192.506	8.77
192.974	85.74
193.441	146.69
193.908	32.69
194.375	40
194.842	31.07
195.31	88.49
195.777	-50.93
196.244	29.18
196.711	41.44
197.177	44.43
197.644	43.5
198.111	43.27
198.578	44.05
199.045	44.32
199.511	44
199.978	43.98
200.445	44.24
200.911	44.55
201.378	44.52
201.844	44.3
202.31	43.99
202.777	44.07
203.243	44.05
203.709	43.46
204.176	43.32
204.642	42.98
205.108	42.68
205.574	42.32
206.04	41.73
206.506	41.5
206.972	41.46
207.438	41.2
207.903	40.75
208.369	39.75
208.835	39.12
209.301	38.1
209.766	37.11
210.232	36.25
210.697	35.43
211.163	34.69
211.628	33.66
212.094	32.74
212.559	31.91
213.024	30.91
213.49	30.59
213.955	29.87
214.42	29.32
214.885	28.51
215.35	27.56
215.815	26.27
216.28	24.65
216.745	22.85
217.21	21.04
217.675	19.45
218.14	18.07
218.604	16.75
219.069	15.71
219.534	14.81
219.998	14.12
220.463	13.51
220.927	12.92
221.392	12.52
221.856	12.2
222.32	11.94
222.785	11.65
223.249	11.43
223.713	11.22
224.177	11.05
224.642	10.88
225.106	10.69
225.57	10.5
226.034	10.36
226.497	10.2
226.961	10.02
227.425	9.88
227.889	9.75
228.353	9.62
228.816	9.5
229.28	9.36
229.744	9.25
230.207	9.13
230.671	9.01
231.134	8.89
231.597	8.83
232.061	8.75
232.524	8.65
232.987	8.56
233.45	8.48
233.914	8.41
234.377	8.33
234.84	8.26
235.303	8.2
235.766	8.14
236.229	8.09
236.691	8.01
237.154	7.94
237.617	7.88
238.08	7.82
238.542	7.75
239.005	7.69
239.468	7.63
239.93	7.56
240.393	7.51
240.855	7.45
241.317	7.38
241.78	7.33
242.242	7.27
242.704	7.22
243.166	7.17
243.629	7.12
244.091	7.07
244.553	7.02
245.015	6.98
245.477	6.93
245.939	6.9
246.4	6.86
246.862	6.82
247.324	6.79
247.786	6.75
248.247	6.71
248.709	6.66
249.17	6.61
249.632	6.58
250.093	6.54
250.555	6.5
251.016	6.47
251.477	6.42
251.939	6.39
252.4	6.35
252.861	6.31
253.322	6.28
253.783	6.25
254.244	6.23
254.705	6.19
255.166	6.16
255.627	6.12
256.088	6.09
256.549	6.07
257.009	6.04
257.47	6.01
257.931	5.98
258.391	5.95
258.852	5.92
259.312	5.9
259.773	5.88
260.233	5.87
260.694	5.85
261.154	5.82
261.614	5.8
262.074	5.78
262.534	5.76
262.994	5.75
263.455	5.73
263.915	5.72
264.374	5.7
264.834	5.69
265.294	5.67
265.754	5.67
266.214	5.66
266.673	5.65
267.133	5.65
267.593	5.64
268.052	5.63
268.512	5.62
268.971	5.61
269.431	5.6
269.89	5.6
270.349	5.6
270.809	5.58
271.268	5.58
271.727	5.57
272.186	5.56
272.645	5.55
273.104	5.54
273.563	5.53
274.022	5.52
274.481	5.52
274.94	5.51
275.399	5.5
275.857	5.49
276.316	5.48
276.775	5.48
277.233	5.47
277.692	5.46
278.15	5.45
278.609	5.45
279.067	5.44
279.525	5.43
279.984	5.42
280.442	5.41
280.9	5.4
281.358	5.39
281.816	5.38
282.274	5.37
282.732	5.36
283.19	5.35
283.648	5.34
284.106	5.32
284.564	5.32
285.021	5.32
285.479	5.31
285.937	5.3
286.394	5.3
286.852	5.29
287.309	5.28
287.767	5.28
288.224	5.26
288.682	5.26
289.139	5.25
289.596	5.24
290.053	5.22
290.511	5.2
290.968	5.19
291.425	5.17
291.882	5.16
292.339	5.14
292.796	5.13
293.252	5.12
293.709	5.11
294.166	5.1
294.623	5.09
295.079	5.08
295.536	5.08
295.992	5.06
296.449	5.06
296.905	5.06
297.362	5.05
297.818	5.04
298.274	5.03
298.731	5.03
299.187	5.02
299.643	5
300.099	5
300.555	4.99
301.011	4.98
301.467	4.97
301.923	4.95
302.379	4.95
302.835	4.95
303.291	4.94
303.746	4.94
304.202	4.94
304.658	4.94
305.113	4.93
305.569	4.93
306.024	4.92
306.479	4.91
306.935	4.91
307.39	4.91
307.845	4.9
308.301	4.89
308.756	4.89
309.211	4.89
309.666	4.89
310.121	4.89
310.576	4.9
311.031	4.9
311.486	4.91
311.94	4.91
312.395	4.92
312.85	4.91
313.305	4.91
313.759	4.91
314.214	4.91
314.668	4.91
315.123	4.91
315.577	4.9
316.032	4.9
316.486	4.89
316.94	4.89
317.394	4.88
317.849	4.87
318.303	4.87
318.757	4.85
319.211	4.84
319.665	4.83
320.119	4.82
320.572	4.8
321.026	4.78
321.48	4.77
321.934	4.76
322.387	4.75
322.841	4.74
323.295	4.74
323.748	4.74
324.202	4.74
324.655	4.73
325.108	4.73
325.562	4.74
326.015	4.75
326.468	4.75
326.921	4.75
327.374	4.75
327.827	4.75
328.28	4.74
328.733	4.74
329.186	4.73
329.639	4.73
330.092	4.73
330.545	4.72
330.997	4.71
331.45	4.72
331.903	4.73
332.355	4.73
332.808	4.73
333.26	4.73
333.713	4.72
334.165	4.72
334.617	4.73
335.069	4.72
335.522	4.73
335.974	4.73
336.426	4.72
336.878	4.72
337.33	4.71
337.782	4.72
338.234	4.72
338.686	4.73
339.137	4.74
339.589	4.73
340.041	4.73
340.493	4.72
340.944	4.71
341.396	4.71
341.847	4.7
342.299	4.68
342.75	4.67
343.201	4.66
343.653	4.64
344.104	4.63
344.555	4.62
345.006	4.61
345.457	4.61
345.908	4.61
346.359	4.6
346.81	4.6
347.261	4.61
347.712	4.61
348.163	4.61
348.613	4.61
349.064	4.6
349.515	4.61
349.965	4.61
350.416	4.61
350.866	4.61
351.317	4.6
351.767	4.61
352.217	4.6
352.668	4.6
353.118	4.6
353.568	4.61
354.018	4.61
354.468	4.62
354.918	4.63
355.368	4.63
355.818	4.63
356.268	4.64
356.718	4.65
357.168	4.65
357.617	4.65
358.067	4.65
358.517	4.66
358.966	4.67
359.416	4.67
359.865	4.67
360.315	4.69
360.764	4.69
361.213	4.69
361.663	4.69
362.112	4.71
362.561	4.72
363.01	4.73
363.459	4.72
363.908	4.72
364.357	4.73
364.806	4.72
365.255	4.73
365.703	4.73
366.152	4.75
366.601	4.75
367.05	4.76
367.498	4.75
367.947	4.76
368.395	4.77
368.844	4.78
369.292	4.78
369.74	4.8
370.189	4.8
370.637	4.8
371.085	4.81
371.533	4.82
371.981	4.82
372.429	4.83
372.877	4.84
373.325	4.85
373.773	4.85
374.221	4.87
374.669	4.87
375.116	4.88
375.564	4.89
376.012	4.9
376.459	4.91
376.907	4.94
377.354	4.96
377.801	4.98
378.249	5.01
378.696	5.02
379.143	5.04
379.591	5.06
380.038	5.07
380.485	5.11
380.932	5.14
381.379	5.16
381.826	5.19
382.273	5.2
382.72	5.23
383.166	5.25
383.613	5.28
384.06	5.3
384.506	5.33
384.953	5.37
385.4	5.39
385.846	5.43
386.292	5.46
386.739	5.49
387.185	5.52
387.631	5.55
388.078	5.59
388.524	5.62
388.97	5.66
389.416	5.7
389.862	5.74
390.308	5.78
390.754	5.82
391.2	5.87
391.645	5.91
392.091	5.96
392.537	6
392.983	6.05
393.428	6.09
393.874	6.13
394.319	6.18
394.765	6.21
395.21	6.24
395.655	6.27
396.101	6.31
396.546	6.34
396.991	6.39
397.436	6.42
397.881	6.46
398.326	6.51
398.771	6.55
399.216	6.58
399.661	6.63
400.106	6.66
400.551	6.7
400.995	6.73
401.44	6.76
401.885	6.78
402.329	6.8
402.774	6.82
403.218	6.85
403.663	6.88
404.107	6.9
404.551	6.92
404.995	6.94
405.44	6.95
405.884	6.96
406.328	6.98
406.772	6.99
407.216	7.01
407.66	7.02
408.104	7.02
408.547	7.02
408.991	7.03
409.435	7.03
409.879	7.03
410.322	7.06
410.766	7.07
411.209	7.1
411.653	7.11
412.096	7.12
412.54	7.13
412.983	7.14
413.426	7.18
413.869	7.2
414.312	7.22
414.756	7.26
415.199	7.26
415.642	7.27
416.085	7.28
416.527	7.28
416.97	7.28
417.413	7.28
417.856	7.3
418.298	7.29
418.741	7.29
419.184	7.29
419.626	7.28
420.069	7.3
420.511	7.29
420.953	7.29
421.396	7.3
421.838	7.29
422.28	7.3
422.722	7.32
423.164	7.32
423.606	7.3
424.048	7.31
424.49	7.3
424.932	7.28
425.374	7.27
425.816	7.24
426.258	7.22
426.699	7.2
427.141	7.19
427.582	7.17
428.024	7.17
428.465	7.17
428.907	7.15
429.348	7.13
429.789	7.13
430.231	7.13
430.672	7.15
431.113	7.16
431.554	7.16
431.995	7.16
432.436	7.15
432.877	7.14
433.318	7.15
433.759	7.16
434.2	7.19
434.64	7.19
435.081	7.2
435.522	7.19
435.962	7.22
436.403	7.24
436.843	7.25
437.284	7.26
437.724	7.27
438.164	7.28
438.604	7.29
439.045	7.29
439.485	7.3
439.925	7.29
440.365	7.31
440.805	7.29
441.245	7.31
441.685	7.33
442.125	7.36
442.564	7.38
443.004	7.39
443.444	7.41
443.883	7.44
444.323	7.46
444.762	7.49
445.202	7.53
445.641	7.57
446.081	7.6
446.52	7.63
446.959	7.67
447.398	7.7
447.837	7.74
448.276	7.77
448.716	7.8
449.154	7.84
449.593	7.89
450.032	7.91
450.471	7.92
450.91	7.94
451.349	7.96
451.787	7.95
452.226	7.95
452.664	7.96
453.103	7.97
453.541	7.98
453.98	7.98
454.418	7.97
454.856	7.96
455.295	7.94
455.733	7.92
456.171	7.92
456.609	7.92
457.047	7.91
457.485	7.91
457.923	7.9
458.361	7.88
458.798	7.88
459.236	7.87
459.674	7.87
460.111	7.87
460.549	7.88
460.987	7.88
461.424	7.87
461.862	7.87
462.299	7.87
462.736	7.86
463.173	7.86
463.611	7.85
464.048	7.85
464.485	7.85
464.922	7.85
465.359	7.86
465.796	7.86
466.233	7.87
466.67	7.87
467.106	7.89
467.543	7.88
467.98	7.89
468.416	7.89
468.853	7.9
469.29	7.91
469.726	7.91
470.162	7.91
470.599	7.91
471.035	7.9
471.471	7.9
471.907	7.89
472.344	7.9
472.78	7.9
473.216	7.9
473.652	7.91
474.088	7.91
474.523	7.92
474.959	7.92
475.395	7.92
475.831	7.93
476.266	7.94
476.702	7.95
477.138	7.94
477.573	7.96
478.008	7.96
478.444	7.96
478.879	7.97
479.314	7.97
479.75	7.99
480.185	7.99
480.62	7.99
481.055	8
481.49	8.01
481.925	8.02
482.36	8.03
482.795	8.04
483.229	8.05
483.664	8.06
484.099	8.07
484.534	8.07
484.968	8.1
485.403	8.11
485.837	8.14
486.271	8.16
486.706	8.19
487.14	8.22
487.574	8.25
488.009	8.28
488.443	8.31
488.877	8.35
489.311	8.4
489.745	8.46
490.179	8.51
490.613	8.57
491.046	8.62
491.48	8.67
491.914	8.73
492.348	8.8
492.781	8.88
493.215	8.95
493.648	9.02
494.082	9.09
494.515	9.17
494.948	9.26
495.382	9.34
495.815	9.43
496.248	9.52
496.681	9.63
497.114	9.73
497.547	9.82
497.98	9.94
498.413	10.05
498.846	10.17
499.279	10.28
499.711	10.4
500.144	10.52
500.577	10.66
501.009	10.79
501.442	10.91
501.874	11.06
502.306	11.19
502.739	11.36
503.171	11.51
503.603	11.67
504.036	11.83
504.468	11.98
504.9	12.15
505.332	12.32
505.764	12.49
506.196	12.68
506.627	12.86
507.059	13.05
507.491	13.23
507.923	13.42
508.354	13.62
508.786	13.82
509.217	14.04
509.649	14.25
510.08	14.47
510.512	14.68
510.943	14.9
511.374	15.12
511.805	15.34
512.237	15.56
512.668	15.78
513.099	16
513.53	16.23
513.961	16.45
514.391	16.69
514.822	16.91
515.253	17.14
515.684	17.35
516.114	17.57
516.545	17.79
516.975	18.01
517.406	18.23
517.836	18.44
518.267	18.66
518.697	18.87
519.127	19.06
519.558	19.25
519.988	19.45
520.418	19.65
520.848	19.83
521.278	20.01
521.708	20.34
522.138	20.52
522.567	20.7
522.997	20.85
523.427	21.02
523.857	21.18
524.286	21.33
524.716	21.48
525.145	21.64
525.575	21.79
526.004	21.93
526.433	21.91
526.863	22.05
527.292	22.17
527.721	22.28
528.15	22.39
528.579	22.49
529.008	22.62
529.437	22.71
529.866	22.8
530.295	22.89
530.724	22.99
531.152	23.08
531.581	23.14
532.01	23.22
532.438	23.3
532.867	23.37
533.295	23.45
533.723	23.49
534.152	23.54
534.58	23.6
535.008	23.62
535.436	23.67
535.865	23.7
536.293	23.74
536.721	23.77
537.149	23.8
537.576	23.82
538.004	23.84
538.432	23.87
538.86	23.89
539.287	23.91
539.715	23.95
540.143	23.95
540.57	23.96
540.998	23.97
541.425	24
541.852	24.01
542.28	24.02
542.707	24.05
543.134	24.06
543.561	24.08
543.988	24.09
544.415	24.09
544.842	24.13
545.269	24.17
545.696	24.21
546.123	24.23
546.549	24.25
546.976	24.27
547.403	24.28
547.829	24.32
548.256	24.33
548.682	24.33
549.108	24.36
549.535	24.35
549.961	24.34
550.387	24.34
550.813	24.33
551.24	24.33
551.666	24.33
552.092	24.32
552.518	24.33
552.943	24.32
553.369	24.31
553.795	24.32
554.221	24.33
554.646	24.31
555.072	24.3
555.498	24.29
555.923	24.27
556.349	24.24
556.774	24.21
557.199	24.18
557.625	24.15
558.05	24.12
558.475	24.07
558.9	24.03
559.325	23.99
559.75	23.94
560.175	23.91
560.6	23.85
561.025	23.8
561.449	23.76
561.874	23.68
562.299	23.61
562.723	23.53
563.148	23.45
563.572	23.38
563.997	23.3
564.421	23.21
564.846	23.12
565.27	23.04
565.694	22.96
566.118	22.86
566.542	22.77
566.966	22.67
567.39	22.59
567.814	22.49
568.238	22.39
568.662	22.28
569.086	22.19
569.509	22.11
569.933	22
570.357	21.9
570.78	21.8
571.204	21.71
571.627	21.62
572.05	21.54
572.474	21.47
572.897	21.38
573.32	21.31
573.743	21.21
574.166	21.11
574.589	21.03
575.012	20.95
575.435	20.87
575.858	20.79
576.281	20.71
576.704	20.64
577.126	20.56
577.549	20.49
577.972	20.41
578.394	20.35
578.817	20.3
579.239	20.24
579.661	20.19
580.084	20.13
580.506	20.09
580.928	20.03
581.35	19.97
581.772	19.9
582.194	19.85
582.616	19.82
583.038	19.77
583.46	19.72
583.882	19.68
584.303	19.63
584.725	19.6
585.147	19.55
585.568	19.49
585.99	19.45
586.411	19.43
586.833	19.38
587.254	19.33
587.675	19.29
588.096	19.24
588.518	19.19
588.939	19.16
589.36	19.11
589.781	19.06
590.202	19.04
590.623	19.01
591.043	18.97
591.464	18.95
591.885	18.91
592.305	18.87
592.726	18.85
593.147	18.82
593.567	18.78
593.987	18.75
594.408	18.72
594.828	18.69
595.248	18.66
595.669	18.64
596.089	18.59
596.509	18.58
596.929	18.56
597.349	18.52
597.769	18.48
598.189	18.44
598.608	18.42
599.028	18.4
599.448	18.37
599.867	18.32
600.287	18.3
600.706	18.28
601.126	18.23
601.545	18.22
601.965	18.2
602.384	18.18
602.803	18.14
603.222	18.1
603.641	18.07
604.061	18.02
604.48	17.99
604.898	17.93
605.317	17.89
605.736	17.85
606.155	17.8
606.574	17.75
606.992	17.69
607.411	17.65
607.829	17.57
608.248	17.51
608.666	17.47
609.085	17.41
609.503	17.36
609.921	17.31
610.339	17.25
610.758	17.2
611.176	17.13
611.594	17.09
612.012	17.02
612.43	16.98
612.847	16.93
613.265	16.87
613.683	16.81
614.101	16.77
614.518	16.71
614.936	16.65
615.353	16.57
615.771	16.51
616.188	16.45
616.606	16.41
617.023	16.36
617.44	16.33
617.857	16.27
618.274	16.23
618.691	16.19
619.108	16.14
619.525	16.11
619.942	16.08
620.359	16.07
620.776	16.04
621.192	16.02
621.609	16
622.026	15.96
622.442	15.94
622.859	15.91
623.275	15.89
623.691	15.88
624.108	15.87
624.524	15.84
624.94	15.82
625.356	15.81
625.772	15.79
626.188	15.79
626.604	15.78
627.02	15.77
627.436	15.76
627.852	15.75
628.268	15.74
628.683	15.73
629.099	15.73
629.514	15.71
629.93	15.69
630.345	15.67
630.761	15.63
631.176	15.6
631.591	15.56
632.007	15.52
632.422	15.48
632.837	15.43
633.252	15.37
633.667	15.3
634.082	15.23
634.497	15.17
634.911	15.09
635.326	15.02
635.741	14.94
636.155	14.86
636.57	14.76
636.984	14.67
637.399	14.56
637.813	14.45
638.228	14.35
638.642	14.23
639.056	14.11
639.47	14
639.884	13.88
640.298	13.74
640.712	13.63
641.126	13.5
641.54	13.36
641.954	13.24
642.368	13.12
642.781	13
643.195	12.88
643.609	12.76
644.022	12.63
644.436	12.51
644.849	12.41
645.262	12.31
645.676	12.21
646.089	12.13
646.502	12.05
646.915	11.98
647.328	11.91
647.741	11.85
648.154	11.79
648.567	11.73
648.98	11.67
649.393	11.62
649.805	11.57
650.218	11.52
650.631	11.48
651.043	11.44
651.456	11.39
651.868	11.35
652.28	11.31
652.693	11.27
653.105	11.23
653.517	11.19
653.929	11.15
654.341	11.09
654.753	11.03
655.165	10.97
655.577	10.9
655.989	10.82
656.401	10.75
656.813	10.66
657.224	10.56
657.636	10.46
658.047	10.37
658.459	10.28
658.87	10.19
659.282	10.07
659.693	9.97
660.104	9.87
660.515	9.78
660.926	9.67
661.338	9.56
661.749	9.48
662.159	9.38
662.57	9.28
662.981	9.18
663.392	9.09
663.803	9.01
664.213	8.92
664.624	8.83
665.035	8.74
665.445	8.68
665.855	8.61
666.266	8.54
666.676	8.49
667.086	8.42
667.497	8.36
667.907	8.31
668.317	8.26
668.727	8.22
669.137	8.2
669.547	8.16
669.956	8.12
670.366	8.09
670.776	8.06
671.186	8.04
671.595	8.03
672.005	8.02
672.414	8.01
672.824	8
673.233	8
673.642	7.99
674.052	7.99
674.461	8
674.87	8.01
675.279	8.04
675.688	8.05
676.097	8.07
676.506	8.1
676.915	8.13
677.323	8.17
677.732	8.22
678.141	8.27
678.549	8.33
678.958	8.39
679.366	8.47
679.775	8.55
680.183	8.65
680.592	8.76
681	8.89
681.408	9.02
681.816	9.16
682.224	9.33
682.632	9.5
683.04	9.7
683.448	9.91
683.856	10.14
684.264	10.39
684.671	10.64
685.079	10.91
685.487	11.21
685.894	11.53
686.302	11.87
686.709	12.22
687.116	12.6
687.524	12.98
687.931	13.38
688.338	13.79
688.745	14.2
689.152	14.63
689.559	15.09
689.966	15.54
690.373	15.99
690.78	16.45
691.187	16.89
691.593	17.33
692	17.78
692.407	18.21
692.813	18.66
693.22	19.09
693.626	19.54
694.032	19.95
694.439	20.36
694.845	20.78
695.251	21.18
695.657	21.57
696.063	21.96
696.469	22.34
696.875	22.73
697.281	23.09
697.687	23.46
698.093	23.8
698.498	24.13
698.904	24.47
699.31	24.77
699.715	25.1
700.12	25.4
700.526	25.71
700.931	26.01
701.337	26.28
701.742	26.54
702.147	26.8
702.552	27.07
702.957	27.32
703.362	27.55
703.767	27.77
704.172	27.98
704.577	28.21
704.981	28.42
705.386	28.63
705.791	28.85
706.195	29.05
706.6	29.24
707.004	29.41
707.408	29.6
707.813	29.79
708.217	30
708.621	30.19
709.025	30.35
709.43	30.49
709.834	30.65
710.237	30.78
710.641	30.93
711.045	31.07
711.449	31.23
711.853	31.38
712.256	31.52
712.66	31.65
713.064	31.76
713.467	31.89
713.87	32.04
714.274	32.14
714.677	32.26
715.08	32.38
715.484	32.51
715.887	32.63
716.29	32.73
716.693	32.85
717.096	32.94
717.499	33.04
717.901	33.16
718.304	33.25
718.707	33.35
719.109	33.46
719.512	33.55
719.915	33.65
720.317	33.71
720.719	33.78
721.122	33.84
721.524	33.91
721.926	34
722.328	34.08
722.731	34.14
723.133	34.24
723.535	34.3
723.937	34.36
724.338	34.39
724.74	34.44
725.142	34.58
725.544	34.64
725.945	34.73
726.347	34.75
726.748	34.8
727.15	34.85
727.551	34.89
727.952	34.94
728.354	35
728.755	35.04
729.156	35.09
729.557	35.03
729.958	35.06
730.359	35.08
730.76	35.12
731.161	35.14
731.562	35.18
731.962	35.18
732.363	35.21
732.763	35.22
733.164	35.24
733.564	35.27
733.965	35.3
734.365	35.34
734.766	35.36
735.166	35.37
735.566	35.39
735.966	35.43
736.366	35.44
736.766	35.46
737.166	35.49
737.566	35.53
737.966	35.55
738.365	35.56
738.765	35.58
739.165	35.57
739.564	35.59
739.964	35.6
740.363	35.59
740.763	35.63
741.162	35.63
741.561	35.62
741.96	35.61
742.36	35.61
742.759	35.65
743.158	35.65
743.557	35.66
743.955	35.67
744.354	35.69
744.753	35.71
745.152	35.73
745.55	35.73
745.949	35.77
746.348	35.82
746.746	35.82
747.144	35.84
747.543	35.85
747.941	35.87
748.339	35.86
748.737	35.85
749.136	35.86
749.534	35.83
749.932	35.84
750.33	35.81
750.727	35.8
751.125	35.81
751.523	35.77
751.921	35.78
752.318	35.78
752.716	35.78
753.113	35.8
753.511	35.81
753.908	35.83
754.305	35.85
754.703	35.86
755.1	35.85
755.497	35.85
755.894	35.85
756.291	35.85
756.688	35.82
757.085	35.82
757.482	35.82
757.878	35.81
758.275	35.79
758.672	35.77
759.068	35.78
759.465	35.78
759.861	35.78
760.258	35.79
760.654	35.78
761.05	35.8
761.447	35.81
761.843	35.79
762.239	35.78
762.635	35.79
763.031	35.78
763.427	35.77
763.822	35.76
764.218	35.76
764.614	35.76
765.01	35.74
765.405	35.74
765.801	35.72
766.196	35.72
766.592	35.72
766.987	35.72
767.382	35.71
767.778	35.72
768.173	35.72
768.568	35.7
768.963	35.67
769.358	35.68
769.753	35.69
770.148	35.7
770.542	35.7
770.937	35.67
771.332	35.66
771.726	35.68
772.121	35.63
772.515	35.64
772.91	35.65
773.304	35.67
773.699	35.65
774.093	35.62
774.487	35.61
774.881	35.6
775.275	35.59
775.669	35.6
776.063	35.6
776.457	35.63
776.851	35.62
777.245	35.61
777.638	35.6
778.032	35.61
778.425	35.64
778.819	35.64
779.212	35.65
779.606	35.67
779.999	35.66
780.392	35.66
780.786	35.62
781.179	35.63
781.572	35.65
781.965	35.65
782.358	35.67
782.751	35.64
783.143	35.63
783.536	35.62
783.929	35.62
784.322	35.65
784.714	35.66
785.107	35.68
785.499	35.68
785.891	35.68
786.284	35.71
786.676	35.71
787.068	35.72
787.46	35.73
787.852	35.74
788.245	35.74
788.636	35.72
789.028	35.73
789.42	35.71
789.812	35.72
790.204	35.72
790.595	35.72
790.987	35.72
791.378	35.72
791.77	35.73
792.161	35.74
792.553	35.75
792.944	35.75
793.335	35.75
793.726	35.77
794.117	35.78
794.508	35.75
794.899	35.74
795.29	35.74
795.681	35.73
796.072	35.74
796.463	35.75
796.853	35.71
797.244	35.71
797.634	35.73
798.025	35.74
798.415	35.72
798.806	35.75
799.196	35.76
799.586	35.76
799.976	35.77
800.366	35.77
800.756	35.77
801.146	35.8
801.536	35.79
801.926	35.77
802.316	35.76
802.706	35.77
803.095	35.79
803.485	35.79
803.874	35.8
804.264	35.81
804.653	35.81
805.043	35.78
805.432	35.79
805.821	35.81
806.21	35.82
806.599	35.82
806.988	35.85
807.377	35.83
807.766	35.83
808.155	35.81
808.544	35.82
808.933	35.83
809.321	35.85
809.71	35.86
810.098	35.84
810.487	35.84
810.875	35.82
811.264	35.82
811.652	35.83
812.04	35.83
812.428	35.88
812.816	35.84
813.204	35.82
813.592	35.82
813.98	35.84
814.368	35.87
814.756	35.86
815.144	35.87
815.531	35.86
815.919	35.86
816.306	35.88
816.694	35.84
817.081	35.88
817.469	35.9
817.856	35.9
818.243	35.88
818.63	35.86
819.017	35.86
819.404	35.85
819.791	35.84
820.178	35.84
820.565	35.83
820.952	35.84
821.339	35.82
821.725	35.82
822.112	35.83
822.498	35.82
822.885	35.84
823.271	35.85
823.657	35.84
824.044	35.84
824.43	35.84
824.816	35.83
825.202	35.83
825.588	35.84
825.974	35.83
826.36	35.82
826.746	35.8
827.132	35.79
827.517	35.78
827.903	35.8
828.289	35.8
828.674	35.79
829.06	35.79
829.445	35.77
829.83	35.75
830.216	35.72
830.601	35.72
830.986	35.71
831.371	35.67
831.756	35.65
832.141	35.64
832.526	35.62
832.911	35.6
833.295	35.6
833.68	35.59
834.065	35.58
834.449	35.55
834.834	35.55
835.218	35.56
835.603	35.57
835.987	35.56
836.371	35.54
836.755	35.53
837.139	35.53
837.524	35.51
837.908	35.53
838.291	35.53
838.675	35.53
839.059	35.51
839.443	35.48
839.827	35.46
840.21	35.46
840.594	35.45
840.977	35.44
841.361	35.44
841.744	35.41
842.127	35.37
842.511	35.37
842.894	35.36
843.277	35.35
843.66	35.33
844.043	35.36
844.426	35.36
844.809	35.36
845.191	35.37
845.574	35.35
845.957	35.38
846.339	35.39
846.722	35.37
847.104	35.38
847.487	35.39
847.869	35.4
848.252	35.37
848.634	35.38
849.016	35.37
849.398	35.38
849.78	35.37
850.162	35.34
850.544	35.34
850.926	35.35
851.307	35.35
851.689	35.33
852.071	35.31
852.452	35.33
852.834	35.31
853.215	35.32
853.597	35.32
853.978	35.31
854.359	35.33
854.741	35.32
855.122	35.3
855.503	35.29
855.884	35.28
856.265	35.29
856.646	35.26
857.026	35.28
857.407	35.28
857.788	35.28
858.169	35.3
858.549	35.3
858.93	35.29
859.31	35.3
859.69	35.33
860.071	35.37
860.451	35.37
860.831	35.39
861.211	35.36
861.591	35.33
861.971	35.31
862.351	35.3
862.731	35.32
863.111	35.32
863.491	35.33
863.87	35.31
864.25	35.26
864.629	35.26
865.009	35.27
865.388	35.26
865.768	35.28
866.147	35.27
866.526	35.24
866.905	35.23
867.284	35.23
867.663	35.22
868.042	35.22
868.421	35.26
868.8	35.26
869.179	35.26
869.558	35.25
869.936	35.23
870.315	35.24
870.693	35.26
871.072	35.26
871.45	35.25
871.828	35.25
872.207	35.26
872.585	35.24
872.963	35.22
873.341	35.22
873.719	35.22
874.097	35.24
874.475	35.25
874.853	35.27
875.23	35.27
875.608	35.28
875.986	35.28
876.363	35.28
876.741	35.27
877.118	35.28
877.495	35.29
877.873	35.31
878.25	35.31
878.627	35.3
879.004	35.28
879.381	35.27
879.758	35.25
880.135	35.26
880.512	35.25
880.889	35.26
881.265	35.25
881.642	35.23
882.019	35.21
882.395	35.2
882.772	35.21
883.148	35.2
883.524	35.21
883.901	35.23
884.277	35.21
884.653	35.19
885.029	35.16
885.405	35.15
885.781	35.16
886.157	35.16
886.532	35.16
886.908	35.14
887.284	35.14
887.659	35.12
888.035	35.08
888.411	35.07
888.786	35.07
889.161	35.08
889.537	35.07
889.912	35.06
890.287	35.04
890.662	35.01
891.037	35.01
891.412	34.98
891.787	34.95
892.162	34.95
892.536	34.95
892.911	34.94
893.286	34.95
893.66	34.95
894.035	34.94
894.409	34.93
894.784	34.94
895.158	34.95
895.532	34.95
895.906	34.96
896.281	34.96
896.655	34.96
897.029	34.96
897.402	34.93
897.776	34.93
898.15	34.92
898.524	34.92
898.898	34.92
899.271	34.91
899.645	34.92
900.018	34.95
900.392	34.96
900.765	34.98
901.138	34.97
901.511	34.99
901.884	34.99
902.258	35.02
902.631	35.03
903.003	35.05
903.376	35.05
903.749	35.04
904.122	35.03
904.495	35.03
904.867	35.03
905.24	35.05
905.612	35.06
905.985	35.07
906.357	35.06
906.729	35.07
907.102	35.06
907.474	35.08
907.846	35.08
908.218	35.08
908.59	35.09
908.962	35.11
909.334	35.1
909.705	35.09
910.077	35.1
910.449	35.1
910.82	35.1
911.192	35.1
911.563	35.09
911.935	35.11
912.306	35.13
912.677	35.13
913.048	35.1
913.419	35.11
913.79	35.1
914.161	35.11
914.532	35.12
914.903	35.13
915.274	35.13
915.645	35.13
916.015	35.13
916.386	35.12
916.756	35.12
917.127	35.16
917.497	35.17
917.868	35.18
918.238	35.17
918.608	35.18
918.978	35.17
919.348	35.2
919.718	35.21
920.088	35.24
920.458	35.23
920.828	35.25
921.198	35.21
921.567	35.22
921.937	35.24
922.306	35.25
922.676	35.25
923.045	35.28
923.415	35.24
923.784	35.26
924.153	35.24
924.522	35.26
924.891	35.25
925.26	35.27
925.629	35.25
925.998	35.24
926.367	35.24
926.736	35.22
927.104	35.2
927.473	35.21
927.842	35.19
928.21	35.19
928.578	35.17
928.947	35.2
929.315	35.2
929.683	35.21
930.051	35.21
930.42	35.21
930.788	35.2
931.156	35.17
931.523	35.17
931.891	35.21
932.259	35.22
932.627	35.23
932.994	35.19
933.362	35.2
933.729	35.2
934.097	35.2
934.464	35.22
934.831	35.27
935.199	35.29
935.566	35.31
935.933	35.29
936.3	35.29
936.667	35.27
937.034	35.29
937.401	35.32
937.767	35.31
938.134	35.32
938.501	35.3
938.867	35.29
939.234	35.3
939.6	35.3
939.967	35.27
940.333	35.21
940.699	35.29
941.065	35.26
941.431	35.22
941.798	35.21
942.163	35.2
942.529	35.2
942.895	35.21
943.261	35.21
943.627	35.19
943.992	35.21
944.358	35.27
944.723	35.25
945.089	35.2
945.454	35.24
945.82	35.23
946.185	35.25
946.55	35.19
946.915	35.17
947.28	35.17
947.645	35.16
948.01	35.15
948.375	35.15
948.74	35.14
949.104	35.18
949.469	35.1
949.834	35.1
950.198	35.07
950.562	35.06
950.927	35.06
951.291	35
951.655	34.93
952.02	34.94
952.384	34.85
952.748	34.82
953.112	34.79
953.476	34.8
953.839	34.72
954.203	34.71
954.567	34.7
954.931	34.65
955.294	34.66
955.658	34.75
956.021	34.69
956.385	34.71
956.748	34.69
957.111	34.7
957.474	34.73
957.837	34.73
958.2	34.72
958.563	34.73
958.926	34.75
959.289	34.77
959.652	34.72
960.015	34.72
960.377	34.7
960.74	34.73
961.102	34.71
961.465	34.73
961.827	34.8
962.189	34.78
962.552	34.78
962.914	34.77
963.276	34.76
963.638	34.75
964	34.72
964.362	34.79
964.724	34.77
965.085	34.78
965.447	34.71
965.809	34.62
966.17	34.62
966.532	34.61
966.893	34.6
967.255	34.55
967.616	34.54
967.977	34.57
968.338	34.51
968.699	34.52
969.061	34.53
969.421	34.55
969.782	34.59
970.143	34.61
970.504	34.63
970.865	34.66
971.225	34.68
971.586	34.64
971.946	34.64
972.307	34.68
972.667	34.64
973.027	34.65
973.388	34.67
973.748	34.68
974.108	34.72
974.468	34.74
974.828	34.73
975.188	34.73
975.548	34.76
975.907	34.83
976.267	34.83
976.627	34.89
976.986	34.88
977.346	34.87
977.705	34.89
978.064	34.9
978.424	34.86
978.783	34.88
979.142	34.96
979.501	34.95
979.86	35
980.219	35.01
980.578	35.05
980.937	35.01
981.296	35.01
981.654	34.99
982.013	34.96
982.371	35.01
982.73	35.04
983.088	35.02
983.447	35.05
983.805	34.99
984.163	34.99
984.521	34.98
984.879	34.95
985.237	35.02
985.595	35.12
985.953	35.1
986.311	35.05
986.669	35.04
987.026	35.04
987.384	35.05
987.741	35.04
988.099	35.11
988.456	35.04
988.814	35.13
989.171	35.16
989.528	35.07
989.885	35.13
990.242	35.18
990.599	35.24
990.956	35.27
991.313	35.32
991.67	35.32
992.027	35.39
992.383	35.46
992.74	35.5
993.096	35.4
993.453	35.44
993.809	35.44
994.165	35.57
994.522	35.54
994.878	35.57
995.234	35.53
995.59	35.59
995.946	35.53
996.302	35.54
996.658	35.59
997.013	35.7
997.369	35.78
997.725	35.87
998.08	35.84
998.436	35.78
998.791	35.81
999.147	35.79
999.502	35.8
999.857	35.81
1000.212	35.76
1000.567	35.74
1000.922	35.67
1001.277	35.6
1001.632	35.52
1001.987	35.44
1002.342	35.55
1002.696	35.45
1003.051	35.65
1003.406	35.77
1003.76	35.71
1004.114	35.81
1004.469	35.88
1004.823	36.14
1005.177	36.15
1005.531	36.19
1005.885	36.26
1006.239	36.24
1006.593	36.44
1006.947	36.34
1007.301	36.18
1007.655	36.24
1008.008	36.19
1008.362	36.3
1008.715	36.19
1009.069	36.29
1009.422	36.36
1009.776	36.35
1010.129	36.4
1010.482	36.39
1010.835	36.39
1011.188	36.58
1011.541	36.68
1011.894	36.85
1012.247	36.8
1012.6	36.88
1012.952	36.82
1013.305	36.85
1013.657	36.91
1014.01	37.08
1014.362	37.06
1014.715	37.18
1015.067	37.29
1015.419	37.26
1015.771	37.08
1016.123	37.1
1016.475	37.08
1016.827	37.29
1017.179	37.52
1017.531	37.68
1017.883	37.54
1018.234	37.69
1018.586	37.76
1018.938	37.82
1019.289	37.84
1019.64	38.09
1019.992	38.1
1020.343	38.2
1020.694	38.09
1021.045	37.86
1021.396	37.68
1021.747	37.83
1022.098	37.85
1022.449	37.8
1022.8	37.69
1023.151	37.77
1023.501	37.72
1023.852	37.92
1024.202	37.78
1024.553	37.79
1024.903	37.86
1025.253	38.19
1025.604	38.26
1025.954	37.76
1026.304	37.75
1026.654	37.86
1027.004	37.9
1027.354	38.09
1027.703	37.81
1028.053	37.74
1028.403	38.02
1028.753	37.99
1029.102	38.16
1029.452	38.24
1029.801	38.98
1030.15	39.16
1030.499	39.2
897.758	1410.74
901.051	1408.68
904.343	1412.39
907.636	1432.85
910.928	1393.67
914.22	1390.83
917.511	1368.08
920.803	1309.21
924.094	1304.47
927.384	1272.6
930.675	1216.99
933.965	1209.42
937.255	1142.18
940.544	1091.7
943.834	1040.3
947.123	1031
950.411	970.78
953.7	950.72
956.988	901.75
960.276	861.94
963.563	847.09
966.851	817.19
970.138	809.14
973.424	783.22
976.711	789.34
979.997	748.13
983.283	745.12
986.568	729.14
989.853	706.67
993.138	693.19
996.423	667.74
999.708	649.79
1002.992	642.88
1006.275	612.44
1009.559	606.44
1012.842	583.55
1016.125	568.55
1019.408	557.32
1022.69	550.29
1025.972	539.23
1029.254	525.86
1032.536	516.53
1035.817	506.41
1039.098	500.15
1042.379	490.45
1045.659	485.25
1048.939	472.14
1052.219	463.25
1055.498	456.26
1058.778	445.85
1062.057	434.92
1065.335	429.46
1068.614	424.34
1071.892	419.25
1075.17	405.82
1078.447	398.3
1081.724	393.85
1085.001	391.64
1088.278	384.11
1091.554	376.24
1094.83	376.27
1098.106	373.5
1101.382	370.23
1104.657	366.35
1107.932	360.37
1111.206	362.4
1114.481	353.29
1117.755	350.44
1121.029	346.82
1124.302	345.47
1127.575	339.35
1130.848	334.87
1134.121	331.66
1137.393	329.75
1140.665	323.79
1143.937	321.26
1147.208	317.84
1150.48	317.77
1153.75	313.45
1157.021	308.97
1160.291	309.55
1163.561	304.78
1166.831	304.83
1170.101	302.46
1173.37	301.88
1176.639	302.58
1179.907	299.11
1183.176	296.79
1186.444	295.86
1189.711	296.21
1192.979	294.87
1196.246	292.8
1199.513	295.03
1202.78	293.29
1206.046	293.11
1209.312	290.12
1212.578	290.24
1215.843	293.56
1219.108	290.69
1222.373	296.79
1225.638	298.18
1228.902	303.04
1232.166	303.36
1235.43	304.52
1238.693	308.63
1241.956	310.15
1245.219	315.08
1248.482	315.51
1251.744	315.31
1255.006	317.3
1258.268	309.39
1261.529	306.55
1264.79	304.43
1268.051	302.79
1271.312	299.5
1274.572	295.18
1277.832	292.43
1281.092	287.9
1284.351	285.25
1287.61	284.94
1290.869	279.46
1294.128	277.78
1297.386	278.3
1300.644	274.48
1303.902	275.79
1307.159	274.48
1310.416	274.71
1313.673	274.34
1316.93	276.45
1320.186	276.86
1323.442	277.74
1326.697	283.45
1329.953	284.42
1333.208	284.79
1336.463	290.05
1339.717	288.99
1342.972	293.23
1346.226	295.49
1349.479	296.54
1352.733	298.28
1355.986	300.34
1359.238	300.26
1362.491	301.4
1365.743	304.71
1368.995	304.74
1372.247	303.79
1375.498	303.64
1378.749	305.91
1382	303.18
1385.251	305.19
1388.501	303.27
1391.751	304.4
1395	302.71
1398.25	300.58
1401.499	299.15
1404.748	299.5
1407.996	296.36
1411.244	295.87
1414.492	294.5
1417.74	292.46
1420.987	286.53
1424.234	287.52
1427.481	283.13
1430.728	283.65
1433.974	281.28
1437.22	279
1440.465	277.6
1443.711	275.08
1446.956	273.57
1450.201	269.45
1453.445	267.3
1456.689	266.41
1459.933	261.1
1463.177	259.5
1466.42	255.49
1469.663	252.39
1472.906	250.6
1476.148	244.14
1479.391	241.54
1482.633	239.26
1485.874	236.06
1489.115	233.73
1492.356	230.97
1495.597	230.25
1498.838	226.47
1502.078	224.81
1505.318	223.73
1508.557	223.14
1511.797	222.79
1515.036	221.29
1518.274	220.37
1521.513	218.36
1524.751	217.98
1527.989	217.32
1531.227	216.01
1534.464	216.31
1537.701	215.13
1540.938	214.39
1544.174	211.28
1547.41	211.07
1550.646	210.22
1553.882	209.96
1557.117	207.19
1560.352	205.53
1563.587	205.14
1566.821	203.7
1570.055	201.69
1573.289	200.18
1576.523	199.57
1579.756	198.53
1582.989	197.34
1586.222	196.65
1589.454	195.72
1592.686	197.17
1595.918	196.3
1599.15	195.1
1602.381	195.78
1605.612	195.38
1608.843	195.72
1612.073	195.98
1615.303	196.58
1618.533	196.97
1621.762	195.98
1624.992	196.47
1628.221	195.79
1631.449	195.7
1634.678	195.32
1637.906	196.12
1641.134	196.13
1644.361	195.65
1647.588	196.18
1650.815	195.45
1654.042	194.66
1657.269	196.5
1660.495	195.95
1663.72	195.3
1666.946	196.06
1670.171	197.05
1673.396	196.28
1676.621	196.57
1679.845	197.19
1683.069	196.86
1686.293	198.47
1689.517	199.1
1692.74	198.7
1695.963	199.66
1699.185	201.9
1702.408	202.11
1705.63	202.58
1708.852	203.58
1712.073	204
1715.294	204.17
1718.515	205.54
1721.736	204.88
1724.956	206.19
1728.176	206.19
1731.396	207.51
1734.616	206.86
1737.835	207.93
1741.054	206.3
1744.272	206.96
1747.491	208.71
1750.709	209.35
1753.927	209.28
1757.144	208.65
1760.361	209.38
1763.578	209.88
1766.795	209.57
1770.011	210.8
1773.227	210.86
1776.443	214.11
1779.658	215
1782.874	214.01
1786.089	215.05
1789.303	215.66
1792.518	218.57
1795.732	217.93
1798.945	220.52
1802.159	220.56
1805.372	221.04
1808.585	224.63
1811.797	225.18
1815.01	225.56
1818.222	228.16
1821.434	229.43
1824.645	230.19
1827.856	234.13
1831.067	236.51
1834.278	235.15
1837.488	237.44
1840.698	239.64
1843.908	237.46
1847.117	238.48
1850.326	240.07
1853.535	239.69
1856.744	243.19
1859.952	243.44
1863.16	241.91
1866.368	240.18
1869.575	244.01
1872.782	240.53
1875.989	240.09
1879.196	239.95
1882.402	238.76
1885.608	239.92
1888.814	240.47
1892.019	240.25
1895.224	239.95
1898.429	239.23
1901.634	241.25
1904.838	240.75
1908.042	244.17
1911.246	244.7
1914.449	246.06
1917.652	246.97
1920.855	246.28
1924.058	246.41
1927.26	245.16
1930.462	246.19
1933.664	249.18
1936.865	247.32
1940.066	247.86
1943.267	245.78
1946.467	245.91
1949.668	247.44
1952.868	250.57
1956.067	250.67
1959.267	250.98
1962.466	251.87
1965.665	250.15
1968.863	250.66
1972.061	253.88
1975.259	255.78
1978.457	257.86
1981.654	259.96
1984.852	260.41
1988.048	259.07
1991.245	261.71
1994.441	264.31
1997.637	266
2000.833	271.66
2004.028	275.07
2007.223	275.91
2010.418	278.9
2013.613	283.66
2016.807	286.92
2020.001	289.03
2023.194	293.27
2026.388	299.99
2029.581	306.42
2032.774	309.28
2035.966	314.81
2039.158	315.45
2042.35	322.42
2045.542	324.03
2048.733	328.71
2051.924	333.14
2055.115	338.72
2058.306	340.01
2061.496	342.56
2064.686	343.25
2067.875	349.1
2071.065	350.45
2074.254	348.59
2077.442	353.54
2080.631	354.29
2083.819	358.14
2087.007	357.53
2090.195	361.61
2093.382	365.13
2096.569	363.11
2099.756	368.79
2102.942	369.69
2106.128	372.66
2109.314	381.68
2112.5	379.74
2115.685	388.03
2118.87	388.41
2122.055	397.83
2125.239	400.15
2128.424	403.96
2131.608	406.63
2134.791	412.34
2137.974	413.48
2141.157	415.36
2144.34	415.11
2147.523	422.38
2150.705	419.84
2153.887	422.23
2157.068	421.64
2160.25	418.6
2163.431	421.45
2166.611	426.17
2169.792	433.67
2172.972	440.19
2176.152	442.44
2179.331	448.34
2182.511	453.96
2185.69	460.39
2188.868	471.75
2192.047	471.65
2195.225	485.22
2198.403	497.3
2201.58	505.46
2204.758	516.43
2207.935	524.55
2211.111	535.84
2214.288	541.93
2217.464	544.66
2220.64	552.1
2223.815	559.05
2226.991	582.45
2230.166	584.53
2233.34	594.94
2236.515	605.36
2239.689	602.54
2242.863	606.41
2246.036	624.09
2249.209	617.69
2252.382	627.96
2255.555	646.41
2258.727	648.74
2261.9	654.75
2265.071	660.25
2268.243	669.14
2271.414	677.34
2274.585	692.94
2277.756	701.93
2280.926	704.27
2284.096	722.71
2287.266	738.67
2290.436	744.68
2293.605	762.17
2296.774	783.89
2299.942	808.23
2303.111	813.48
2306.279	832.46
2309.447	845.16
2312.614	867.27
2315.781	891.59
2318.948	933.65
2322.115	918.06
2325.281	971.5
2328.447	949.51
2331.613	987.74
2334.779	977.08
2337.944	1021.17
2341.109	1030.16
2344.274	1059.13
2347.438	1096.54
2350.602	1097.16
2353.766	1128.04
2356.929	1147.56
2360.092	1136.57
2363.255	1221.79
2366.418	1218.09
2369.58	1241.77
2372.742	1319.56
2375.904	1354.9
2379.066	1344.62
2382.227	1316.74
2385.388	1430.3
2388.548	1432.43
2391.709	1450.47
2394.869	1613.77
2398.029	1542.42
2401.188	1589.19
2404.347	1583.32
2407.506	1552.02
2410.665	1593.06
2413.823	1688.52
2416.981	1787.94
2420.139	1730.83
2423.296	1709.54
2426.453	1789.04
2429.61	1724.84
2432.767	1807.66
2435.923	1787.4
2439.079	1948.23
2442.235	1980.65
2445.391	1962.53
2448.546	1948.68
2451.701	1898.19
2454.855	1893.13
2458.009	2018.35
2461.163	2096.05
2464.317	2161.09
2467.471	2218.85
2470.624	2219.48
2473.777	2169.21
2476.929	2107.15
2480.082	2048.36
2483.234	2026.15
2486.385	2124.42
2489.537	2137.11
2492.688	2208.96
2495.839	2145.67
2498.989	2105.47
2502.14	2109.64
2505.29	2133.35
2508.439	2158.83
2511.589	2157.48
2514.738	2355.41
2517.887	2305.08
2521.035	2431.53
2524.183	2449.37
2527.331	2471.37
2530.479	2458.24
2533.627	2476.36
