Data from N_3_DEC_CT_2N_Splice17_13-56-23-624.txt Node
Date: Sat Mar 07 13:56:23 EST 2020
User: sa697716
Spectrometer: NQ5500242
Trigger mode: 0
Integration Time (sec): 1.450000E-1
Scans to average: 20
Nonlinearity correction enabled: false
Boxcar width: 5
Storing dark spectrum: false
XAxis mode: Wavelengths
Number of Pixels in Spectrum: 512
>>>>>Begin Spectral Data<<<<<
187.83	174.67
188.298	189.53
188.766	179.92
189.233	159.6
189.701	154.85
190.169	176.87
190.636	198.66
191.104	299.67
191.571	151.36
192.039	194.62
192.506	208.92
192.974	29.5
193.441	85.21
193.908	96.68
194.375	128.16
194.842	60.83
195.31	70.57
195.777	5.62
196.244	59.02
196.711	55.89
197.177	57.77
197.644	57.39
198.111	57.34
198.578	58.48
199.045	59.31
199.511	58.94
199.978	58.85
200.445	58.94
200.911	59.24
201.378	59.06
201.844	59.31
202.31	59.32
202.777	59.56
203.243	59.71
203.709	58.92
204.176	58.32
204.642	58.14
205.108	58.2
205.574	57.81
206.04	57.18
206.506	56.88
206.972	56.51
207.438	56.12
207.903	55.17
208.369	54.13
208.835	53.5
209.301	52.35
209.766	51.05
210.232	49.85
210.697	48.81
211.163	47.93
211.628	47.16
212.094	45.92
212.559	45.29
213.024	44.52
213.49	43.76
213.955	42.85
214.42	42.24
214.885	41.31
215.35	40
215.815	38.6
216.28	36.65
216.745	34.32
217.21	32.16
217.675	29.81
218.14	28
218.604	26.31
219.069	24.92
219.534	23.81
219.998	22.89
220.463	22.11
220.927	21.3
221.392	20.7
221.856	20.22
222.32	19.78
222.785	19.42
223.249	19.04
223.713	18.72
224.177	18.45
224.642	18.12
225.106	17.81
225.57	17.53
226.034	17.28
226.497	17.02
226.961	16.76
227.425	16.52
227.889	16.26
228.353	16.02
228.816	15.79
229.28	15.55
229.744	15.33
230.207	15.13
230.671	14.92
231.134	14.7
231.597	14.53
232.061	14.35
232.524	14.16
232.987	13.98
233.45	13.84
233.914	13.66
234.377	13.5
234.84	13.34
235.303	13.19
235.766	13.05
236.229	12.92
236.691	12.78
237.154	12.65
237.617	12.53
238.08	12.41
238.542	12.29
239.005	12.18
239.468	12.06
239.93	11.94
240.393	11.82
240.855	11.69
241.317	11.56
241.78	11.44
242.242	11.31
242.704	11.21
243.166	11.09
243.629	10.98
244.091	10.87
244.553	10.77
245.015	10.66
245.477	10.56
245.939	10.45
246.4	10.36
246.862	10.26
247.324	10.17
247.786	10.06
248.247	9.96
248.709	9.85
249.17	9.75
249.632	9.67
250.093	9.59
250.555	9.52
251.016	9.45
251.477	9.36
251.939	9.29
252.4	9.21
252.861	9.13
253.322	9.07
253.783	9.01
254.244	8.95
254.705	8.88
255.166	8.82
255.627	8.75
256.088	8.69
256.549	8.63
257.009	8.57
257.47	8.51
257.931	8.45
258.391	8.39
258.852	8.32
259.312	8.27
259.773	8.21
260.233	8.15
260.694	8.1
261.154	8.02
261.614	7.97
262.074	7.91
262.534	7.86
262.994	7.81
263.455	7.77
263.915	7.72
264.374	7.68
264.834	7.64
265.294	7.6
265.754	7.56
266.214	7.53
266.673	7.5
267.133	7.48
267.593	7.45
268.052	7.42
268.512	7.4
268.971	7.38
269.431	7.35
269.89	7.32
270.349	7.31
270.809	7.29
271.268	7.27
271.727	7.25
272.186	7.22
272.645	7.2
273.104	7.17
273.563	7.15
274.022	7.13
274.481	7.11
274.94	7.09
275.399	7.06
275.857	7.04
276.316	7.03
276.775	7.01
277.233	7
277.692	6.98
278.15	6.96
278.609	6.94
279.067	6.92
279.525	6.9
279.984	6.88
280.442	6.86
280.9	6.85
281.358	6.83
281.816	6.82
282.274	6.8
282.732	6.78
283.19	6.76
283.648	6.74
284.106	6.73
284.564	6.72
285.021	6.71
285.479	6.7
285.937	6.67
286.394	6.66
286.852	6.64
287.309	6.63
287.767	6.6
288.224	6.58
288.682	6.55
289.139	6.52
289.596	6.49
290.053	6.45
290.511	6.41
290.968	6.38
291.425	6.34
291.882	6.32
292.339	6.29
292.796	6.26
293.252	6.24
293.709	6.22
294.166	6.2
294.623	6.18
295.079	6.17
295.536	6.16
295.992	6.14
296.449	6.12
296.905	6.11
297.362	6.09
297.818	6.07
298.274	6.05
298.731	6.03
299.187	6.01
299.643	5.99
300.099	5.97
300.555	5.95
301.011	5.93
301.467	5.92
301.923	5.9
302.379	5.89
302.835	5.88
303.291	5.87
303.746	5.86
304.202	5.85
304.658	5.84
305.113	5.84
305.569	5.84
306.024	5.82
306.479	5.81
306.935	5.8
307.39	5.8
307.845	5.79
308.301	5.79
308.756	5.78
309.211	5.77
309.666	5.78
310.121	5.77
310.576	5.77
311.031	5.77
311.486	5.77
311.94	5.77
312.395	5.76
312.85	5.75
313.305	5.74
313.759	5.74
314.214	5.74
314.668	5.72
315.123	5.71
315.577	5.69
316.032	5.68
316.486	5.66
316.94	5.65
317.394	5.63
317.849	5.62
318.303	5.6
318.757	5.58
319.211	5.56
319.665	5.54
320.119	5.52
320.572	5.51
321.026	5.49
321.48	5.48
321.934	5.46
322.387	5.45
322.841	5.43
323.295	5.42
323.748	5.4
324.202	5.39
324.655	5.38
325.108	5.36
325.562	5.35
326.015	5.34
326.468	5.33
326.921	5.32
327.374	5.3
327.827	5.29
328.28	5.28
328.733	5.28
329.186	5.28
329.639	5.27
330.092	5.27
330.545	5.27
330.997	5.26
331.45	5.26
331.903	5.28
332.355	5.29
332.808	5.29
333.26	5.29
333.713	5.29
334.165	5.29
334.617	5.29
335.069	5.29
335.522	5.29
335.974	5.3
336.426	5.29
336.878	5.28
337.33	5.27
337.782	5.27
338.234	5.27
338.686	5.27
339.137	5.27
339.589	5.25
340.041	5.24
340.493	5.22
340.944	5.2
341.396	5.19
341.847	5.18
342.299	5.17
342.75	5.14
343.201	5.11
343.653	5.09
344.104	5.06
344.555	5.04
345.006	5.02
345.457	5.01
345.908	5
346.359	4.99
346.81	4.97
347.261	4.96
347.712	4.96
348.163	4.95
348.613	4.95
349.064	4.95
349.515	4.95
349.965	4.95
350.416	4.93
350.866	4.92
351.317	4.92
351.767	4.91
352.217	4.91
352.668	4.91
353.118	4.91
353.568	4.9
354.018	4.9
354.468	4.91
354.918	4.91
355.368	4.91
355.818	4.93
356.268	4.92
356.718	4.93
357.168	4.91
357.617	4.91
358.067	4.91
358.517	4.92
358.966	4.92
359.416	4.91
359.865	4.9
360.315	4.9
360.764	4.89
361.213	4.89
361.663	4.88
362.112	4.89
362.561	4.89
363.01	4.88
363.459	4.87
363.908	4.86
364.357	4.87
364.806	4.87
365.255	4.86
365.703	4.87
366.152	4.87
366.601	4.88
367.05	4.88
367.498	4.87
367.947	4.88
368.395	4.87
368.844	4.88
369.292	4.86
369.74	4.86
370.189	4.86
370.637	4.85
371.085	4.84
371.533	4.83
371.981	4.83
372.429	4.82
372.877	4.82
373.325	4.81
373.773	4.8
374.221	4.8
374.669	4.8
375.116	4.78
375.564	4.78
376.012	4.78
376.459	4.78
376.907	4.78
377.354	4.78
377.801	4.78
378.249	4.78
378.696	4.78
379.143	4.78
379.591	4.79
380.038	4.8
380.485	4.81
380.932	4.81
381.379	4.82
381.826	4.82
382.273	4.82
382.72	4.81
383.166	4.82
383.613	4.81
384.06	4.81
384.506	4.8
384.953	4.81
385.4	4.81
385.846	4.82
386.292	4.82
386.739	4.82
387.185	4.82
387.631	4.83
388.078	4.83
388.524	4.83
388.97	4.84
389.416	4.86
389.862	4.87
390.308	4.89
390.754	4.91
391.2	4.92
391.645	4.94
392.091	4.97
392.537	4.99
392.983	5.02
393.428	5.05
393.874	5.06
394.319	5.07
394.765	5.08
395.21	5.07
395.655	5.08
396.101	5.09
396.546	5.1
396.991	5.11
397.436	5.12
397.881	5.14
398.326	5.15
398.771	5.17
399.216	5.19
399.661	5.19
400.106	5.21
400.551	5.23
400.995	5.23
401.44	5.24
401.885	5.25
402.329	5.26
402.774	5.27
403.218	5.29
403.663	5.3
404.107	5.31
404.551	5.34
404.995	5.35
405.44	5.35
405.884	5.36
406.328	5.37
406.772	5.37
407.216	5.38
407.66	5.38
408.104	5.36
408.547	5.36
408.991	5.37
409.435	5.37
409.879	5.38
410.322	5.4
410.766	5.41
411.209	5.44
411.653	5.47
412.096	5.49
412.54	5.51
412.983	5.53
413.426	5.57
413.869	5.59
414.312	5.63
414.756	5.65
415.199	5.65
415.642	5.66
416.085	5.66
416.527	5.65
416.97	5.65
417.413	5.64
417.856	5.64
418.298	5.61
418.741	5.61
419.184	5.59
419.626	5.58
420.069	5.58
420.511	5.58
420.953	5.59
421.396	5.61
421.838	5.61
422.28	5.63
422.722	5.64
423.164	5.66
423.606	5.67
424.048	5.68
424.49	5.69
424.932	5.68
425.374	5.67
425.816	5.64
426.258	5.61
426.699	5.62
427.141	5.61
427.582	5.62
428.024	5.63
428.465	5.64
428.907	5.63
429.348	5.63
429.789	5.64
430.231	5.68
430.672	5.72
431.113	5.76
431.554	5.79
431.995	5.81
432.436	5.82
432.877	5.82
433.318	5.83
433.759	5.88
434.2	5.91
434.64	5.93
435.081	5.94
435.522	5.96
435.962	5.98
436.403	6.01
436.843	6.03
437.284	6.04
437.724	6.05
438.164	6.04
438.604	6.04
439.045	6.03
439.485	6.04
439.925	6.04
440.365	6.04
440.805	6.04
441.245	6.03
441.685	6.05
442.125	6.07
442.564	6.1
443.004	6.11
443.444	6.12
443.883	6.14
444.323	6.15
444.762	6.17
445.202	6.19
445.641	6.2
446.081	6.21
446.52	6.21
446.959	6.24
447.398	6.25
447.837	6.26
448.276	6.27
448.716	6.29
449.154	6.31
449.593	6.33
450.032	6.34
450.471	6.34
450.91	6.33
451.349	6.35
451.787	6.34
452.226	6.32
452.664	6.32
453.103	6.31
453.541	6.3
453.98	6.29
454.418	6.26
454.856	6.26
455.295	6.24
455.733	6.22
456.171	6.2
456.609	6.18
457.047	6.17
457.485	6.15
457.923	6.14
458.361	6.12
458.798	6.13
459.236	6.12
459.674	6.11
460.111	6.11
460.549	6.13
460.987	6.14
461.424	6.15
461.862	6.15
462.299	6.17
462.736	6.17
463.173	6.18
463.611	6.18
464.048	6.2
464.485	6.2
464.922	6.2
465.359	6.2
465.796	6.21
466.233	6.21
466.67	6.22
467.106	6.22
467.543	6.23
467.98	6.22
468.416	6.2
468.853	6.2
469.29	6.2
469.726	6.2
470.162	6.2
470.599	6.18
471.035	6.16
471.471	6.15
471.907	6.13
472.344	6.13
472.78	6.13
473.216	6.12
473.652	6.11
474.088	6.09
474.523	6.08
474.959	6.07
475.395	6.06
475.831	6.06
476.266	6.05
476.702	6.05
477.138	6.03
477.573	6.03
478.008	6.02
478.444	6.01
478.879	6.02
479.314	6.01
479.75	6
480.185	5.98
480.62	5.97
481.055	5.97
481.49	5.96
481.925	5.96
482.36	5.96
482.795	5.94
483.229	5.94
483.664	5.93
484.099	5.92
484.534	5.92
484.968	5.93
485.403	5.92
485.837	5.93
486.271	5.93
486.706	5.93
487.14	5.94
487.574	5.95
488.009	5.96
488.443	5.96
488.877	5.99
489.311	6.01
489.745	6.03
490.179	6.06
490.613	6.09
491.046	6.11
491.48	6.14
491.914	6.16
492.348	6.19
492.781	6.23
493.215	6.28
493.648	6.32
494.082	6.37
494.515	6.4
494.948	6.44
495.382	6.48
495.815	6.54
496.248	6.59
496.681	6.65
497.114	6.72
497.547	6.79
497.98	6.85
498.413	6.92
498.846	7
499.279	7.09
499.711	7.18
500.144	7.28
500.577	7.39
501.009	7.5
501.442	7.61
501.874	7.73
502.306	7.84
502.739	7.98
503.171	8.12
503.603	8.25
504.036	8.41
504.468	8.55
504.9	8.7
505.332	8.87
505.764	9.05
506.196	9.24
506.627	9.44
507.059	9.65
507.491	9.85
507.923	10.07
508.354	10.31
508.786	10.54
509.217	10.79
509.649	11.06
510.08	11.32
510.512	11.6
510.943	11.87
511.374	12.16
511.805	12.47
512.237	12.78
512.668	13.1
513.099	13.41
513.53	13.74
513.961	14.09
514.391	14.44
514.822	14.8
515.253	15.15
515.684	15.51
516.114	15.87
516.545	16.23
516.975	16.62
517.406	16.99
517.836	17.38
518.267	17.77
518.697	18.14
519.127	18.51
519.558	18.89
519.988	19.27
520.418	19.65
520.848	20.03
521.278	20.41
521.708	20.94
522.138	21.3
522.567	21.65
522.997	21.99
523.427	22.34
523.857	22.68
524.286	22.99
524.716	23.32
525.145	23.62
525.575	23.92
526.004	24.21
526.433	24.33
526.863	24.6
527.292	24.86
527.721	25.12
528.15	25.35
528.579	25.58
529.008	25.82
529.437	26.03
529.866	26.24
530.295	26.46
530.724	26.65
531.152	26.83
531.581	27.02
532.01	27.18
532.438	27.35
532.867	27.51
533.295	27.64
533.723	27.77
534.152	27.9
534.58	28.01
535.008	28.09
535.436	28.19
535.865	28.28
536.293	28.34
536.721	28.42
537.149	28.48
537.576	28.53
538.004	28.61
538.432	28.66
538.86	28.71
539.287	28.76
539.715	28.83
540.143	28.87
540.57	28.91
540.998	28.95
541.425	28.98
541.852	29.03
542.28	29.08
542.707	29.13
543.134	29.18
543.561	29.23
543.988	29.28
544.415	29.31
544.842	29.35
545.269	29.4
545.696	29.46
546.123	29.5
546.549	29.56
546.976	29.6
547.403	29.63
547.829	29.66
548.256	29.69
548.682	29.71
549.108	29.75
549.535	29.77
549.961	29.79
550.387	29.78
550.813	29.81
551.24	29.78
551.666	29.8
552.092	29.79
552.518	29.78
552.943	29.75
553.369	29.72
553.795	29.67
554.221	29.64
554.646	29.59
555.072	29.54
555.498	29.45
555.923	29.39
556.349	29.3
556.774	29.21
557.199	29.11
557.625	29.03
558.05	28.94
558.475	28.83
558.9	28.73
559.325	28.63
559.75	28.52
560.175	28.4
560.6	28.27
561.025	28.12
561.449	27.97
561.874	27.8
562.299	27.65
562.723	27.46
563.148	27.26
563.572	27.04
563.997	26.84
564.421	26.61
564.846	26.41
565.27	26.2
565.694	25.99
566.118	25.78
566.542	25.56
566.966	25.33
567.39	25.11
567.814	24.9
568.238	24.7
568.662	24.47
569.086	24.27
569.509	24.05
569.933	23.82
570.357	23.6
570.78	23.37
571.204	23.17
571.627	22.97
572.05	22.78
572.474	22.58
572.897	22.39
573.32	22.2
573.743	22
574.166	21.83
574.589	21.66
575.012	21.5
575.435	21.34
575.858	21.2
576.281	21.04
576.704	20.88
577.126	20.75
577.549	20.6
577.972	20.46
578.394	20.33
578.817	20.2
579.239	20.09
579.661	19.96
580.084	19.84
580.506	19.73
580.928	19.61
581.35	19.49
581.772	19.37
582.194	19.28
582.616	19.18
583.038	19.09
583.46	19
583.882	18.89
584.303	18.79
584.725	18.69
585.147	18.61
585.568	18.54
585.99	18.47
586.411	18.39
586.833	18.31
587.254	18.23
587.675	18.14
588.096	18.05
588.518	17.98
588.939	17.92
589.36	17.86
589.781	17.79
590.202	17.73
590.623	17.66
591.043	17.57
591.464	17.52
591.885	17.46
592.305	17.41
592.726	17.37
593.147	17.32
593.567	17.27
593.987	17.23
594.408	17.18
594.828	17.11
595.248	17.07
595.669	17.05
596.089	16.99
596.509	16.95
596.929	16.9
597.349	16.85
597.769	16.8
598.189	16.74
598.608	16.7
599.028	16.65
599.448	16.6
599.867	16.55
600.287	16.5
600.706	16.46
601.126	16.41
601.545	16.35
601.965	16.3
602.384	16.25
602.803	16.17
603.222	16.09
603.641	16.02
604.061	15.95
604.48	15.87
604.898	15.78
605.317	15.7
605.736	15.61
606.155	15.53
606.574	15.44
606.992	15.35
607.411	15.27
607.829	15.16
608.248	15.05
608.666	14.95
609.085	14.85
609.503	14.76
609.921	14.67
610.339	14.58
610.758	14.47
611.176	14.37
611.594	14.27
612.012	14.17
612.43	14.1
612.847	14.01
613.265	13.92
613.683	13.83
614.101	13.75
614.518	13.65
614.936	13.55
615.353	13.46
615.771	13.38
616.188	13.31
616.606	13.24
617.023	13.17
617.44	13.11
617.857	13.05
618.274	12.97
618.691	12.9
619.108	12.84
619.525	12.8
619.942	12.76
620.359	12.71
620.776	12.67
621.192	12.62
621.609	12.57
622.026	12.52
622.442	12.49
622.859	12.46
623.275	12.44
623.691	12.41
624.108	12.39
624.524	12.37
624.94	12.34
625.356	12.33
625.772	12.32
626.188	12.31
626.604	12.3
627.02	12.28
627.436	12.26
627.852	12.26
628.268	12.25
628.683	12.24
629.099	12.22
629.514	12.2
629.93	12.17
630.345	12.15
630.761	12.09
631.176	12.06
631.591	12.02
632.007	11.98
632.422	11.93
632.837	11.86
633.252	11.79
633.667	11.71
634.082	11.63
634.497	11.54
634.911	11.45
635.326	11.37
635.741	11.27
636.155	11.17
636.57	11.05
636.984	10.94
637.399	10.82
637.813	10.7
638.228	10.58
638.642	10.46
639.056	10.34
639.47	10.23
639.884	10.11
640.298	9.98
640.712	9.85
641.126	9.73
641.54	9.61
641.954	9.5
642.368	9.39
642.781	9.27
643.195	9.16
643.609	9.05
644.022	8.93
644.436	8.83
644.849	8.72
645.262	8.64
645.676	8.54
646.089	8.44
646.502	8.36
646.915	8.29
647.328	8.23
647.741	8.16
648.154	8.1
648.567	8.05
648.98	8
649.393	7.96
649.805	7.92
650.218	7.88
650.631	7.85
651.043	7.81
651.456	7.77
651.868	7.73
652.28	7.69
652.693	7.66
653.105	7.62
653.517	7.58
653.929	7.55
654.341	7.49
654.753	7.44
655.165	7.39
655.577	7.35
655.989	7.29
656.401	7.23
656.813	7.18
657.224	7.12
657.636	7.04
658.047	6.99
658.459	6.92
658.87	6.85
659.282	6.78
659.693	6.71
660.104	6.64
660.515	6.58
660.926	6.52
661.338	6.45
661.749	6.39
662.159	6.35
662.57	6.3
662.981	6.26
663.392	6.21
663.803	6.18
664.213	6.14
664.624	6.11
665.035	6.08
665.445	6.06
665.855	6.04
666.266	6.03
666.676	6.02
667.086	5.99
667.497	5.98
667.907	5.98
668.317	5.97
668.727	5.97
669.137	5.98
669.547	5.98
669.956	5.98
670.366	5.98
670.776	5.98
671.186	5.99
671.595	6
672.005	6
672.414	6.01
672.824	6.02
673.233	6.03
673.642	6.05
674.052	6.07
674.461	6.08
674.87	6.11
675.279	6.15
675.688	6.18
676.097	6.23
676.506	6.26
676.915	6.3
677.323	6.34
677.732	6.39
678.141	6.43
678.549	6.47
678.958	6.52
679.366	6.58
679.775	6.62
680.183	6.68
680.592	6.74
681	6.8
681.408	6.88
681.816	6.96
682.224	7.04
682.632	7.14
683.04	7.24
683.448	7.36
683.856	7.47
684.264	7.61
684.671	7.77
685.079	7.94
685.487	8.15
685.894	8.37
686.302	8.62
686.709	8.9
687.116	9.21
687.524	9.56
687.931	9.93
688.338	10.36
688.745	10.81
689.152	11.27
689.559	11.78
689.966	12.32
690.373	12.89
690.78	13.49
691.187	14.13
691.593	14.79
692	15.46
692.407	16.13
692.813	16.85
693.22	17.58
693.626	18.34
694.032	19.12
694.439	19.91
694.845	20.71
695.251	21.51
695.657	22.31
696.063	23.12
696.469	23.96
696.875	24.82
697.281	25.66
697.687	26.49
698.093	27.32
698.498	28.12
698.904	28.94
699.31	29.75
699.715	30.56
700.12	31.35
700.526	32.14
700.931	32.91
701.337	33.66
701.742	34.4
702.147	35.13
702.552	35.86
702.957	36.57
703.362	37.27
703.767	37.96
704.172	38.62
704.577	39.29
704.981	39.95
705.386	40.6
705.791	41.23
706.195	41.89
706.6	42.55
707.004	43.17
707.408	43.78
707.813	44.4
708.217	45
708.621	45.62
709.025	46.2
709.43	46.76
709.834	47.33
710.237	47.91
710.641	48.45
711.045	48.97
711.449	49.52
711.853	50.06
712.256	50.54
712.66	51.06
713.064	51.56
713.467	52.05
713.87	52.55
714.274	53.02
714.677	53.48
715.08	53.91
715.484	54.36
715.887	54.81
716.29	55.21
716.693	55.66
717.096	56.07
717.499	56.46
717.901	56.88
718.304	57.28
718.707	57.69
719.109	58.09
719.512	58.49
719.915	58.85
720.317	59.18
720.719	59.52
721.122	59.84
721.524	60.17
721.926	60.52
722.328	60.83
722.731	61.1
723.133	61.36
723.535	61.62
723.937	61.91
724.338	62.18
724.74	62.44
725.142	62.81
725.544	63.06
725.945	63.32
726.347	63.51
726.748	63.71
727.15	63.93
727.551	64.17
727.952	64.36
728.354	64.53
728.755	64.72
729.156	64.9
729.557	64.97
729.958	65.13
730.359	65.28
730.76	65.47
731.161	65.63
731.562	65.79
731.962	65.89
732.363	66.06
732.763	66.21
733.164	66.33
733.564	66.48
733.965	66.6
734.365	66.75
734.766	66.87
735.166	66.95
735.566	67.05
735.966	67.15
736.366	67.28
736.766	67.36
737.166	67.44
737.566	67.52
737.966	67.58
738.365	67.66
738.765	67.72
739.165	67.81
739.564	67.91
739.964	68
740.363	68.03
740.763	68.1
741.162	68.16
741.561	68.21
741.96	68.24
742.36	68.31
742.759	68.38
743.158	68.42
743.557	68.44
743.955	68.5
744.354	68.52
744.753	68.61
745.152	68.66
745.55	68.69
745.949	68.76
746.348	68.84
746.746	68.87
747.144	68.94
747.543	68.97
747.941	69.02
748.339	69.02
748.737	69.05
749.136	69.07
749.534	69.05
749.932	69.06
750.33	69.08
750.727	69.09
751.125	69.1
751.523	69.05
751.921	69.09
752.318	69.11
752.716	69.13
753.113	69.13
753.511	69.15
753.908	69.2
754.305	69.21
754.703	69.2
755.1	69.19
755.497	69.18
755.894	69.19
756.291	69.19
756.688	69.15
757.085	69.14
757.482	69.16
757.878	69.15
758.275	69.14
758.672	69.14
759.068	69.15
759.465	69.18
759.861	69.21
760.258	69.24
760.654	69.26
761.05	69.29
761.447	69.32
761.843	69.29
762.239	69.31
762.635	69.3
763.031	69.3
763.427	69.25
763.822	69.25
764.218	69.26
764.614	69.23
765.01	69.18
765.405	69.16
765.801	69.14
766.196	69.17
766.592	69.12
766.987	69.13
767.382	69.15
767.778	69.17
768.173	69.15
768.568	69.1
768.963	69.09
769.358	69.12
769.753	69.13
770.148	69.16
770.542	69.18
770.937	69.21
771.332	69.23
771.726	69.23
772.121	69.23
772.515	69.24
772.91	69.26
773.304	69.29
773.699	69.27
774.093	69.24
774.487	69.21
774.881	69.21
775.275	69.21
775.669	69.18
776.063	69.15
776.457	69.15
776.851	69.14
777.245	69.1
777.638	69.08
778.032	69.11
778.425	69.16
778.819	69.18
779.212	69.17
779.606	69.19
779.999	69.18
780.392	69.22
780.786	69.25
781.179	69.28
781.572	69.35
781.965	69.36
782.358	69.37
782.751	69.35
783.143	69.37
783.536	69.33
783.929	69.31
784.322	69.33
784.714	69.32
785.107	69.33
785.499	69.33
785.891	69.34
786.284	69.37
786.676	69.37
787.068	69.37
787.46	69.36
787.852	69.41
788.245	69.43
788.636	69.41
789.028	69.42
789.42	69.4
789.812	69.44
790.204	69.42
790.595	69.4
790.987	69.4
791.378	69.43
791.77	69.45
792.161	69.43
792.553	69.42
792.944	69.44
793.335	69.44
793.726	69.43
794.117	69.39
794.508	69.34
794.899	69.33
795.29	69.34
795.681	69.29
796.072	69.27
796.463	69.32
796.853	69.29
797.244	69.33
797.634	69.31
798.025	69.34
798.415	69.34
798.806	69.38
799.196	69.42
799.586	69.41
799.976	69.46
800.366	69.45
800.756	69.43
801.146	69.47
801.536	69.45
801.926	69.45
802.316	69.47
802.706	69.49
803.095	69.52
803.485	69.5
803.874	69.51
804.264	69.5
804.653	69.53
805.043	69.51
805.432	69.53
805.821	69.56
806.21	69.63
806.599	69.65
806.988	69.68
807.377	69.69
807.766	69.72
808.155	69.73
808.544	69.76
808.933	69.74
809.321	69.76
809.71	69.74
810.098	69.74
810.487	69.69
810.875	69.66
811.264	69.62
811.652	69.6
812.04	69.59
812.428	69.61
812.816	69.58
813.204	69.6
813.592	69.58
813.98	69.59
814.368	69.57
814.756	69.57
815.144	69.57
815.531	69.59
815.919	69.61
816.306	69.59
816.694	69.58
817.081	69.58
817.469	69.6
817.856	69.62
818.243	69.61
818.63	69.6
819.017	69.59
819.404	69.57
819.791	69.6
820.178	69.6
820.565	69.58
820.952	69.57
821.339	69.58
821.725	69.57
822.112	69.57
822.498	69.59
822.885	69.6
823.271	69.62
823.657	69.62
824.044	69.6
824.43	69.59
824.816	69.62
825.202	69.6
825.588	69.61
825.974	69.59
826.36	69.58
826.746	69.57
827.132	69.56
827.517	69.57
827.903	69.6
828.289	69.61
828.674	69.6
829.06	69.57
829.445	69.58
829.83	69.56
830.216	69.57
830.601	69.59
830.986	69.6
831.371	69.57
831.756	69.59
832.141	69.55
832.526	69.53
832.911	69.52
833.295	69.51
833.68	69.52
834.065	69.48
834.449	69.45
834.834	69.41
835.218	69.38
835.603	69.36
835.987	69.31
836.371	69.27
836.755	69.25
837.139	69.2
837.524	69.19
837.908	69.2
838.291	69.22
838.675	69.22
839.059	69.23
839.443	69.21
839.827	69.21
840.21	69.2
840.594	69.24
840.977	69.23
841.361	69.26
841.744	69.23
842.127	69.18
842.511	69.14
842.894	69.11
843.277	69.12
843.66	69.09
844.043	69.12
844.426	69.11
844.809	69.07
845.191	69.05
845.574	69.03
845.957	69.05
846.339	69.05
846.722	69.08
847.104	69.1
847.487	69.08
847.869	69.11
848.252	69.08
848.634	69.08
849.016	69.12
849.398	69.13
849.78	69.13
850.162	69.13
850.544	69.12
850.926	69.11
851.307	69.12
851.689	69.12
852.071	69.11
852.452	69.1
852.834	69.12
853.215	69.1
853.597	69.11
853.978	69.11
854.359	69.13
854.741	69.15
855.122	69.13
855.503	69.11
855.884	69.04
856.265	69.03
856.646	69.01
857.026	69.02
857.407	69.02
857.788	69.01
858.169	69.02
858.549	69.01
858.93	69
859.31	69.01
859.69	69.05
860.071	69.12
860.451	69.13
860.831	69.16
861.211	69.13
861.591	69.12
861.971	69.1
862.351	69.13
862.731	69.13
863.111	69.14
863.491	69.12
863.87	69.11
864.25	69.06
864.629	69.06
865.009	69.03
865.388	69.03
865.768	69.03
866.147	69.04
866.526	69.01
866.905	69
867.284	68.99
867.663	68.98
868.042	68.98
868.421	68.98
868.8	68.99
869.179	69.01
869.558	69.01
869.936	69.01
870.315	69.02
870.693	69.02
871.072	69.02
871.45	69.02
871.828	69.04
872.207	69.06
872.585	69.05
872.963	69.02
873.341	69.02
873.719	69.03
874.097	68.99
874.475	68.98
874.853	68.95
875.23	68.98
875.608	68.97
875.986	68.97
876.363	68.94
876.741	68.96
877.118	68.97
877.495	68.98
877.873	68.99
878.25	69.03
878.627	69.01
879.004	69.05
879.381	69.01
879.758	68.97
880.135	68.97
880.512	68.98
880.889	68.97
881.265	68.97
881.642	68.96
882.019	68.93
882.395	68.9
882.772	68.92
883.148	68.88
883.524	68.89
883.901	68.91
884.277	68.87
884.653	68.83
885.029	68.8
885.405	68.79
885.781	68.81
886.157	68.81
886.532	68.82
886.908	68.8
887.284	68.81
887.659	68.77
888.035	68.74
888.411	68.74
888.786	68.76
889.161	68.78
889.537	68.76
889.912	68.71
890.287	68.71
890.662	68.67
891.037	68.67
891.412	68.65
891.787	68.62
892.162	68.63
892.536	68.62
892.911	68.59
893.286	68.58
893.66	68.56
894.035	68.56
894.409	68.53
894.784	68.54
895.158	68.52
895.532	68.52
895.906	68.54
896.281	68.51
896.655	68.51
897.029	68.51
897.402	68.48
897.776	68.5
898.15	68.51
898.524	68.52
898.898	68.51
899.271	68.51
899.645	68.53
900.018	68.55
900.392	68.57
900.765	68.61
901.138	68.59
901.511	68.59
901.884	68.59
902.258	68.6
902.631	68.62
903.003	68.64
903.376	68.64
903.749	68.62
904.122	68.63
904.495	68.63
904.867	68.61
905.24	68.66
905.612	68.69
905.985	68.71
906.357	68.71
906.729	68.71
907.102	68.7
907.474	68.7
907.846	68.73
908.218	68.71
908.59	68.73
908.962	68.75
909.334	68.79
909.705	68.8
910.077	68.79
910.449	68.8
910.82	68.81
911.192	68.81
911.563	68.81
911.935	68.8
912.306	68.85
912.677	68.87
913.048	68.9
913.419	68.82
913.79	68.82
914.161	68.83
914.532	68.82
914.903	68.85
915.274	68.87
915.645	68.9
916.015	68.93
916.386	68.91
916.756	68.91
917.127	68.9
917.497	68.93
917.868	68.95
918.238	68.97
918.608	68.99
918.978	69
919.348	69.03
919.718	69
920.088	69
920.458	68.99
920.828	68.94
921.198	68.89
921.567	68.88
921.937	68.87
922.306	68.84
922.676	68.83
923.045	68.8
923.415	68.76
923.784	68.78
924.153	68.8
924.522	68.82
924.891	68.84
925.26	68.86
925.629	68.88
925.998	68.88
926.367	68.9
926.736	68.87
927.104	68.89
927.473	68.89
927.842	68.86
928.21	68.84
928.578	68.8
928.947	68.86
929.315	68.85
929.683	68.83
930.051	68.82
930.42	68.82
930.788	68.79
931.156	68.77
931.523	68.76
931.891	68.78
932.259	68.76
932.627	68.77
932.994	68.67
933.362	68.64
933.729	68.63
934.097	68.59
934.464	68.59
934.831	68.61
935.199	68.6
935.566	68.58
935.933	68.48
936.3	68.43
936.667	68.42
937.034	68.45
937.401	68.49
937.767	68.44
938.134	68.44
938.501	68.43
938.867	68.45
939.234	68.42
939.6	68.4
939.967	68.49
940.333	68.52
940.699	68.55
941.065	68.49
941.431	68.41
941.798	68.38
942.163	68.34
942.529	68.29
942.895	68.27
943.261	68.25
943.627	68.26
943.992	68.2
944.358	68.18
944.723	68.14
945.089	68.07
945.454	68.14
945.82	68.23
946.185	68.24
946.55	68.19
946.915	68.16
947.28	68.16
947.645	68.18
948.01	68.22
948.375	68.18
948.74	68.15
949.104	68.22
949.469	68.14
949.834	68.01
950.198	68.01
950.562	67.98
950.927	67.9
951.291	67.83
951.655	67.71
952.02	67.68
952.384	67.66
952.748	67.61
953.112	67.6
953.476	67.57
953.839	67.53
954.203	67.55
954.567	67.51
954.931	67.5
955.294	67.46
955.658	67.53
956.021	67.5
956.385	67.43
956.748	67.37
957.111	67.29
957.474	67.24
957.837	67.25
958.2	67.21
958.563	67.28
958.926	67.29
959.289	67.4
959.652	67.36
960.015	67.34
960.377	67.39
960.74	67.47
961.102	67.5
961.465	67.57
961.827	67.68
962.189	67.67
962.552	67.65
962.914	67.66
963.276	67.7
963.638	67.7
964	67.69
964.362	67.69
964.724	67.63
965.085	67.61
965.447	67.58
965.809	67.55
966.17	67.55
966.532	67.56
966.893	67.57
967.255	67.51
967.616	67.5
967.977	67.51
968.338	67.54
968.699	67.57
969.061	67.59
969.421	67.62
969.782	67.62
970.143	67.61
970.504	67.66
970.865	67.71
971.225	67.62
971.586	67.64
971.946	67.68
972.307	67.66
972.667	67.69
973.027	67.74
973.388	67.74
973.748	67.75
974.108	67.86
974.468	67.76
974.828	67.75
975.188	67.83
975.548	67.86
975.907	67.96
976.267	68.02
976.627	68.05
976.986	68
977.346	68.01
977.705	68
978.064	67.95
978.424	68.06
978.783	68.01
979.142	68
979.501	67.98
979.86	67.9
980.219	67.89
980.578	67.9
980.937	67.96
981.296	67.9
981.654	67.9
982.013	67.91
982.371	67.86
982.73	67.88
983.088	67.8
983.447	67.73
983.805	67.73
984.163	67.68
984.521	67.62
984.879	67.51
985.237	67.53
985.595	67.63
985.953	67.55
986.311	67.51
986.669	67.5
987.026	67.52
987.384	67.63
987.741	67.56
988.099	67.6
988.456	67.59
988.814	67.67
989.171	67.66
989.528	67.57
989.885	67.58
990.242	67.57
990.599	67.57
990.956	67.65
991.313	67.64
991.67	67.62
992.027	67.79
992.383	67.82
992.74	67.93
993.096	67.96
993.453	67.95
993.809	67.93
994.165	68.03
994.522	68.17
994.878	68.28
995.234	68.27
995.59	68.29
995.946	68.18
996.302	68.22
996.658	68.27
997.013	68.22
997.369	68.21
997.725	68.35
998.08	68.4
998.436	68.35
998.791	68.18
999.147	68.2
999.502	68.23
999.857	68.16
1000.212	68.2
1000.567	68.15
1000.922	68.23
1001.277	68.25
1001.632	68.16
1001.987	68.05
1002.342	67.89
1002.696	67.94
1003.051	68.07
1003.406	68.16
1003.76	68.2
1004.114	68.07
1004.469	68.06
1004.823	68.24
1005.177	68.19
1005.531	68.29
1005.885	68.33
1006.239	68.47
1006.593	68.66
1006.947	68.57
1007.301	68.44
1007.655	68.34
1008.008	68.43
1008.362	68.51
1008.715	68.41
1009.069	68.49
1009.422	68.33
1009.776	68.39
1010.129	68.38
1010.482	68.16
1010.835	68.36
1011.188	68.49
1011.541	68.69
1011.894	68.75
1012.247	68.72
1012.6	68.65
1012.952	68.71
1013.305	68.9
1013.657	68.9
1014.01	68.94
1014.362	68.91
1014.715	68.85
1015.067	69.02
1015.419	69.16
1015.771	69.08
1016.123	68.99
1016.475	69.18
1016.827	69.31
1017.179	69.39
1017.531	69.47
1017.883	69.37
1018.234	69.7
1018.586	69.59
1018.938	69.76
1019.289	69.39
1019.64	69.42
1019.992	69.51
1020.343	69.28
1020.694	69.24
1021.045	69.16
1021.396	69.07
1021.747	69.21
1022.098	69.02
1022.449	68.88
1022.8	68.73
1023.151	68.88
1023.501	69.03
1023.852	69.16
1024.202	69.22
1024.553	69.06
1024.903	69.08
1025.253	69.3
1025.604	69.25
1025.954	68.99
1026.304	69.1
1026.654	68.91
1027.004	68.98
1027.354	68.64
1027.703	68.45
1028.053	68.63
1028.403	68.88
1028.753	68.6
1029.102	68.41
1029.452	68.42
1029.801	68.58
1030.15	68.62
1030.499	68.57
897.758	1633.13
901.051	1640.87
904.343	1635.89
907.636	1665.96
910.928	1620.84
914.22	1616.57
917.511	1593.67
920.803	1524.45
924.094	1518.54
927.384	1485.55
930.675	1420.27
933.965	1411.71
937.255	1330.98
940.544	1276.59
943.834	1215.05
947.123	1205.22
950.411	1136.15
953.7	1112
956.988	1053.81
960.276	1009.45
963.563	994.13
966.851	961.2
970.138	953.2
973.424	922.48
976.711	928.25
979.997	881.33
983.283	878.41
986.568	860.67
989.853	833.19
993.138	820.43
996.423	788.06
999.708	767.22
1002.992	759.73
1006.275	725.51
1009.559	717.59
1012.842	692.82
1016.125	676.2
1019.408	663.15
1022.69	654.13
1025.972	642.95
1029.254	626.33
1032.536	617.13
1035.817	603.71
1039.098	596.83
1042.379	583.65
1045.659	578.49
1048.939	565.05
1052.219	552.14
1055.498	543.77
1058.778	532.45
1062.057	519.02
1065.335	513.92
1068.614	507.41
1071.892	503.04
1075.17	485.74
1078.447	478.03
1081.724	474.78
1085.001	470.11
1088.278	461.99
1091.554	453.63
1094.83	453.38
1098.106	451.74
1101.382	446.88
1104.657	444.86
1107.932	437.26
1111.206	441.01
1114.481	429.94
1117.755	425.58
1121.029	422.87
1124.302	423.25
1127.575	414.39
1130.848	409.42
1134.121	405.37
1137.393	404.68
1140.665	395.59
1143.937	394.07
1147.208	389.4
1150.48	389.71
1153.75	384.7
1157.021	378.87
1160.291	378.7
1163.561	375.05
1166.831	375.2
1170.101	372.81
1173.37	370.09
1176.639	371.37
1179.907	367.09
1183.176	364.41
1186.444	363.66
1189.711	363.7
1192.979	362.75
1196.246	359.21
1199.513	361.36
1202.78	358.83
1206.046	358.23
1209.312	355.82
1212.578	356.35
1215.843	359.34
1219.108	356.8
1222.373	363.87
1225.638	366.5
1228.902	372.44
1232.166	372.05
1235.43	374.98
1238.693	380.08
1241.956	381.42
1245.219	387.46
1248.482	387.02
1251.744	386.99
1255.006	388.4
1258.268	378.77
1261.529	374.98
1264.79	371.52
1268.051	370.91
1271.312	366.28
1274.572	360.8
1277.832	358.83
1281.092	352.88
1284.351	350.56
1287.61	350.43
1290.869	345.33
1294.128	343.68
1297.386	343.14
1300.644	339.28
1303.902	340.66
1307.159	338.04
1310.416	339.64
1313.673	338.53
1316.93	341.87
1320.186	342.04
1323.442	343.17
1326.697	349.17
1329.953	349.8
1333.208	351.79
1336.463	355.89
1339.717	356.27
1342.972	360.59
1346.226	363.29
1349.479	363.7
1352.733	365.95
1355.986	366.9
1359.238	366.6
1362.491	369.45
1365.743	372.69
1368.995	372.08
1372.247	370.64
1375.498	370.6
1378.749	374.57
1382	369.47
1385.251	371.81
1388.501	369.19
1391.751	371.83
1395	369.33
1398.25	366.09
1401.499	364.84
1404.748	364.84
1407.996	361.96
1411.244	359.96
1414.492	358.21
1417.74	355.44
1420.987	349.08
1424.234	349.32
1427.481	343.29
1430.728	344.01
1433.974	339.72
1437.22	336.47
1440.465	335.32
1443.711	333.12
1446.956	331.72
1450.201	326.46
1453.445	323.77
1456.689	323.21
1459.933	316.99
1463.177	316.05
1466.42	310.36
1469.663	307.88
1472.906	306.57
1476.148	298.59
1479.391	295.16
1482.633	292.39
1485.874	289.01
1489.115	287.59
1492.356	283.25
1495.597	283.09
1498.838	278.74
1502.078	277.68
1505.318	275.96
1508.557	275.73
1511.797	276.45
1515.036	275.02
1518.274	274.02
1521.513	271.16
1524.751	270.53
1527.989	270.69
1531.227	269.57
1534.464	270.93
1537.701	268.6
1540.938	267.69
1544.174	264.04
1547.41	263.47
1550.646	262.08
1553.882	262.36
1557.117	259.61
1560.352	257.91
1563.587	257.15
1566.821	255.5
1570.055	252.29
1573.289	251.11
1576.523	250.96
1579.756	249.73
1582.989	248.49
1586.222	248.02
1589.454	246.31
1592.686	248.33
1595.918	247.63
1599.15	246.75
1602.381	246.83
1605.612	246.7
1608.843	247.81
1612.073	247.34
1615.303	248.73
1618.533	249.23
1621.762	248.33
1624.992	248.64
1628.221	248.17
1631.449	247.84
1634.678	247.51
1637.906	248.95
1641.134	248.7
1644.361	247.79
1647.588	249.41
1650.815	247.9
1654.042	245.96
1657.269	248.33
1660.495	248.4
1663.72	246.41
1666.946	247.3
1670.171	247.61
1673.396	246.82
1676.621	246.77
1679.845	247.42
1683.069	246.22
1686.293	248.2
1689.517	249.93
1692.74	249.32
1695.963	250.57
1699.185	254.1
1702.408	253.91
1705.63	254.87
1708.852	255.62
1712.073	256.88
1715.294	256.89
1718.515	258.58
1721.736	258.14
1724.956	258.33
1728.176	258.3
1731.396	260.47
1734.616	258.99
1737.835	260.39
1741.054	258.26
1744.272	259.09
1747.491	261.05
1750.709	262.32
1753.927	262.11
1757.144	260.76
1760.361	262.86
1763.578	262.57
1766.795	261.75
1770.011	263.24
1773.227	263.22
1776.443	266.93
1779.658	268.37
1782.874	266.85
1786.089	267.67
1789.303	268.33
1792.518	271.79
1795.732	270.98
1798.945	274.8
1802.159	274.05
1805.372	275.65
1808.585	280.37
1811.797	281.31
1815.01	280.86
1818.222	283.75
1821.434	284.95
1824.645	286.59
1827.856	290.73
1831.067	293.76
1834.278	290.88
1837.488	293.77
1840.698	296
1843.908	292.73
1847.117	294.46
1850.326	296.51
1853.535	294.96
1856.744	299.58
1859.952	298.88
1863.16	297.79
1866.368	294.75
1869.575	300.31
1872.782	294.65
1875.989	291.96
1879.196	291.02
1882.402	288.9
1885.608	289.25
1888.814	290.17
1892.019	288.02
1895.224	286.56
1898.429	284.44
1901.634	286
1904.838	283.86
1908.042	287.63
1911.246	289.61
1914.449	290.7
1917.652	289.42
1920.855	289.67
1924.058	289.33
1927.26	287.65
1930.462	289.53
1933.664	293.17
1936.865	289.97
1940.066	291.16
1943.267	288.68
1946.467	287.99
1949.668	290.22
1952.868	294.45
1956.067	293.92
1959.267	294.23
1962.466	295.46
1965.665	293.59
1968.863	294.48
1972.061	299.13
1975.259	301.81
1978.457	304.34
1981.654	306.22
1984.852	306.81
1988.048	305.91
1991.245	309.05
1994.441	313.23
1997.637	314.93
2000.833	321.65
2004.028	325.38
2007.223	327.07
2010.418	330.63
2013.613	336
2016.807	340.55
2020.001	343.32
2023.194	348.4
2026.388	356.24
2029.581	362.69
2032.774	367.04
2035.966	373.43
2039.158	374.11
2042.35	382.29
2045.542	383.26
2048.733	389.38
2051.924	395.07
2055.115	400.99
2058.306	401.64
2061.496	406.03
2064.686	406.77
2067.875	414.31
2071.065	415.05
2074.254	413.21
2077.442	417.55
2080.631	419.54
2083.819	424.11
2087.007	423.14
2090.195	428.49
2093.382	432.08
2096.569	428.25
2099.756	436.41
2102.942	436.32
2106.128	441.53
2109.314	451.94
2112.5	450.23
2115.685	459.79
2118.87	460.28
2122.055	470.26
2125.239	473.61
2128.424	480.26
2131.608	483.87
2134.791	488.86
2137.974	491.07
2141.157	492.4
2144.34	492.58
2147.523	499.76
2150.705	496.63
2153.887	499.95
2157.068	500.63
2160.25	496.75
2163.431	497.42
2166.611	503.54
2169.792	513.68
2172.972	518.21
2176.152	521.77
2179.331	529.69
2182.511	538.49
2185.69	544.63
2188.868	556.91
2192.047	558.45
2195.225	573.13
2198.403	588.73
2201.58	599.14
2204.758	609.76
2207.935	623.07
2211.111	634.51
2214.288	640.03
2217.464	643.35
2220.64	651.26
2223.815	660.5
2226.991	686.53
2230.166	689.11
2233.34	700.11
2236.515	710.51
2239.689	710.86
2242.863	715.77
2246.036	735.79
2249.209	727.48
2252.382	739.54
2255.555	762.26
2258.727	763.93
2261.9	768.43
2265.071	775.02
2268.243	787.69
2271.414	795.98
2274.585	814.37
2277.756	820.16
2280.926	823.67
2284.096	844.63
2287.266	862.14
2290.436	870.52
2293.605	891.37
2296.774	917.54
2299.942	946.26
2303.111	952.08
2306.279	976.16
2309.447	987.81
2312.614	1012.51
2315.781	1043.92
2318.948	1093.19
2322.115	1075.41
2325.281	1132.27
2328.447	1105.97
2331.613	1153.62
2334.779	1140.58
2337.944	1187.48
2341.109	1197.52
2344.274	1228.81
2347.438	1278.33
2350.602	1275.02
2353.766	1311.97
2356.929	1332.99
2360.092	1322.47
2363.255	1424.44
2366.418	1414.04
2369.58	1444.52
2372.742	1535.86
2375.904	1574
2379.066	1565.23
2382.227	1528.45
2385.388	1658.91
2388.548	1661.31
2391.709	1683.86
2394.869	1875.47
2398.029	1785.91
2401.188	1840.85
2404.347	1827.96
2407.506	1798.5
2410.665	1852.18
2413.823	1968.33
2416.981	2085.91
2420.139	2014.54
2423.296	1994.96
2426.453	2083.96
2429.61	2005.21
2432.767	2105
2435.923	2083.21
2439.079	2274.92
2442.235	2297.25
2445.391	2272.12
2448.546	2252.96
2451.701	2189.79
2454.855	2190.98
2458.009	2318.02
2461.163	2409.34
2464.317	2499.63
2467.471	2558.22
2470.624	2556.67
2473.777	2497.84
2476.929	2433.27
2480.082	2367.16
2483.234	2336.53
2486.385	2451.64
2489.537	2462.15
2492.688	2564.54
2495.839	2478.23
2498.989	2426.03
2502.14	2442.59
2505.29	2474.59
2508.439	2504.03
2511.589	2502.76
2514.738	2724.45
2517.887	2669.31
2521.035	2820.33
2524.183	2842.71
2527.331	2862.21
2530.479	2865.96
2533.627	2880.92
