Data from N_3_DIV_WI_4N_Splice17_13-52-57-968.txt Node
Date: Sat Mar 07 13:52:57 EST 2020
User: sa697716
Spectrometer: NQ5500242
Trigger mode: 0
Integration Time (sec): 1.450000E-1
Scans to average: 20
Nonlinearity correction enabled: false
Boxcar width: 5
Storing dark spectrum: false
XAxis mode: Wavelengths
Number of Pixels in Spectrum: 512
>>>>>Begin Spectral Data<<<<<
187.83	232.13
188.298	250.7
188.766	240.41
189.233	202.16
189.701	207.8
190.169	243.82
190.636	245.64
191.104	332.01
191.571	42.39
192.039	-67.41
192.506	-381.4
192.974	105.02
193.441	152.68
193.908	108.02
194.375	84.54
194.842	42.25
195.31	117.32
195.777	66.41
196.244	50.39
196.711	39.2
197.177	39.82
197.644	38.3
198.111	37.72
198.578	38.54
199.045	38.85
199.511	39.63
199.978	39.47
200.445	39.26
200.911	39.57
201.378	39.14
201.844	39.34
202.31	39.02
202.777	39.12
203.243	39.09
203.709	38.47
204.176	38.01
204.642	37.37
205.108	37.36
205.574	37.05
206.04	36.35
206.506	36.25
206.972	35.88
207.438	35.42
207.903	34.77
208.369	34.28
208.835	33.78
209.301	33.11
209.766	31.76
210.232	30.81
210.697	30.04
211.163	29.28
211.628	28.49
212.094	27.56
212.559	26.87
213.024	26.25
213.49	25.68
213.955	25.08
214.42	24.53
214.885	24.11
215.35	23.21
215.815	22.21
216.28	20.63
216.745	18.87
217.21	17.29
217.675	15.82
218.14	14.57
218.604	13.35
219.069	12.35
219.534	11.52
219.998	10.79
220.463	10.24
220.927	9.68
221.392	9.35
221.856	9.05
222.32	8.75
222.785	8.5
223.249	8.24
223.713	8.04
224.177	7.89
224.642	7.71
225.106	7.53
225.57	7.35
226.034	7.22
226.497	7.08
226.961	6.95
227.425	6.84
227.889	6.73
228.353	6.62
228.816	6.51
229.28	6.41
229.744	6.33
230.207	6.25
230.671	6.18
231.134	6.09
231.597	6.02
232.061	5.94
232.524	5.86
232.987	5.78
233.45	5.72
233.914	5.66
234.377	5.57
234.84	5.5
235.303	5.45
235.766	5.4
236.229	5.34
236.691	5.28
237.154	5.24
237.617	5.19
238.08	5.14
238.542	5.09
239.005	5.05
239.468	5.02
239.93	4.97
240.393	4.93
240.855	4.88
241.317	4.83
241.78	4.78
242.242	4.73
242.704	4.7
243.166	4.66
243.629	4.64
244.091	4.59
244.553	4.54
245.015	4.5
245.477	4.45
245.939	4.41
246.4	4.38
246.862	4.35
247.324	4.32
247.786	4.28
248.247	4.25
248.709	4.19
249.17	4.15
249.632	4.12
250.093	4.1
250.555	4.08
251.016	4.05
251.477	4.03
251.939	4.01
252.4	3.98
252.861	3.96
253.322	3.94
253.783	3.93
254.244	3.92
254.705	3.9
255.166	3.87
255.627	3.85
256.088	3.84
256.549	3.81
257.009	3.79
257.47	3.76
257.931	3.73
258.391	3.7
258.852	3.67
259.312	3.64
259.773	3.61
260.233	3.6
260.694	3.58
261.154	3.55
261.614	3.53
262.074	3.5
262.534	3.49
262.994	3.47
263.455	3.45
263.915	3.43
264.374	3.42
264.834	3.41
265.294	3.38
265.754	3.37
266.214	3.36
266.673	3.35
267.133	3.34
267.593	3.33
268.052	3.33
268.512	3.32
268.971	3.32
269.431	3.31
269.89	3.3
270.349	3.3
270.809	3.28
271.268	3.28
271.727	3.27
272.186	3.26
272.645	3.26
273.104	3.25
273.563	3.23
274.022	3.23
274.481	3.23
274.94	3.23
275.399	3.21
275.857	3.2
276.316	3.19
276.775	3.18
277.233	3.18
277.692	3.18
278.15	3.17
278.609	3.17
279.067	3.16
279.525	3.15
279.984	3.14
280.442	3.14
280.9	3.14
281.358	3.14
281.816	3.14
282.274	3.14
282.732	3.12
283.19	3.12
283.648	3.11
284.106	3.11
284.564	3.1
285.021	3.1
285.479	3.1
285.937	3.08
286.394	3.06
286.852	3.05
287.309	3.04
287.767	3.04
288.224	3.02
288.682	3.01
289.139	3
289.596	2.99
290.053	2.97
290.511	2.96
290.968	2.95
291.425	2.94
291.882	2.93
292.339	2.92
292.796	2.91
293.252	2.9
293.709	2.9
294.166	2.9
294.623	2.89
295.079	2.88
295.536	2.87
295.992	2.87
296.449	2.86
296.905	2.86
297.362	2.85
297.818	2.85
298.274	2.84
298.731	2.83
299.187	2.82
299.643	2.8
300.099	2.8
300.555	2.79
301.011	2.78
301.467	2.78
301.923	2.77
302.379	2.76
302.835	2.76
303.291	2.76
303.746	2.75
304.202	2.76
304.658	2.77
305.113	2.76
305.569	2.76
306.024	2.75
306.479	2.75
306.935	2.75
307.39	2.75
307.845	2.75
308.301	2.75
308.756	2.75
309.211	2.75
309.666	2.76
310.121	2.76
310.576	2.76
311.031	2.76
311.486	2.77
311.94	2.77
312.395	2.77
312.85	2.76
313.305	2.76
313.759	2.76
314.214	2.74
314.668	2.73
315.123	2.73
315.577	2.72
316.032	2.72
316.486	2.71
316.94	2.71
317.394	2.7
317.849	2.7
318.303	2.69
318.757	2.68
319.211	2.68
319.665	2.67
320.119	2.66
320.572	2.66
321.026	2.66
321.48	2.65
321.934	2.64
322.387	2.63
322.841	2.63
323.295	2.64
323.748	2.64
324.202	2.64
324.655	2.64
325.108	2.64
325.562	2.63
326.015	2.63
326.468	2.62
326.921	2.62
327.374	2.62
327.827	2.62
328.28	2.61
328.733	2.61
329.186	2.61
329.639	2.61
330.092	2.61
330.545	2.61
330.997	2.61
331.45	2.61
331.903	2.62
332.355	2.62
332.808	2.61
333.26	2.61
333.713	2.61
334.165	2.6
334.617	2.6
335.069	2.6
335.522	2.59
335.974	2.6
336.426	2.6
336.878	2.59
337.33	2.59
337.782	2.6
338.234	2.6
338.686	2.6
339.137	2.6
339.589	2.6
340.041	2.59
340.493	2.59
340.944	2.57
341.396	2.56
341.847	2.55
342.299	2.55
342.75	2.54
343.201	2.52
343.653	2.51
344.104	2.5
344.555	2.49
345.006	2.47
345.457	2.47
345.908	2.46
346.359	2.46
346.81	2.45
347.261	2.45
347.712	2.44
348.163	2.44
348.613	2.44
349.064	2.44
349.515	2.44
349.965	2.45
350.416	2.44
350.866	2.44
351.317	2.43
351.767	2.44
352.217	2.44
352.668	2.44
353.118	2.45
353.568	2.44
354.018	2.44
354.468	2.44
354.918	2.44
355.368	2.45
355.818	2.45
356.268	2.46
356.718	2.46
357.168	2.45
357.617	2.44
358.067	2.44
358.517	2.45
358.966	2.46
359.416	2.46
359.865	2.46
360.315	2.45
360.764	2.46
361.213	2.45
361.663	2.45
362.112	2.47
362.561	2.48
363.01	2.48
363.459	2.47
363.908	2.46
364.357	2.47
364.806	2.47
365.255	2.48
365.703	2.49
366.152	2.5
366.601	2.51
367.05	2.51
367.498	2.51
367.947	2.52
368.395	2.53
368.844	2.54
369.292	2.54
369.74	2.56
370.189	2.57
370.637	2.58
371.085	2.59
371.533	2.6
371.981	2.61
372.429	2.63
372.877	2.65
373.325	2.67
373.773	2.67
374.221	2.69
374.669	2.7
375.116	2.71
375.564	2.73
376.012	2.76
376.459	2.79
376.907	2.82
377.354	2.85
377.801	2.89
378.249	2.91
378.696	2.95
379.143	2.98
379.591	3.02
380.038	3.06
380.485	3.11
380.932	3.15
381.379	3.18
381.826	3.22
382.273	3.26
382.72	3.28
383.166	3.33
383.613	3.38
384.06	3.42
384.506	3.46
384.953	3.51
385.4	3.55
385.846	3.6
386.292	3.64
386.739	3.68
387.185	3.73
387.631	3.78
388.078	3.83
388.524	3.88
388.97	3.93
389.416	3.98
389.862	4.03
390.308	4.09
390.754	4.15
391.2	4.19
391.645	4.24
392.091	4.3
392.537	4.36
392.983	4.41
393.428	4.47
393.874	4.51
394.319	4.56
394.765	4.6
395.21	4.62
395.655	4.65
396.101	4.69
396.546	4.72
396.991	4.76
397.436	4.78
397.881	4.81
398.326	4.83
398.771	4.86
399.216	4.87
399.661	4.89
400.106	4.91
400.551	4.93
400.995	4.94
401.44	4.95
401.885	4.94
402.329	4.95
402.774	4.96
403.218	4.98
403.663	4.99
404.107	5
404.551	5
404.995	5.01
405.44	5
405.884	5.01
406.328	5.02
406.772	5.04
407.216	5.03
407.66	5.03
408.104	5
408.547	5
408.991	5.01
409.435	5
409.879	5
410.322	5.02
410.766	5.03
411.209	5.04
411.653	5.03
412.096	5.05
412.54	5.05
412.983	5.06
413.426	5.08
413.869	5.08
414.312	5.09
414.756	5.1
415.199	5.1
415.642	5.11
416.085	5.1
416.527	5.09
416.97	5.07
417.413	5.06
417.856	5.05
418.298	5.03
418.741	5.03
419.184	5.01
419.626	5
420.069	5
420.511	4.99
420.953	5
421.396	5.03
421.838	5.02
422.28	5.02
422.722	5.03
423.164	5.03
423.606	5.02
424.048	5.01
424.49	5.01
424.932	4.99
425.374	4.95
425.816	4.93
426.258	4.89
426.699	4.88
427.141	4.87
427.582	4.85
428.024	4.84
428.465	4.83
428.907	4.83
429.348	4.81
429.789	4.8
430.231	4.82
430.672	4.84
431.113	4.84
431.554	4.84
431.995	4.84
432.436	4.85
432.877	4.87
433.318	4.88
433.759	4.88
434.2	4.9
434.64	4.89
435.081	4.89
435.522	4.89
435.962	4.92
436.403	4.94
436.843	4.95
437.284	4.94
437.724	4.95
438.164	4.94
438.604	4.96
439.045	4.96
439.485	4.97
439.925	4.97
440.365	4.99
440.805	4.98
441.245	5.01
441.685	5.03
442.125	5.05
442.564	5.05
443.004	5.07
443.444	5.1
443.883	5.13
444.323	5.13
444.762	5.16
445.202	5.17
445.641	5.21
446.081	5.23
446.52	5.24
446.959	5.27
447.398	5.31
447.837	5.34
448.276	5.35
448.716	5.38
449.154	5.41
449.593	5.43
450.032	5.45
450.471	5.45
450.91	5.45
451.349	5.48
451.787	5.47
452.226	5.46
452.664	5.46
453.103	5.46
453.541	5.46
453.98	5.48
454.418	5.47
454.856	5.47
455.295	5.47
455.733	5.45
456.171	5.44
456.609	5.44
457.047	5.44
457.485	5.44
457.923	5.44
458.361	5.44
458.798	5.43
459.236	5.43
459.674	5.43
460.111	5.41
460.549	5.42
460.987	5.43
461.424	5.43
461.862	5.43
462.299	5.43
462.736	5.43
463.173	5.42
463.611	5.43
464.048	5.44
464.485	5.44
464.922	5.44
465.359	5.44
465.796	5.46
466.233	5.46
466.67	5.46
467.106	5.47
467.543	5.46
467.98	5.46
468.416	5.44
468.853	5.45
469.29	5.46
469.726	5.46
470.162	5.46
470.599	5.44
471.035	5.43
471.471	5.43
471.907	5.42
472.344	5.42
472.78	5.43
473.216	5.43
473.652	5.43
474.088	5.41
474.523	5.41
474.959	5.4
475.395	5.41
475.831	5.42
476.266	5.43
476.702	5.42
477.138	5.44
477.573	5.43
478.008	5.45
478.444	5.45
478.879	5.46
479.314	5.47
479.75	5.48
480.185	5.46
480.62	5.46
481.055	5.46
481.49	5.45
481.925	5.46
482.36	5.47
482.795	5.46
483.229	5.46
483.664	5.48
484.099	5.48
484.534	5.5
484.968	5.53
485.403	5.54
485.837	5.56
486.271	5.58
486.706	5.6
487.14	5.61
487.574	5.64
488.009	5.66
488.443	5.68
488.877	5.71
489.311	5.74
489.745	5.78
490.179	5.83
490.613	5.88
491.046	5.93
491.48	5.98
491.914	6.03
492.348	6.09
492.781	6.15
493.215	6.22
493.648	6.29
494.082	6.35
494.515	6.42
494.948	6.49
495.382	6.56
495.815	6.64
496.248	6.73
496.681	6.82
497.114	6.91
497.547	7
497.98	7.1
498.413	7.19
498.846	7.29
499.279	7.4
499.711	7.51
500.144	7.62
500.577	7.74
501.009	7.86
501.442	8
501.874	8.15
502.306	8.29
502.739	8.45
503.171	8.62
503.603	8.78
504.036	8.95
504.468	9.12
504.9	9.31
505.332	9.49
505.764	9.69
506.196	9.88
506.627	10.08
507.059	10.3
507.491	10.5
507.923	10.71
508.354	10.93
508.786	11.16
509.217	11.4
509.649	11.63
510.08	11.88
510.512	12.13
510.943	12.37
511.374	12.62
511.805	12.87
512.237	13.13
512.668	13.4
513.099	13.67
513.53	13.94
513.961	14.22
514.391	14.5
514.822	14.79
515.253	15.07
515.684	15.35
516.114	15.64
516.545	15.93
516.975	16.22
517.406	16.5
517.836	16.78
518.267	17.08
518.697	17.35
519.127	17.63
519.558	17.89
519.988	18.16
520.418	18.43
520.848	18.69
521.278	18.95
521.708	19.41
522.138	19.67
522.567	19.92
522.997	20.14
523.427	20.39
523.857	20.63
524.286	20.85
524.716	21.07
525.145	21.29
525.575	21.5
526.004	21.72
526.433	21.7
526.863	21.88
527.292	22.07
527.721	22.23
528.15	22.39
528.579	22.54
529.008	22.7
529.437	22.84
529.866	22.96
530.295	23.1
530.724	23.22
531.152	23.35
531.581	23.48
532.01	23.6
532.438	23.71
532.867	23.81
533.295	23.9
533.723	23.99
534.152	24.06
534.58	24.15
535.008	24.22
535.436	24.3
535.865	24.35
536.293	24.4
536.721	24.45
537.149	24.5
537.576	24.55
538.004	24.61
538.432	24.65
538.86	24.7
539.287	24.73
539.715	24.77
540.143	24.8
540.57	24.84
540.998	24.85
541.425	24.89
541.852	24.92
542.28	24.94
542.707	24.97
543.134	24.99
543.561	25.03
543.988	25.06
544.415	25.1
544.842	25.11
545.269	25.12
545.696	25.17
546.123	25.2
546.549	25.23
546.976	25.27
547.403	25.29
547.829	25.32
548.256	25.35
548.682	25.37
549.108	25.4
549.535	25.43
549.961	25.45
550.387	25.46
550.813	25.46
551.24	25.47
551.666	25.46
552.092	25.47
552.518	25.46
552.943	25.45
553.369	25.45
553.795	25.43
554.221	25.42
554.646	25.38
555.072	25.36
555.498	25.33
555.923	25.29
556.349	25.25
556.774	25.21
557.199	25.16
557.625	25.09
558.05	25.02
558.475	24.96
558.9	24.88
559.325	24.84
559.75	24.77
560.175	24.7
560.6	24.63
561.025	24.56
561.449	24.47
561.874	24.38
562.299	24.31
562.723	24.22
563.148	24.12
563.572	24.02
563.997	23.9
564.421	23.76
564.846	23.66
565.27	23.54
565.694	23.4
566.118	23.29
566.542	23.18
566.966	23.05
567.39	22.92
567.814	22.79
568.238	22.67
568.662	22.55
569.086	22.44
569.509	22.3
569.933	22.17
570.357	22.05
570.78	21.92
571.204	21.8
571.627	21.68
572.05	21.56
572.474	21.45
572.897	21.33
573.32	21.21
573.743	21.1
574.166	20.99
574.589	20.87
575.012	20.77
575.435	20.66
575.858	20.56
576.281	20.45
576.704	20.36
577.126	20.27
577.549	20.17
577.972	20.09
578.394	20
578.817	19.93
579.239	19.86
579.661	19.78
580.084	19.7
580.506	19.63
580.928	19.56
581.35	19.49
581.772	19.4
582.194	19.32
582.616	19.25
583.038	19.18
583.46	19.09
583.882	19.02
584.303	18.96
584.725	18.89
585.147	18.84
585.568	18.78
585.99	18.71
586.411	18.66
586.833	18.6
587.254	18.55
587.675	18.48
588.096	18.44
588.518	18.39
588.939	18.35
589.36	18.3
589.781	18.23
590.202	18.19
590.623	18.16
591.043	18.11
591.464	18.09
591.885	18.04
592.305	18.02
592.726	17.99
593.147	17.94
593.567	17.9
593.987	17.87
594.408	17.84
594.828	17.79
595.248	17.76
595.669	17.73
596.089	17.69
596.509	17.66
596.929	17.62
597.349	17.58
597.769	17.55
598.189	17.51
598.608	17.48
599.028	17.45
599.448	17.41
599.867	17.37
600.287	17.32
600.706	17.28
601.126	17.25
601.545	17.21
601.965	17.19
602.384	17.15
602.803	17.1
603.222	17.06
603.641	17
604.061	16.96
604.48	16.91
604.898	16.86
605.317	16.8
605.736	16.74
606.155	16.68
606.574	16.6
606.992	16.53
607.411	16.47
607.829	16.38
608.248	16.29
608.666	16.2
609.085	16.14
609.503	16.07
609.921	16
610.339	15.92
610.758	15.85
611.176	15.77
611.594	15.7
612.012	15.61
612.43	15.55
612.847	15.48
613.265	15.41
613.683	15.33
614.101	15.26
614.518	15.18
614.936	15.11
615.353	15.02
615.771	14.96
616.188	14.89
616.606	14.83
617.023	14.78
617.44	14.74
617.857	14.69
618.274	14.64
618.691	14.58
619.108	14.54
619.525	14.49
619.942	14.46
620.359	14.41
620.776	14.37
621.192	14.34
621.609	14.31
622.026	14.26
622.442	14.24
622.859	14.2
623.275	14.18
623.691	14.15
624.108	14.13
624.524	14.11
624.94	14.11
625.356	14.1
625.772	14.07
626.188	14.06
626.604	14.05
627.02	14.02
627.436	14.01
627.852	14
628.268	13.99
628.683	13.97
629.099	13.96
629.514	13.93
629.93	13.9
630.345	13.88
630.761	13.84
631.176	13.8
631.591	13.76
632.007	13.72
632.422	13.68
632.837	13.62
633.252	13.56
633.667	13.48
634.082	13.41
634.497	13.34
634.911	13.26
635.326	13.18
635.741	13.1
636.155	13.01
636.57	12.91
636.984	12.8
637.399	12.68
637.813	12.57
638.228	12.46
638.642	12.33
639.056	12.2
639.47	12.08
639.884	11.95
640.298	11.81
640.712	11.67
641.126	11.53
641.54	11.38
641.954	11.25
642.368	11.11
642.781	10.99
643.195	10.86
643.609	10.74
644.022	10.61
644.436	10.5
644.849	10.37
645.262	10.26
645.676	10.14
646.089	10.06
646.502	9.96
646.915	9.88
647.328	9.79
647.741	9.72
648.154	9.65
648.567	9.59
648.98	9.53
649.393	9.48
649.805	9.43
650.218	9.39
650.631	9.34
651.043	9.29
651.456	9.24
651.868	9.18
652.28	9.13
652.693	9.08
653.105	9.03
653.517	8.97
653.929	8.91
654.341	8.84
654.753	8.77
655.165	8.71
655.577	8.63
655.989	8.54
656.401	8.46
656.813	8.38
657.224	8.27
657.636	8.15
658.047	8.06
658.459	7.95
658.87	7.84
659.282	7.72
659.693	7.59
660.104	7.47
660.515	7.36
660.926	7.24
661.338	7.12
661.749	7.01
662.159	6.91
662.57	6.81
662.981	6.71
663.392	6.61
663.803	6.53
664.213	6.44
664.624	6.36
665.035	6.28
665.445	6.21
665.855	6.14
666.266	6.08
666.676	6.03
667.086	5.97
667.497	5.92
667.907	5.86
668.317	5.82
668.727	5.78
669.137	5.75
669.547	5.71
669.956	5.68
670.366	5.65
670.776	5.63
671.186	5.6
671.595	5.58
672.005	5.56
672.414	5.56
672.824	5.55
673.233	5.54
673.642	5.55
674.052	5.56
674.461	5.56
674.87	5.56
675.279	5.58
675.688	5.6
676.097	5.63
676.506	5.66
676.915	5.69
677.323	5.72
677.732	5.75
678.141	5.8
678.549	5.85
678.958	5.91
679.366	5.99
679.775	6.06
680.183	6.15
680.592	6.25
681	6.37
681.408	6.5
681.816	6.64
682.224	6.8
682.632	6.98
683.04	7.16
683.448	7.36
683.856	7.57
684.264	7.82
684.671	8.09
685.079	8.36
685.487	8.68
685.894	9.01
686.302	9.38
686.709	9.77
687.116	10.16
687.524	10.59
687.931	11.04
688.338	11.5
688.745	11.98
689.152	12.47
689.559	12.98
689.966	13.5
690.373	14.03
690.78	14.56
691.187	15.09
691.593	15.66
692	16.21
692.407	16.75
692.813	17.33
693.22	17.89
693.626	18.46
694.032	19.02
694.439	19.57
694.845	20.14
695.251	20.7
695.657	21.24
696.063	21.76
696.469	22.3
696.875	22.84
697.281	23.33
697.687	23.84
698.093	24.33
698.498	24.81
698.904	25.28
699.31	25.72
699.715	26.17
700.12	26.64
700.526	27.08
700.931	27.5
701.337	27.91
701.742	28.31
702.147	28.7
702.552	29.08
702.957	29.46
703.362	29.84
703.767	30.19
704.172	30.53
704.577	30.85
704.981	31.19
705.386	31.52
705.791	31.84
706.195	32.16
706.6	32.47
707.004	32.77
707.408	33.08
707.813	33.36
708.217	33.64
708.621	33.93
709.025	34.19
709.43	34.44
709.834	34.69
710.237	34.93
710.641	35.15
711.045	35.38
711.449	35.64
711.853	35.9
712.256	36.09
712.66	36.3
713.064	36.51
713.467	36.73
713.87	36.95
714.274	37.14
714.677	37.36
715.08	37.56
715.484	37.75
715.887	37.92
716.29	38.05
716.693	38.26
717.096	38.43
717.499	38.61
717.901	38.77
718.304	38.93
718.707	39.09
719.109	39.24
719.512	39.39
719.915	39.55
720.317	39.66
720.719	39.8
721.122	39.91
721.524	40.05
721.926	40.17
722.328	40.31
722.731	40.42
723.133	40.55
723.535	40.66
723.937	40.8
724.338	40.9
724.74	41
725.142	41.23
725.544	41.36
725.945	41.48
726.347	41.55
726.748	41.63
727.15	41.71
727.551	41.8
727.952	41.88
728.354	41.94
728.755	42.01
729.156	42.09
729.557	42
729.958	42.05
730.359	42.1
730.76	42.17
731.161	42.22
731.562	42.29
731.962	42.3
732.363	42.36
732.763	42.41
733.164	42.45
733.564	42.5
733.965	42.58
734.365	42.63
734.766	42.67
735.166	42.71
735.566	42.75
735.966	42.81
736.366	42.86
736.766	42.88
737.166	42.91
737.566	42.93
737.966	42.93
738.365	42.96
738.765	43.01
739.165	43.02
739.564	43.04
739.964	43.08
740.363	43.08
740.763	43.09
741.162	43.13
741.561	43.15
741.96	43.18
742.36	43.21
742.759	43.24
743.158	43.23
743.557	43.24
743.955	43.26
744.354	43.26
744.753	43.28
745.152	43.31
745.55	43.32
745.949	43.33
746.348	43.35
746.746	43.35
747.144	43.37
747.543	43.37
747.941	43.38
748.339	43.38
748.737	43.39
749.136	43.39
749.534	43.39
749.932	43.39
750.33	43.39
750.727	43.38
751.125	43.41
751.523	43.37
751.921	43.4
752.318	43.41
752.716	43.42
753.113	43.42
753.511	43.43
753.908	43.46
754.305	43.49
754.703	43.49
755.1	43.51
755.497	43.5
755.894	43.5
756.291	43.49
756.688	43.48
757.085	43.48
757.482	43.48
757.878	43.49
758.275	43.47
758.672	43.45
759.068	43.47
759.465	43.46
759.861	43.46
760.258	43.48
760.654	43.5
761.05	43.52
761.447	43.53
761.843	43.55
762.239	43.55
762.635	43.54
763.031	43.54
763.427	43.52
763.822	43.54
764.218	43.54
764.614	43.56
765.01	43.54
765.405	43.54
765.801	43.52
766.196	43.53
766.592	43.52
766.987	43.51
767.382	43.5
767.778	43.52
768.173	43.54
768.568	43.53
768.963	43.5
769.358	43.5
769.753	43.49
770.148	43.49
770.542	43.48
770.937	43.48
771.332	43.49
771.726	43.51
772.121	43.5
772.515	43.49
772.91	43.48
773.304	43.5
773.699	43.5
774.093	43.5
774.487	43.49
774.881	43.49
775.275	43.48
775.669	43.49
776.063	43.47
776.457	43.44
776.851	43.42
777.245	43.41
777.638	43.4
778.032	43.42
778.425	43.45
778.819	43.46
779.212	43.45
779.606	43.48
779.999	43.46
780.392	43.49
780.786	43.51
781.179	43.55
781.572	43.59
781.965	43.59
782.358	43.59
782.751	43.58
783.143	43.58
783.536	43.6
783.929	43.58
784.322	43.6
784.714	43.58
785.107	43.58
785.499	43.57
785.891	43.56
786.284	43.58
786.676	43.59
787.068	43.58
787.46	43.59
787.852	43.61
788.245	43.62
788.636	43.64
789.028	43.64
789.42	43.64
789.812	43.65
790.204	43.66
790.595	43.66
790.987	43.66
791.378	43.71
791.77	43.71
792.161	43.7
792.553	43.7
792.944	43.68
793.335	43.71
793.726	43.71
794.117	43.71
794.508	43.69
794.899	43.69
795.29	43.69
795.681	43.68
796.072	43.69
796.463	43.72
796.853	43.72
797.244	43.74
797.634	43.73
798.025	43.77
798.415	43.77
798.806	43.79
799.196	43.81
799.586	43.81
799.976	43.82
800.366	43.83
800.756	43.81
801.146	43.83
801.536	43.85
801.926	43.86
802.316	43.85
802.706	43.86
803.095	43.88
803.485	43.88
803.874	43.86
804.264	43.86
804.653	43.87
805.043	43.89
805.432	43.88
805.821	43.9
806.21	43.9
806.599	43.91
806.988	43.92
807.377	43.93
807.766	43.91
808.155	43.92
808.544	43.92
808.933	43.92
809.321	43.92
809.71	43.93
810.098	43.9
810.487	43.91
810.875	43.93
811.264	43.92
811.652	43.92
812.04	43.95
812.428	43.97
812.816	43.98
813.204	43.97
813.592	43.95
813.98	43.95
814.368	43.96
814.756	43.98
815.144	43.95
815.531	43.97
815.919	43.95
816.306	43.93
816.694	43.93
817.081	43.93
817.469	43.94
817.856	43.94
818.243	43.94
818.63	43.93
819.017	43.93
819.404	43.93
819.791	43.93
820.178	43.94
820.565	43.95
820.952	43.94
821.339	43.96
821.725	43.97
822.112	44
822.498	44.01
822.885	44.04
823.271	44.03
823.657	44.01
824.044	44.02
824.43	44.02
824.816	44.03
825.202	44.02
825.588	44.02
825.974	44.01
826.36	44
826.746	44
827.132	43.99
827.517	43.99
827.903	44.01
828.289	44.04
828.674	44.05
829.06	44.05
829.445	44.05
829.83	44.04
830.216	44.03
830.601	44.03
830.986	44.03
831.371	44
831.756	44.01
832.141	44
832.526	43.97
832.911	43.96
833.295	43.95
833.68	43.96
834.065	43.95
834.449	43.94
834.834	43.92
835.218	43.9
835.603	43.91
835.987	43.87
836.371	43.86
836.755	43.85
837.139	43.81
837.524	43.82
837.908	43.81
838.291	43.82
838.675	43.81
839.059	43.82
839.443	43.81
839.827	43.79
840.21	43.8
840.594	43.79
840.977	43.77
841.361	43.8
841.744	43.77
842.127	43.75
842.511	43.72
842.894	43.72
843.277	43.71
843.66	43.69
844.043	43.72
844.426	43.73
844.809	43.72
845.191	43.74
845.574	43.75
845.957	43.76
846.339	43.77
846.722	43.8
847.104	43.82
847.487	43.81
847.869	43.84
848.252	43.84
848.634	43.83
849.016	43.84
849.398	43.82
849.78	43.82
850.162	43.82
850.544	43.83
850.926	43.82
851.307	43.82
851.689	43.83
852.071	43.82
852.452	43.83
852.834	43.85
853.215	43.84
853.597	43.83
853.978	43.82
854.359	43.85
854.741	43.87
855.122	43.86
855.503	43.83
855.884	43.82
856.265	43.82
856.646	43.81
857.026	43.81
857.407	43.86
857.788	43.84
858.169	43.88
858.549	43.86
858.93	43.84
859.31	43.86
859.69	43.89
860.071	43.92
860.451	43.92
860.831	43.93
861.211	43.92
861.591	43.9
861.971	43.92
862.351	43.9
862.731	43.92
863.111	43.9
863.491	43.9
863.87	43.89
864.25	43.88
864.629	43.88
865.009	43.87
865.388	43.85
865.768	43.87
866.147	43.86
866.526	43.86
866.905	43.85
867.284	43.86
867.663	43.84
868.042	43.86
868.421	43.87
868.8	43.88
869.179	43.9
869.558	43.89
869.936	43.89
870.315	43.9
870.693	43.9
871.072	43.91
871.45	43.92
871.828	43.94
872.207	43.94
872.585	43.92
872.963	43.94
873.341	43.91
873.719	43.94
874.097	43.92
874.475	43.94
874.853	43.94
875.23	43.95
875.608	43.94
875.986	43.98
876.363	43.98
876.741	43.97
877.118	43.97
877.495	43.98
877.873	44
878.25	44.03
878.627	44.04
879.004	44.03
879.381	44.01
879.758	44
880.135	43.98
880.512	43.97
880.889	43.99
881.265	43.98
881.642	43.98
882.019	43.96
882.395	43.93
882.772	43.91
883.148	43.92
883.524	43.91
883.901	43.9
884.277	43.88
884.653	43.84
885.029	43.84
885.405	43.84
885.781	43.84
886.157	43.84
886.532	43.84
886.908	43.84
887.284	43.84
887.659	43.85
888.035	43.84
888.411	43.84
888.786	43.86
889.161	43.86
889.537	43.84
889.912	43.84
890.287	43.83
890.662	43.82
891.037	43.82
891.412	43.8
891.787	43.77
892.162	43.76
892.536	43.78
892.911	43.77
893.286	43.77
893.66	43.77
894.035	43.76
894.409	43.76
894.784	43.78
895.158	43.75
895.532	43.8
895.906	43.8
896.281	43.81
896.655	43.8
897.029	43.81
897.402	43.81
897.776	43.81
898.15	43.82
898.524	43.81
898.898	43.79
899.271	43.8
899.645	43.79
900.018	43.81
900.392	43.82
900.765	43.83
901.138	43.82
901.511	43.81
901.884	43.82
902.258	43.81
902.631	43.83
903.003	43.85
903.376	43.86
903.749	43.85
904.122	43.87
904.495	43.89
904.867	43.89
905.24	43.9
905.612	43.93
905.985	43.92
906.357	43.91
906.729	43.92
907.102	43.92
907.474	43.93
907.846	43.93
908.218	43.89
908.59	43.89
908.962	43.9
909.334	43.92
909.705	43.9
910.077	43.91
910.449	43.94
910.82	43.92
911.192	43.92
911.563	43.91
911.935	43.89
912.306	43.91
912.677	43.92
913.048	43.93
913.419	43.88
913.79	43.91
914.161	43.92
914.532	43.92
914.903	43.94
915.274	43.94
915.645	43.93
916.015	43.94
916.386	43.93
916.756	43.91
917.127	43.9
917.497	43.93
917.868	43.92
918.238	43.9
918.608	43.89
918.978	43.87
919.348	43.88
919.718	43.88
920.088	43.92
920.458	43.95
920.828	43.96
921.198	43.95
921.567	43.96
921.937	43.96
922.306	43.96
922.676	43.98
923.045	44
923.415	43.97
923.784	43.99
924.153	44
924.522	43.96
924.891	43.95
925.26	43.96
925.629	43.97
925.998	43.98
926.367	43.98
926.736	43.99
927.104	43.98
927.473	43.99
927.842	43.97
928.21	43.95
928.578	43.95
928.947	43.97
929.315	43.97
929.683	43.95
930.051	43.92
930.42	43.91
930.788	43.88
931.156	43.87
931.523	43.84
931.891	43.87
932.259	43.89
932.627	43.91
932.994	43.92
933.362	43.9
933.729	43.89
934.097	43.9
934.464	43.94
934.831	43.94
935.199	43.97
935.566	44.02
935.933	43.97
936.3	43.96
936.667	43.94
937.034	43.96
937.401	43.97
937.767	43.95
938.134	43.96
938.501	43.98
938.867	44.04
939.234	43.99
939.6	43.96
939.967	44.03
940.333	44.01
940.699	44.03
941.065	43.96
941.431	43.98
941.798	44.01
942.163	43.99
942.529	43.91
942.895	43.84
943.261	43.81
943.627	43.82
943.992	43.79
944.358	43.8
944.723	43.75
945.089	43.72
945.454	43.68
945.82	43.63
946.185	43.65
946.55	43.6
946.915	43.57
947.28	43.6
947.645	43.59
948.01	43.56
948.375	43.53
948.74	43.53
949.104	43.56
949.469	43.55
949.834	43.5
950.198	43.45
950.562	43.47
950.927	43.48
951.291	43.38
951.655	43.32
952.02	43.3
952.384	43.29
952.748	43.27
953.112	43.27
953.476	43.25
953.839	43.24
954.203	43.24
954.567	43.21
954.931	43.2
955.294	43.22
955.658	43.27
956.021	43.25
956.385	43.19
956.748	43.13
957.111	43.08
957.474	43.06
957.837	43.03
958.2	43.01
958.563	43
958.926	43
959.289	43.02
959.652	43
960.015	43.03
960.377	43.05
960.74	43.13
961.102	43.11
961.465	43.13
961.827	43.23
962.189	43.25
962.552	43.23
962.914	43.21
963.276	43.19
963.638	43.17
964	43.1
964.362	43.12
964.724	43.03
965.085	43.02
965.447	43.02
965.809	42.97
966.17	42.91
966.532	42.95
966.893	42.99
967.255	43
967.616	43.01
967.977	43.06
968.338	43.05
968.699	43.12
969.061	43.17
969.421	43.16
969.782	43.16
970.143	43.2
970.504	43.24
970.865	43.25
971.225	43.23
971.586	43.19
971.946	43.1
972.307	43.13
972.667	43.07
973.027	43.04
973.388	43.03
973.748	43.04
974.108	43.11
974.468	43.02
974.828	43.01
975.188	43.04
975.548	43.06
975.907	43.12
976.267	43.05
976.627	43.11
976.986	43.07
977.346	43.02
977.705	42.96
978.064	42.95
978.424	43.04
978.783	42.97
979.142	42.93
979.501	42.98
979.86	43
980.219	43.02
980.578	43.01
980.937	43.07
981.296	43.08
981.654	43.07
982.013	43.04
982.371	43
982.73	43.05
983.088	43.02
983.447	42.94
983.805	42.97
984.163	42.92
984.521	42.86
984.879	42.84
985.237	42.9
985.595	42.96
985.953	42.89
986.311	42.85
986.669	42.86
987.026	42.93
987.384	43
987.741	42.9
988.099	43.02
988.456	43.03
988.814	43.1
989.171	43.05
989.528	43.08
989.885	43.08
990.242	43.13
990.599	43.08
990.956	43.08
991.313	43.06
991.67	43.14
992.027	43.22
992.383	43.27
992.74	43.28
993.096	43.35
993.453	43.37
993.809	43.39
994.165	43.34
994.522	43.45
994.878	43.47
995.234	43.44
995.59	43.44
995.946	43.3
996.302	43.33
996.658	43.32
997.013	43.39
997.369	43.35
997.725	43.48
998.08	43.58
998.436	43.51
998.791	43.47
999.147	43.52
999.502	43.53
999.857	43.55
1000.212	43.41
1000.567	43.43
1000.922	43.19
1001.277	43.27
1001.632	43.09
1001.987	43.06
1002.342	43.02
1002.696	43.05
1003.051	43.15
1003.406	43.22
1003.76	43.15
1004.114	43.21
1004.469	43.26
1004.823	43.59
1005.177	43.43
1005.531	43.52
1005.885	43.48
1006.239	43.48
1006.593	43.55
1006.947	43.39
1007.301	43.27
1007.655	43.32
1008.008	43.45
1008.362	43.44
1008.715	43.35
1009.069	43.4
1009.422	43.48
1009.776	43.49
1010.129	43.61
1010.482	43.49
1010.835	43.7
1011.188	43.77
1011.541	43.86
1011.894	43.77
1012.247	43.72
1012.6	43.7
1012.952	43.74
1013.305	43.66
1013.657	43.86
1014.01	43.85
1014.362	43.88
1014.715	43.92
1015.067	43.99
1015.419	44.12
1015.771	44.16
1016.123	44.33
1016.475	44.21
1016.827	44.24
1017.179	44.37
1017.531	44.29
1017.883	44.25
1018.234	44.48
1018.586	44.51
1018.938	44.64
1019.289	44.53
1019.64	44.44
1019.992	44.28
1020.343	44.41
1020.694	44.55
1021.045	44.51
1021.396	44.35
1021.747	44.36
1022.098	44.35
1022.449	44.23
1022.8	44.11
1023.151	44.04
1023.501	44.14
1023.852	44.23
1024.202	44.2
1024.553	43.96
1024.903	44.33
1025.253	44.53
1025.604	44.55
1025.954	44.32
1026.304	44.31
1026.654	44.37
1027.004	44.41
1027.354	44.51
1027.703	44.32
1028.053	44.4
1028.403	44.66
1028.753	44.08
1029.102	44.04
1029.452	44.08
1029.801	44.22
1030.15	44.23
1030.499	44.07
897.758	1786.83
901.051	1784.8
904.343	1780.75
907.636	1815.04
910.928	1767.99
914.22	1763.3
917.511	1739.78
920.803	1666.89
924.094	1653.06
927.384	1610.75
930.675	1540.68
933.965	1529
937.255	1445.77
940.544	1385.91
943.834	1314.26
947.123	1300.46
950.411	1224.57
953.7	1198.28
956.988	1130.3
960.276	1085.9
963.563	1070.21
966.851	1032.13
970.138	1022.9
973.424	987.35
976.711	992.6
979.997	945.16
983.283	941.44
986.568	921.05
989.853	890.56
993.138	877.3
996.423	843.92
999.708	819.16
1002.992	811.88
1006.275	773.93
1009.559	766.14
1012.842	739.96
1016.125	718.74
1019.408	705.13
1022.69	694.21
1025.972	681.96
1029.254	664.44
1032.536	653.28
1035.817	639.48
1039.098	630.37
1042.379	617.25
1045.659	610.85
1048.939	593.82
1052.219	582.05
1055.498	571.86
1058.778	560.33
1062.057	545.75
1065.335	539.19
1068.614	533.06
1071.892	527.65
1075.17	509.69
1078.447	500.41
1081.724	496.82
1085.001	493.46
1088.278	482.92
1091.554	473.49
1094.83	472.81
1098.106	471.42
1101.382	466.24
1104.657	461.58
1107.932	454.08
1111.206	456.77
1114.481	444.73
1117.755	440.26
1121.029	436.59
1124.302	436.86
1127.575	428.31
1130.848	423.1
1134.121	417.82
1137.393	416.69
1140.665	408.8
1143.937	405.66
1147.208	401.28
1150.48	401.74
1153.75	395.59
1157.021	389.65
1160.291	389.2
1163.561	385.74
1166.831	384.73
1170.101	381.83
1173.37	380.55
1176.639	381.07
1179.907	377.24
1183.176	374.55
1186.444	373.9
1189.711	374.08
1192.979	372.65
1196.246	370.04
1199.513	371.38
1202.78	370.03
1206.046	370.13
1209.312	365.03
1212.578	366.01
1215.843	369.68
1219.108	366.75
1222.373	374.13
1225.638	376.85
1228.902	383.53
1232.166	383.26
1235.43	386.4
1238.693	391.68
1241.956	393.12
1245.219	401.54
1248.482	400.29
1251.744	399.78
1255.006	401.78
1258.268	391
1261.529	387.02
1264.79	383.38
1268.051	381.86
1271.312	376.79
1274.572	371.74
1277.832	368.45
1281.092	361.83
1284.351	359.46
1287.61	359.11
1290.869	352.96
1294.128	351.22
1297.386	351.44
1300.644	347.2
1303.902	348.58
1307.159	346.49
1310.416	347.18
1313.673	346.94
1316.93	350.15
1320.186	350.84
1323.442	351.91
1326.697	359.13
1329.953	359.41
1333.208	361.43
1336.463	365.83
1339.717	366.25
1342.972	371.23
1346.226	373.66
1349.479	373.89
1352.733	376.42
1355.986	376.96
1359.238	377.39
1362.491	379.37
1365.743	384.17
1368.995	383.34
1372.247	382.83
1375.498	382.79
1378.749	386.87
1382	381.6
1385.251	384.49
1388.501	381.52
1391.751	384.86
1395	382.51
1398.25	380.35
1401.499	377.9
1404.748	378.35
1407.996	375.22
1411.244	373.51
1414.492	371.44
1417.74	369.22
1420.987	362.86
1424.234	364.15
1427.481	357.79
1430.728	358.5
1433.974	353.69
1437.22	350.77
1440.465	349.3
1443.711	346.95
1446.956	346.03
1450.201	339.76
1453.445	337.48
1456.689	336.54
1459.933	330.18
1463.177	328.22
1466.42	322.65
1469.663	319.72
1472.906	318.36
1476.148	309.44
1479.391	305.08
1482.633	301.19
1485.874	297.47
1489.115	295.4
1492.356	291.56
1495.597	290.65
1498.838	286.21
1502.078	284.17
1505.318	282.43
1508.557	281.93
1511.797	282.34
1515.036	281.08
1518.274	280.24
1521.513	277.11
1524.751	276.91
1527.989	276.09
1531.227	274.81
1534.464	276.2
1537.701	273.32
1540.938	272.54
1544.174	268.88
1547.41	268.38
1550.646	266.87
1553.882	266.69
1557.117	263.99
1560.352	261.86
1563.587	260.77
1566.821	258.96
1570.055	255.62
1573.289	254.56
1576.523	254.1
1579.756	252.36
1582.989	250.81
1586.222	250.7
1589.454	249.06
1592.686	250.23
1595.918	249.3
1599.15	248.52
1602.381	248.19
1605.612	248.15
1608.843	249.25
1612.073	248.53
1615.303	250.09
1618.533	250.33
1621.762	249.09
1624.992	249.24
1628.221	249.64
1631.449	248.99
1634.678	249.1
1637.906	250.66
1641.134	250.35
1644.361	249.5
1647.588	250.66
1650.815	249.05
1654.042	247.56
1657.269	250.1
1660.495	250.2
1663.72	248.11
1666.946	249.29
1670.171	249.2
1673.396	248.7
1676.621	249.01
1679.845	249.49
1683.069	249.18
1686.293	251.34
1689.517	253
1692.74	251.89
1695.963	253.07
1699.185	257.15
1702.408	257.24
1705.63	257.95
1708.852	259.17
1712.073	260
1715.294	260.18
1718.515	261.87
1721.736	261.31
1724.956	261.88
1728.176	262.02
1731.396	264.57
1734.616	263.27
1737.835	264.48
1741.054	262.09
1744.272	263.41
1747.491	265.58
1750.709	266.65
1753.927	266.62
1757.144	265.45
1760.361	267.47
1763.578	267.79
1766.795	266.85
1770.011	268.46
1773.227	268.65
1776.443	273.19
1779.658	274.15
1782.874	273.06
1786.089	273.87
1789.303	274.64
1792.518	278.68
1795.732	277.59
1798.945	281.33
1802.159	281.3
1805.372	282.23
1808.585	287.06
1811.797	287.73
1815.01	287.98
1818.222	290.66
1821.434	292.02
1824.645	294.07
1827.856	298.56
1831.067	302.25
1834.278	299.23
1837.488	302
1840.698	304.94
1843.908	301.86
1847.117	303.9
1850.326	305.74
1853.535	304.35
1856.744	310.1
1859.952	308.68
1863.16	307.77
1866.368	304.71
1869.575	310.51
1872.782	305.51
1875.989	303.25
1879.196	303.03
1882.402	301.25
1885.608	302.51
1888.814	304.26
1892.019	302.82
1895.224	302.6
1898.429	300.33
1901.634	302.94
1904.838	302.35
1908.042	307.12
1911.246	308.98
1914.449	310.36
1917.652	310.64
1920.855	309.99
1924.058	309.38
1927.26	308.44
1930.462	310.33
1933.664	314.4
1936.865	311.72
1940.066	312.65
1943.267	309.1
1946.467	309.89
1949.668	311.52
1952.868	316.29
1956.067	316.43
1959.267	316.49
1962.466	317.66
1965.665	315.14
1968.863	316.07
1972.061	319.94
1975.259	322.31
1978.457	325.4
1981.654	326.91
1984.852	328.5
1988.048	326.05
1991.245	328.59
1994.441	333.75
1997.637	335.19
2000.833	342.57
2004.028	346.74
2007.223	348.9
2010.418	352.83
2013.613	358.19
2016.807	362.14
2020.001	364.95
2023.194	371.01
2026.388	379.45
2029.581	386.6
2032.774	391.04
2035.966	398.3
2039.158	399.69
2042.35	408.53
2045.542	409.22
2048.733	415.83
2051.924	421.92
2055.115	428.21
2058.306	428.69
2061.496	434.21
2064.686	434.98
2067.875	441.34
2071.065	442.97
2074.254	440.69
2077.442	444.5
2080.631	448.21
2083.819	453.29
2087.007	452.44
2090.195	458.36
2093.382	461.92
2096.569	458.13
2099.756	465.01
2102.942	467.01
2106.128	471.55
2109.314	482.98
2112.5	481.97
2115.685	490.6
2118.87	491.33
2122.055	501.25
2125.239	504.86
2128.424	512.26
2131.608	515.35
2134.791	521.84
2137.974	525.62
2141.157	526.31
2144.34	525.84
2147.523	535.01
2150.705	531.75
2153.887	535.46
2157.068	537.26
2160.25	532.33
2163.431	533.81
2166.611	540.2
2169.792	552.21
2172.972	556.75
2176.152	559.64
2179.331	568.2
2182.511	577.89
2185.69	585.25
2188.868	597.82
2192.047	598.94
2195.225	615.48
2198.403	632.47
2201.58	643.68
2204.758	653.78
2207.935	668.22
2211.111	682.78
2214.288	689.94
2217.464	691.5
2220.64	699.7
2223.815	710.93
2226.991	740.17
2230.166	744.15
2233.34	755.24
2236.515	768.88
2239.689	770.18
2242.863	773.79
2246.036	797.39
2249.209	786.63
2252.382	799.49
2255.555	826.27
2258.727	827.83
2261.9	831.38
2265.071	837.04
2268.243	851.7
2271.414	860.81
2274.585	881.14
2277.756	889.1
2280.926	895.65
2284.096	919.38
2287.266	941.33
2290.436	946.96
2293.605	970.26
2296.774	1001.67
2299.942	1033.79
2303.111	1040.97
2306.279	1065.26
2309.447	1078.19
2312.614	1107.4
2315.781	1134.41
2318.948	1190.25
2322.115	1169.26
2325.281	1232.28
2328.447	1205.54
2331.613	1256.94
2334.779	1242.69
2337.944	1291.7
2341.109	1305.84
2344.274	1339.53
2347.438	1388.19
2350.602	1390.83
2353.766	1432.48
2356.929	1455.28
2360.092	1444.2
2363.255	1555.45
2366.418	1544.18
2369.58	1578.15
2372.742	1674.31
2375.904	1716.86
2379.066	1707.54
2382.227	1673.16
2385.388	1810.06
2388.548	1815.08
2391.709	1838.69
2394.869	2052.94
2398.029	1952.81
2401.188	2012.92
2404.347	1998.68
2407.506	1972.38
2410.665	2026.06
2413.823	2154
2416.981	2280.26
2420.139	2206.64
2423.296	2173.47
2426.453	2272.89
2429.61	2183.14
2432.767	2291.02
2435.923	2270.98
2439.079	2474.33
2442.235	2509.92
2445.391	2487.63
2448.546	2464.85
2451.701	2397.94
2454.855	2398.96
2458.009	2546.11
2461.163	2646.33
2464.317	2742.63
2467.471	2812.26
2470.624	2811.01
2473.777	2742.47
2476.929	2667.74
2480.082	2597.89
2483.234	2562.3
2486.385	2688.68
2489.537	2700.6
2492.688	2810.7
2495.839	2720.13
2498.989	2668.04
2502.14	2683.24
2505.29	2715.93
2508.439	2757.44
2511.589	2752.35
2514.738	2992.38
2517.887	2933.76
2521.035	3100.96
2524.183	3116.43
2527.331	3139.85
2530.479	3138.69
2533.627	3157.17
