Data from N_3_DEC_NC_4N_Splice17_14-01-03-487.txt Node
Date: Sat Mar 07 14:01:03 EST 2020
User: sa697716
Spectrometer: NQ5500242
Trigger mode: 0
Integration Time (sec): 1.450000E-1
Scans to average: 20
Nonlinearity correction enabled: false
Boxcar width: 5
Storing dark spectrum: false
XAxis mode: Wavelengths
Number of Pixels in Spectrum: 512
>>>>>Begin Spectral Data<<<<<
187.83	119.03
188.298	147.49
188.766	131.33
189.233	107.56
189.701	113.42
190.169	140.67
190.636	147.07
191.104	215.6
191.571	230.67
192.039	183.02
192.506	-235.29
192.974	195.18
193.441	421.69
193.908	233.85
194.375	135.71
194.842	83.57
195.31	200.06
195.777	291.17
196.244	57.61
196.711	45.47
197.177	44.96
197.644	43.59
198.111	43.48
198.578	43.53
199.045	44.09
199.511	44.45
199.978	45.21
200.445	45.29
200.911	45.53
201.378	45.46
201.844	45.46
202.31	45.51
202.777	45.78
203.243	45.84
203.709	45.59
204.176	45.03
204.642	44.82
205.108	44.46
205.574	43.67
206.04	42.88
206.506	42.32
206.972	42.11
207.438	41.52
207.903	41.08
208.369	40.05
208.835	39.36
209.301	38.73
209.766	37.66
210.232	36.33
210.697	35.73
211.163	35.12
211.628	34.4
212.094	33.6
212.559	33.08
213.024	32.05
213.49	31.67
213.955	31.01
214.42	30.24
214.885	29.45
215.35	28.62
215.815	27.32
216.28	25.61
216.745	23.74
217.21	21.89
217.675	20.09
218.14	18.71
218.604	17.37
219.069	16.25
219.534	15.34
219.998	14.57
220.463	13.97
220.927	13.39
221.392	12.95
221.856	12.6
222.32	12.28
222.785	12.04
223.249	11.78
223.713	11.55
224.177	11.39
224.642	11.18
225.106	10.98
225.57	10.8
226.034	10.63
226.497	10.48
226.961	10.33
227.425	10.2
227.889	10.08
228.353	9.94
228.816	9.82
229.28	9.68
229.744	9.58
230.207	9.47
230.671	9.35
231.134	9.25
231.597	9.16
232.061	9.06
232.524	8.95
232.987	8.85
233.45	8.77
233.914	8.68
234.377	8.59
234.84	8.52
235.303	8.45
235.766	8.39
236.229	8.32
236.691	8.25
237.154	8.19
237.617	8.14
238.08	8.07
238.542	8.01
239.005	7.96
239.468	7.9
239.93	7.85
240.393	7.8
240.855	7.72
241.317	7.66
241.78	7.61
242.242	7.54
242.704	7.48
243.166	7.44
243.629	7.39
244.091	7.33
244.553	7.29
245.015	7.23
245.477	7.18
245.939	7.14
246.4	7.09
246.862	7.03
247.324	6.99
247.786	6.95
248.247	6.9
248.709	6.85
249.17	6.8
249.632	6.75
250.093	6.72
250.555	6.68
251.016	6.65
251.477	6.61
251.939	6.58
252.4	6.55
252.861	6.52
253.322	6.48
253.783	6.45
254.244	6.43
254.705	6.39
255.166	6.36
255.627	6.33
256.088	6.3
256.549	6.28
257.009	6.24
257.47	6.21
257.931	6.17
258.391	6.14
258.852	6.12
259.312	6.09
259.773	6.06
260.233	6.04
260.694	6.01
261.154	5.98
261.614	5.95
262.074	5.93
262.534	5.91
262.994	5.89
263.455	5.87
263.915	5.84
264.374	5.83
264.834	5.82
265.294	5.79
265.754	5.78
266.214	5.77
266.673	5.76
267.133	5.76
267.593	5.74
268.052	5.73
268.512	5.73
268.971	5.72
269.431	5.71
269.89	5.69
270.349	5.68
270.809	5.68
271.268	5.66
271.727	5.66
272.186	5.65
272.645	5.65
273.104	5.64
273.563	5.63
274.022	5.62
274.481	5.62
274.94	5.62
275.399	5.61
275.857	5.59
276.316	5.58
276.775	5.57
277.233	5.56
277.692	5.55
278.15	5.53
278.609	5.52
279.067	5.51
279.525	5.5
279.984	5.49
280.442	5.48
280.9	5.48
281.358	5.48
281.816	5.47
282.274	5.46
282.732	5.45
283.19	5.44
283.648	5.44
284.106	5.42
284.564	5.42
285.021	5.41
285.479	5.41
285.937	5.39
286.394	5.38
286.852	5.36
287.309	5.36
287.767	5.35
288.224	5.34
288.682	5.33
289.139	5.33
289.596	5.31
290.053	5.31
290.511	5.29
290.968	5.27
291.425	5.26
291.882	5.24
292.339	5.23
292.796	5.22
293.252	5.21
293.709	5.19
294.166	5.18
294.623	5.17
295.079	5.15
295.536	5.15
295.992	5.15
296.449	5.14
296.905	5.13
297.362	5.12
297.818	5.11
298.274	5.11
298.731	5.1
299.187	5.09
299.643	5.08
300.099	5.09
300.555	5.07
301.011	5.06
301.467	5.05
301.923	5.04
302.379	5.03
302.835	5.03
303.291	5.02
303.746	5.01
304.202	5.01
304.658	5
305.113	4.99
305.569	4.99
306.024	4.98
306.479	4.98
306.935	4.97
307.39	4.96
307.845	4.96
308.301	4.95
308.756	4.95
309.211	4.95
309.666	4.95
310.121	4.95
310.576	4.95
311.031	4.95
311.486	4.95
311.94	4.96
312.395	4.97
312.85	4.96
313.305	4.96
313.759	4.96
314.214	4.96
314.668	4.95
315.123	4.95
315.577	4.94
316.032	4.94
316.486	4.94
316.94	4.93
317.394	4.93
317.849	4.92
318.303	4.91
318.757	4.91
319.211	4.9
319.665	4.89
320.119	4.88
320.572	4.87
321.026	4.86
321.48	4.84
321.934	4.83
322.387	4.81
322.841	4.8
323.295	4.8
323.748	4.79
324.202	4.79
324.655	4.78
325.108	4.78
325.562	4.78
326.015	4.79
326.468	4.79
326.921	4.79
327.374	4.78
327.827	4.78
328.28	4.77
328.733	4.77
329.186	4.76
329.639	4.75
330.092	4.74
330.545	4.74
330.997	4.72
331.45	4.73
331.903	4.73
332.355	4.74
332.808	4.74
333.26	4.73
333.713	4.73
334.165	4.73
334.617	4.74
335.069	4.74
335.522	4.74
335.974	4.75
336.426	4.75
336.878	4.74
337.33	4.74
337.782	4.74
338.234	4.75
338.686	4.75
339.137	4.76
339.589	4.74
340.041	4.74
340.493	4.74
340.944	4.72
341.396	4.71
341.847	4.71
342.299	4.69
342.75	4.68
343.201	4.67
343.653	4.66
344.104	4.65
344.555	4.65
345.006	4.64
345.457	4.63
345.908	4.63
346.359	4.63
346.81	4.62
347.261	4.63
347.712	4.62
348.163	4.62
348.613	4.62
349.064	4.62
349.515	4.61
349.965	4.6
350.416	4.6
350.866	4.6
351.317	4.59
351.767	4.59
352.217	4.59
352.668	4.59
353.118	4.58
353.568	4.58
354.018	4.58
354.468	4.6
354.918	4.61
355.368	4.61
355.818	4.62
356.268	4.63
356.718	4.64
357.168	4.64
357.617	4.65
358.067	4.66
358.517	4.68
358.966	4.69
359.416	4.69
359.865	4.69
360.315	4.7
360.764	4.7
361.213	4.71
361.663	4.71
362.112	4.72
362.561	4.72
363.01	4.72
363.459	4.7
363.908	4.7
364.357	4.71
364.806	4.71
365.255	4.71
365.703	4.72
366.152	4.73
366.601	4.74
367.05	4.75
367.498	4.75
367.947	4.76
368.395	4.79
368.844	4.8
369.292	4.8
369.74	4.81
370.189	4.83
370.637	4.82
371.085	4.82
371.533	4.83
371.981	4.84
372.429	4.85
372.877	4.86
373.325	4.88
373.773	4.88
374.221	4.9
374.669	4.91
375.116	4.91
375.564	4.93
376.012	4.96
376.459	4.97
376.907	4.99
377.354	5.01
377.801	5.03
378.249	5.04
378.696	5.06
379.143	5.08
379.591	5.11
380.038	5.14
380.485	5.17
380.932	5.19
381.379	5.21
381.826	5.24
382.273	5.27
382.72	5.29
383.166	5.32
383.613	5.36
384.06	5.38
384.506	5.41
384.953	5.44
385.4	5.46
385.846	5.5
386.292	5.53
386.739	5.56
387.185	5.59
387.631	5.63
388.078	5.66
388.524	5.68
388.97	5.73
389.416	5.76
389.862	5.8
390.308	5.84
390.754	5.89
391.2	5.94
391.645	5.97
392.091	6.02
392.537	6.07
392.983	6.11
393.428	6.16
393.874	6.2
394.319	6.24
394.765	6.28
395.21	6.32
395.655	6.35
396.101	6.39
396.546	6.43
396.991	6.47
397.436	6.5
397.881	6.55
398.326	6.59
398.771	6.63
399.216	6.68
399.661	6.73
400.106	6.76
400.551	6.8
400.995	6.83
401.44	6.85
401.885	6.88
402.329	6.91
402.774	6.93
403.218	6.96
403.663	6.98
404.107	6.99
404.551	7.01
404.995	7.03
405.44	7.03
405.884	7.05
406.328	7.07
406.772	7.07
407.216	7.08
407.66	7.1
408.104	7.09
408.547	7.11
408.991	7.12
409.435	7.13
409.879	7.14
410.322	7.17
410.766	7.19
411.209	7.21
411.653	7.24
412.096	7.26
412.54	7.26
412.983	7.27
413.426	7.29
413.869	7.31
414.312	7.35
414.756	7.36
415.199	7.36
415.642	7.37
416.085	7.38
416.527	7.38
416.97	7.37
417.413	7.39
417.856	7.4
418.298	7.39
418.741	7.39
419.184	7.38
419.626	7.38
420.069	7.39
420.511	7.4
420.953	7.4
421.396	7.4
421.838	7.41
422.28	7.42
422.722	7.44
423.164	7.44
423.606	7.45
424.048	7.46
424.49	7.46
424.932	7.45
425.374	7.44
425.816	7.41
426.258	7.4
426.699	7.37
427.141	7.35
427.582	7.33
428.024	7.33
428.465	7.31
428.907	7.29
429.348	7.27
429.789	7.27
430.231	7.27
430.672	7.29
431.113	7.3
431.554	7.31
431.995	7.32
432.436	7.31
432.877	7.3
433.318	7.31
433.759	7.33
434.2	7.34
434.64	7.35
435.081	7.34
435.522	7.33
435.962	7.35
436.403	7.37
436.843	7.38
437.284	7.38
437.724	7.41
438.164	7.41
438.604	7.42
439.045	7.45
439.485	7.46
439.925	7.46
440.365	7.48
440.805	7.47
441.245	7.49
441.685	7.52
442.125	7.56
442.564	7.56
443.004	7.58
443.444	7.59
443.883	7.6
444.323	7.62
444.762	7.66
445.202	7.68
445.641	7.73
446.081	7.77
446.52	7.78
446.959	7.83
447.398	7.86
447.837	7.9
448.276	7.95
448.716	7.98
449.154	8.03
449.593	8.07
450.032	8.1
450.471	8.11
450.91	8.11
451.349	8.15
451.787	8.15
452.226	8.16
452.664	8.17
453.103	8.18
453.541	8.19
453.98	8.2
454.418	8.18
454.856	8.18
455.295	8.18
455.733	8.17
456.171	8.17
456.609	8.16
457.047	8.14
457.485	8.13
457.923	8.13
458.361	8.11
458.798	8.1
459.236	8.09
459.674	8.08
460.111	8.09
460.549	8.09
460.987	8.09
461.424	8.08
461.862	8.09
462.299	8.08
462.736	8.07
463.173	8.07
463.611	8.07
464.048	8.06
464.485	8.07
464.922	8.06
465.359	8.07
465.796	8.06
466.233	8.07
466.67	8.07
467.106	8.08
467.543	8.08
467.98	8.09
468.416	8.09
468.853	8.09
469.29	8.1
469.726	8.1
470.162	8.09
470.599	8.09
471.035	8.08
471.471	8.1
471.907	8.09
472.344	8.1
472.78	8.1
473.216	8.11
473.652	8.12
474.088	8.1
474.523	8.12
474.959	8.13
475.395	8.13
475.831	8.15
476.266	8.13
476.702	8.13
477.138	8.14
477.573	8.16
478.008	8.18
478.444	8.17
478.879	8.2
479.314	8.19
479.75	8.19
480.185	8.19
480.62	8.19
481.055	8.2
481.49	8.21
481.925	8.21
482.36	8.22
482.795	8.22
483.229	8.24
483.664	8.25
484.099	8.27
484.534	8.29
484.968	8.32
485.403	8.34
485.837	8.36
486.271	8.39
486.706	8.42
487.14	8.44
487.574	8.47
488.009	8.51
488.443	8.55
488.877	8.59
489.311	8.64
489.745	8.69
490.179	8.75
490.613	8.8
491.046	8.85
491.48	8.91
491.914	8.97
492.348	9.04
492.781	9.11
493.215	9.18
493.648	9.26
494.082	9.33
494.515	9.41
494.948	9.49
495.382	9.58
495.815	9.66
496.248	9.76
496.681	9.87
497.114	9.97
497.547	10.07
497.98	10.17
498.413	10.28
498.846	10.39
499.279	10.51
499.711	10.62
500.144	10.75
500.577	10.87
501.009	10.99
501.442	11.12
501.874	11.26
502.306	11.41
502.739	11.57
503.171	11.71
503.603	11.86
504.036	12.03
504.468	12.2
504.9	12.37
505.332	12.55
505.764	12.73
506.196	12.91
506.627	13.09
507.059	13.28
507.491	13.47
507.923	13.67
508.354	13.87
508.786	14.07
509.217	14.27
509.649	14.48
510.08	14.68
510.512	14.9
510.943	15.12
511.374	15.33
511.805	15.55
512.237	15.77
512.668	16
513.099	16.23
513.53	16.46
513.961	16.69
514.391	16.92
514.822	17.16
515.253	17.38
515.684	17.59
516.114	17.83
516.545	18.04
516.975	18.26
517.406	18.48
517.836	18.68
518.267	18.9
518.697	19.08
519.127	19.27
519.558	19.47
519.988	19.66
520.418	19.86
520.848	20.04
521.278	20.23
521.708	20.56
522.138	20.74
522.567	20.93
522.997	21.09
523.427	21.27
523.857	21.46
524.286	21.61
524.716	21.77
525.145	21.91
525.575	22.05
526.004	22.18
526.433	22.17
526.863	22.29
527.292	22.42
527.721	22.53
528.15	22.63
528.579	22.73
529.008	22.83
529.437	22.93
529.866	23.02
530.295	23.1
530.724	23.18
531.152	23.25
531.581	23.32
532.01	23.38
532.438	23.46
532.867	23.53
533.295	23.57
533.723	23.63
534.152	23.69
534.58	23.75
535.008	23.79
535.436	23.84
535.865	23.88
536.293	23.91
536.721	23.94
537.149	23.98
537.576	24
538.004	24.04
538.432	24.06
538.86	24.08
539.287	24.08
539.715	24.12
540.143	24.14
540.57	24.15
540.998	24.17
541.425	24.19
541.852	24.21
542.28	24.22
542.707	24.24
543.134	24.26
543.561	24.29
543.988	24.32
544.415	24.33
544.842	24.34
545.269	24.37
545.696	24.4
546.123	24.4
546.549	24.42
546.976	24.43
547.403	24.45
547.829	24.46
548.256	24.47
548.682	24.47
549.108	24.48
549.535	24.5
549.961	24.5
550.387	24.48
550.813	24.51
551.24	24.53
551.666	24.54
552.092	24.53
552.518	24.54
552.943	24.54
553.369	24.55
553.795	24.54
554.221	24.55
554.646	24.55
555.072	24.55
555.498	24.51
555.923	24.49
556.349	24.46
556.774	24.44
557.199	24.41
557.625	24.37
558.05	24.33
558.475	24.3
558.9	24.26
559.325	24.23
559.75	24.19
560.175	24.15
560.6	24.09
561.025	24.03
561.449	23.97
561.874	23.91
562.299	23.86
562.723	23.78
563.148	23.7
563.572	23.61
563.997	23.51
564.421	23.41
564.846	23.32
565.27	23.22
565.694	23.14
566.118	23.06
566.542	22.97
566.966	22.87
567.39	22.79
567.814	22.7
568.238	22.6
568.662	22.51
569.086	22.42
569.509	22.33
569.933	22.25
570.357	22.13
570.78	22.04
571.204	21.93
571.627	21.85
572.05	21.75
572.474	21.68
572.897	21.59
573.32	21.5
573.743	21.41
574.166	21.34
574.589	21.26
575.012	21.19
575.435	21.1
575.858	21.04
576.281	20.96
576.704	20.89
577.126	20.82
577.549	20.74
577.972	20.69
578.394	20.62
578.817	20.57
579.239	20.51
579.661	20.45
580.084	20.4
580.506	20.34
580.928	20.29
581.35	20.24
581.772	20.18
582.194	20.14
582.616	20.09
583.038	20.05
583.46	19.99
583.882	19.95
584.303	19.89
584.725	19.86
585.147	19.82
585.568	19.77
585.99	19.71
586.411	19.67
586.833	19.62
587.254	19.56
587.675	19.52
588.096	19.47
588.518	19.43
588.939	19.41
589.36	19.35
589.781	19.31
590.202	19.28
590.623	19.26
591.043	19.22
591.464	19.19
591.885	19.16
592.305	19.14
592.726	19.12
593.147	19.08
593.567	19.04
593.987	19
594.408	18.98
594.828	18.94
595.248	18.92
595.669	18.89
596.089	18.86
596.509	18.85
596.929	18.81
597.349	18.78
597.769	18.76
598.189	18.73
598.608	18.71
599.028	18.7
599.448	18.66
599.867	18.62
600.287	18.59
600.706	18.56
601.126	18.53
601.545	18.5
601.965	18.47
602.384	18.44
602.803	18.41
603.222	18.37
603.641	18.33
604.061	18.3
604.48	18.26
604.898	18.21
605.317	18.18
605.736	18.13
606.155	18.09
606.574	18.04
606.992	17.98
607.411	17.95
607.829	17.87
608.248	17.81
608.666	17.76
609.085	17.71
609.503	17.66
609.921	17.59
610.339	17.54
610.758	17.48
611.176	17.41
611.594	17.37
612.012	17.3
612.43	17.26
612.847	17.2
613.265	17.14
613.683	17.09
614.101	17.04
614.518	16.98
614.936	16.92
615.353	16.86
615.771	16.82
616.188	16.76
616.606	16.71
617.023	16.66
617.44	16.63
617.857	16.59
618.274	16.55
618.691	16.49
619.108	16.47
619.525	16.42
619.942	16.39
620.359	16.36
620.776	16.33
621.192	16.29
621.609	16.27
622.026	16.23
622.442	16.21
622.859	16.19
623.275	16.17
623.691	16.15
624.108	16.13
624.524	16.12
624.94	16.11
625.356	16.1
625.772	16.09
626.188	16.08
626.604	16.07
627.02	16.07
627.436	16.07
627.852	16.05
628.268	16.03
628.683	16.03
629.099	16.01
629.514	16
629.93	15.98
630.345	15.96
630.761	15.92
631.176	15.89
631.591	15.85
632.007	15.8
632.422	15.76
632.837	15.72
633.252	15.66
633.667	15.62
634.082	15.54
634.497	15.48
634.911	15.4
635.326	15.33
635.741	15.25
636.155	15.16
636.57	15.07
636.984	14.98
637.399	14.87
637.813	14.77
638.228	14.65
638.642	14.53
639.056	14.4
639.47	14.29
639.884	14.17
640.298	14.04
640.712	13.91
641.126	13.78
641.54	13.65
641.954	13.52
642.368	13.4
642.781	13.28
643.195	13.17
643.609	13.06
644.022	12.94
644.436	12.84
644.849	12.73
645.262	12.64
645.676	12.54
646.089	12.45
646.502	12.37
646.915	12.3
647.328	12.21
647.741	12.13
648.154	12.07
648.567	12.01
648.98	11.94
649.393	11.9
649.805	11.86
650.218	11.82
650.631	11.79
651.043	11.74
651.456	11.7
651.868	11.67
652.28	11.63
652.693	11.59
653.105	11.55
653.517	11.5
653.929	11.45
654.341	11.38
654.753	11.32
655.165	11.26
655.577	11.2
655.989	11.12
656.401	11.03
656.813	10.97
657.224	10.88
657.636	10.78
658.047	10.7
658.459	10.59
658.87	10.5
659.282	10.39
659.693	10.3
660.104	10.18
660.515	10.08
660.926	9.98
661.338	9.88
661.749	9.78
662.159	9.67
662.57	9.59
662.981	9.5
663.392	9.42
663.803	9.33
664.213	9.23
664.624	9.16
665.035	9.08
665.445	9
665.855	8.92
666.266	8.86
666.676	8.82
667.086	8.74
667.497	8.68
667.907	8.62
668.317	8.58
668.727	8.54
669.137	8.5
669.547	8.47
669.956	8.43
670.366	8.4
670.776	8.37
671.186	8.34
671.595	8.33
672.005	8.32
672.414	8.31
672.824	8.31
673.233	8.3
673.642	8.3
674.052	8.3
674.461	8.31
674.87	8.32
675.279	8.33
675.688	8.35
676.097	8.37
676.506	8.4
676.915	8.44
677.323	8.48
677.732	8.52
678.141	8.58
678.549	8.63
678.958	8.7
679.366	8.8
679.775	8.87
680.183	8.97
680.592	9.09
681	9.23
681.408	9.37
681.816	9.53
682.224	9.7
682.632	9.88
683.04	10.08
683.448	10.3
683.856	10.51
684.264	10.77
684.671	11.04
685.079	11.32
685.487	11.61
685.894	11.92
686.302	12.24
686.709	12.59
687.116	12.96
687.524	13.34
687.931	13.72
688.338	14.14
688.745	14.55
689.152	14.97
689.559	15.41
689.966	15.86
690.373	16.31
690.78	16.76
691.187	17.21
691.593	17.66
692	18.11
692.407	18.55
692.813	19
693.22	19.44
693.626	19.87
694.032	20.29
694.439	20.7
694.845	21.11
695.251	21.52
695.657	21.9
696.063	22.29
696.469	22.67
696.875	23.05
697.281	23.41
697.687	23.77
698.093	24.12
698.498	24.46
698.904	24.77
699.31	25.09
699.715	25.39
700.12	25.69
700.526	25.99
700.931	26.27
701.337	26.54
701.742	26.8
702.147	27.06
702.552	27.3
702.957	27.55
703.362	27.8
703.767	28.03
704.172	28.26
704.577	28.47
704.981	28.66
705.386	28.88
705.791	29.07
706.195	29.27
706.6	29.48
707.004	29.65
707.408	29.82
707.813	30.02
708.217	30.18
708.621	30.36
709.025	30.51
709.43	30.68
709.834	30.84
710.237	31.01
710.641	31.17
711.045	31.31
711.449	31.47
711.853	31.63
712.256	31.75
712.66	31.88
713.064	31.99
713.467	32.14
713.87	32.28
714.274	32.37
714.677	32.49
715.08	32.58
715.484	32.68
715.887	32.8
716.29	32.89
716.693	33.01
717.096	33.12
717.499	33.25
717.901	33.32
718.304	33.41
718.707	33.51
719.109	33.6
719.512	33.7
719.915	33.79
720.317	33.85
720.719	33.91
721.122	33.99
721.524	34.07
721.926	34.13
722.328	34.24
722.731	34.3
723.133	34.37
723.535	34.44
723.937	34.51
724.338	34.56
724.74	34.62
725.142	34.79
725.544	34.82
725.945	34.9
726.347	34.93
726.748	34.96
727.15	35.01
727.551	35.07
727.952	35.1
728.354	35.14
728.755	35.19
729.156	35.24
729.557	35.19
729.958	35.22
730.359	35.24
730.76	35.3
731.161	35.31
731.562	35.35
731.962	35.35
732.363	35.4
732.763	35.42
733.164	35.45
733.564	35.47
733.965	35.5
734.365	35.54
734.766	35.57
735.166	35.57
735.566	35.61
735.966	35.62
736.366	35.66
736.766	35.66
737.166	35.67
737.566	35.66
737.966	35.65
738.365	35.65
738.765	35.66
739.165	35.67
739.564	35.69
739.964	35.69
740.363	35.71
740.763	35.72
741.162	35.73
741.561	35.75
741.96	35.76
742.36	35.79
742.759	35.81
743.158	35.81
743.557	35.82
743.955	35.85
744.354	35.87
744.753	35.91
745.152	35.94
745.55	35.95
745.949	35.98
746.348	36.01
746.746	36.01
747.144	36.04
747.543	36.06
747.941	36.08
748.339	36.06
748.737	36.07
749.136	36.03
749.534	36.02
749.932	36.01
750.33	36.01
750.727	36
751.125	35.99
751.523	35.97
751.921	35.97
752.318	35.96
752.716	35.96
753.113	35.95
753.511	35.96
753.908	35.97
754.305	35.98
754.703	35.96
755.1	35.95
755.497	35.95
755.894	35.95
756.291	35.94
756.688	35.91
757.085	35.93
757.482	35.91
757.878	35.9
758.275	35.88
758.672	35.85
759.068	35.87
759.465	35.88
759.861	35.88
760.258	35.89
760.654	35.9
761.05	35.91
761.447	35.92
761.843	35.93
762.239	35.91
762.635	35.91
763.031	35.92
763.427	35.9
763.822	35.89
764.218	35.87
764.614	35.87
765.01	35.84
765.405	35.84
765.801	35.79
766.196	35.78
766.592	35.79
766.987	35.78
767.382	35.79
767.778	35.79
768.173	35.78
768.568	35.78
768.963	35.76
769.358	35.78
769.753	35.75
770.148	35.78
770.542	35.78
770.937	35.79
771.332	35.83
771.726	35.8
772.121	35.79
772.515	35.81
772.91	35.81
773.304	35.82
773.699	35.82
774.093	35.82
774.487	35.8
774.881	35.81
775.275	35.77
775.669	35.73
776.063	35.71
776.457	35.72
776.851	35.68
777.245	35.65
777.638	35.64
778.032	35.63
778.425	35.66
778.819	35.66
779.212	35.64
779.606	35.69
779.999	35.69
780.392	35.75
780.786	35.77
781.179	35.78
781.572	35.82
781.965	35.83
782.358	35.86
782.751	35.85
783.143	35.85
783.536	35.86
783.929	35.84
784.322	35.84
784.714	35.82
785.107	35.84
785.499	35.85
785.891	35.86
786.284	35.86
786.676	35.86
787.068	35.85
787.46	35.86
787.852	35.87
788.245	35.88
788.636	35.89
789.028	35.89
789.42	35.85
789.812	35.84
790.204	35.84
790.595	35.84
790.987	35.84
791.378	35.86
791.77	35.85
792.161	35.84
792.553	35.87
792.944	35.87
793.335	35.88
793.726	35.89
794.117	35.89
794.508	35.87
794.899	35.87
795.29	35.86
795.681	35.82
796.072	35.84
796.463	35.87
796.853	35.85
797.244	35.84
797.634	35.87
798.025	35.88
798.415	35.9
798.806	35.89
799.196	35.91
799.586	35.92
799.976	35.94
800.366	35.95
800.756	35.94
801.146	35.92
801.536	35.92
801.926	35.89
802.316	35.89
802.706	35.89
803.095	35.92
803.485	35.9
803.874	35.91
804.264	35.91
804.653	35.94
805.043	35.94
805.432	35.94
805.821	35.94
806.21	35.97
806.599	35.98
806.988	35.98
807.377	35.98
807.766	35.99
808.155	35.96
808.544	35.97
808.933	35.93
809.321	35.94
809.71	35.95
810.098	35.96
810.487	35.94
810.875	35.94
811.264	35.94
811.652	35.95
812.04	35.95
812.428	35.99
812.816	35.97
813.204	35.99
813.592	35.98
813.98	36.02
814.368	36.03
814.756	36.03
815.144	36
815.531	36
815.919	35.98
816.306	35.98
816.694	35.98
817.081	36.02
817.469	36.03
817.856	36.02
818.243	35.98
818.63	35.96
819.017	35.95
819.404	35.94
819.791	35.96
820.178	35.95
820.565	35.94
820.952	35.92
821.339	35.9
821.725	35.88
822.112	35.91
822.498	35.93
822.885	35.95
823.271	35.95
823.657	35.94
824.044	35.93
824.43	35.95
824.816	35.95
825.202	35.97
825.588	35.96
825.974	35.96
826.36	35.92
826.746	35.91
827.132	35.91
827.517	35.93
827.903	35.94
828.289	35.95
828.674	35.91
829.06	35.89
829.445	35.84
829.83	35.83
830.216	35.8
830.601	35.8
830.986	35.8
831.371	35.77
831.756	35.76
832.141	35.75
832.526	35.73
832.911	35.74
833.295	35.75
833.68	35.76
834.065	35.77
834.449	35.77
834.834	35.75
835.218	35.73
835.603	35.73
835.987	35.72
836.371	35.69
836.755	35.65
837.139	35.62
837.524	35.6
837.908	35.61
838.291	35.61
838.675	35.61
839.059	35.6
839.443	35.59
839.827	35.59
840.21	35.56
840.594	35.57
840.977	35.58
841.361	35.6
841.744	35.56
842.127	35.52
842.511	35.48
842.894	35.46
843.277	35.45
843.66	35.46
844.043	35.45
844.426	35.45
844.809	35.43
845.191	35.43
845.574	35.41
845.957	35.43
846.339	35.44
846.722	35.43
847.104	35.44
847.487	35.45
847.869	35.44
848.252	35.42
848.634	35.41
849.016	35.43
849.398	35.42
849.78	35.42
850.162	35.4
850.544	35.4
850.926	35.41
851.307	35.41
851.689	35.42
852.071	35.42
852.452	35.44
852.834	35.44
853.215	35.44
853.597	35.45
853.978	35.46
854.359	35.48
854.741	35.48
855.122	35.47
855.503	35.47
855.884	35.44
856.265	35.43
856.646	35.42
857.026	35.43
857.407	35.43
857.788	35.43
858.169	35.44
858.549	35.43
858.93	35.43
859.31	35.44
859.69	35.46
860.071	35.51
860.451	35.51
860.831	35.52
861.211	35.49
861.591	35.47
861.971	35.46
862.351	35.47
862.731	35.48
863.111	35.48
863.491	35.47
863.87	35.44
864.25	35.4
864.629	35.4
865.009	35.38
865.388	35.38
865.768	35.38
866.147	35.38
866.526	35.36
866.905	35.34
867.284	35.35
867.663	35.33
868.042	35.33
868.421	35.35
868.8	35.35
869.179	35.34
869.558	35.34
869.936	35.34
870.315	35.32
870.693	35.32
871.072	35.33
871.45	35.31
871.828	35.32
872.207	35.33
872.585	35.3
872.963	35.31
873.341	35.32
873.719	35.33
874.097	35.35
874.475	35.37
874.853	35.37
875.23	35.38
875.608	35.37
875.986	35.38
876.363	35.41
876.741	35.43
877.118	35.41
877.495	35.42
877.873	35.4
878.25	35.39
878.627	35.4
879.004	35.39
879.381	35.38
879.758	35.36
880.135	35.35
880.512	35.32
880.889	35.31
881.265	35.3
881.642	35.31
882.019	35.31
882.395	35.31
882.772	35.29
883.148	35.29
883.524	35.3
883.901	35.31
884.277	35.3
884.653	35.31
885.029	35.31
885.405	35.3
885.781	35.28
886.157	35.28
886.532	35.28
886.908	35.26
887.284	35.26
887.659	35.24
888.035	35.22
888.411	35.21
888.786	35.2
889.161	35.19
889.537	35.18
889.912	35.18
890.287	35.17
890.662	35.15
891.037	35.16
891.412	35.12
891.787	35.08
892.162	35.08
892.536	35.07
892.911	35.04
893.286	35.03
893.66	35.04
894.035	35.03
894.409	35.02
894.784	35.03
895.158	35.01
895.532	35.03
895.906	35.03
896.281	35.04
896.655	35.04
897.029	35.05
897.402	35.03
897.776	35.02
898.15	35.01
898.524	35.02
898.898	35
899.271	35.01
899.645	35.02
900.018	35.04
900.392	35.04
900.765	35.06
901.138	35.07
901.511	35.07
901.884	35.07
902.258	35.1
902.631	35.12
903.003	35.14
903.376	35.15
903.749	35.15
904.122	35.15
904.495	35.15
904.867	35.16
905.24	35.18
905.612	35.2
905.985	35.19
906.357	35.16
906.729	35.16
907.102	35.15
907.474	35.15
907.846	35.14
908.218	35.15
908.59	35.16
908.962	35.15
909.334	35.14
909.705	35.14
910.077	35.15
910.449	35.17
910.82	35.18
911.192	35.19
911.563	35.19
911.935	35.19
912.306	35.21
912.677	35.22
913.048	35.25
913.419	35.25
913.79	35.27
914.161	35.28
914.532	35.27
914.903	35.28
915.274	35.27
915.645	35.3
916.015	35.3
916.386	35.28
916.756	35.28
917.127	35.28
917.497	35.28
917.868	35.25
918.238	35.21
918.608	35.22
918.978	35.22
919.348	35.25
919.718	35.22
920.088	35.25
920.458	35.25
920.828	35.25
921.198	35.25
921.567	35.26
921.937	35.29
922.306	35.34
922.676	35.36
923.045	35.34
923.415	35.33
923.784	35.33
924.153	35.36
924.522	35.38
924.891	35.4
925.26	35.41
925.629	35.41
925.998	35.42
926.367	35.41
926.736	35.4
927.104	35.43
927.473	35.43
927.842	35.42
928.21	35.41
928.578	35.4
928.947	35.39
929.315	35.38
929.683	35.37
930.051	35.38
930.42	35.37
930.788	35.35
931.156	35.32
931.523	35.29
931.891	35.33
932.259	35.31
932.627	35.33
932.994	35.34
933.362	35.33
933.729	35.32
934.097	35.32
934.464	35.34
934.831	35.36
935.199	35.36
935.566	35.4
935.933	35.39
936.3	35.41
936.667	35.39
937.034	35.41
937.401	35.44
937.767	35.46
938.134	35.43
938.501	35.44
938.867	35.48
939.234	35.52
939.6	35.52
939.967	35.54
940.333	35.51
940.699	35.56
941.065	35.5
941.431	35.53
941.798	35.53
942.163	35.52
942.529	35.51
942.895	35.53
943.261	35.46
943.627	35.45
943.992	35.42
944.358	35.42
944.723	35.36
945.089	35.34
945.454	35.35
945.82	35.38
946.185	35.41
946.55	35.33
946.915	35.33
947.28	35.36
947.645	35.4
948.01	35.39
948.375	35.42
948.74	35.43
949.104	35.45
949.469	35.43
949.834	35.34
950.198	35.28
950.562	35.3
950.927	35.21
951.291	35.12
951.655	35.11
952.02	35.09
952.384	35
952.748	34.97
953.112	34.92
953.476	34.87
953.839	34.84
954.203	34.83
954.567	34.82
954.931	34.79
955.294	34.84
955.658	34.83
956.021	34.82
956.385	34.8
956.748	34.78
957.111	34.78
957.474	34.79
957.837	34.81
958.2	34.8
958.563	34.81
958.926	34.84
959.289	34.79
959.652	34.7
960.015	34.71
960.377	34.74
960.74	34.77
961.102	34.75
961.465	34.8
961.827	34.83
962.189	34.87
962.552	34.85
962.914	34.87
963.276	34.94
963.638	34.99
964	34.98
964.362	34.96
964.724	34.95
965.085	34.96
965.447	34.88
965.809	34.84
966.17	34.85
966.532	34.86
966.893	34.86
967.255	34.84
967.616	34.82
967.977	34.81
968.338	34.82
968.699	34.81
969.061	34.81
969.421	34.84
969.782	34.84
970.143	34.84
970.504	34.84
970.865	34.84
971.225	34.79
971.586	34.76
971.946	34.77
972.307	34.75
972.667	34.75
973.027	34.82
973.388	34.83
973.748	34.85
974.108	34.89
974.468	34.83
974.828	34.91
975.188	34.97
975.548	35.01
975.907	35.02
976.267	35.08
976.627	35.14
976.986	35.11
977.346	35.08
977.705	35.08
978.064	35.09
978.424	35.18
978.783	35.1
979.142	35.07
979.501	35.1
979.86	35.15
980.219	35.13
980.578	35.12
980.937	35.08
981.296	35.08
981.654	35.09
982.013	35.1
982.371	35.06
982.73	35.14
983.088	35.21
983.447	35.16
983.805	35.14
984.163	35.21
984.521	35.18
984.879	35.2
985.237	35.31
985.595	35.36
985.953	35.3
986.311	35.33
986.669	35.34
987.026	35.35
987.384	35.46
987.741	35.42
988.099	35.46
988.456	35.48
988.814	35.48
989.171	35.47
989.528	35.38
989.885	35.44
990.242	35.44
990.599	35.47
990.956	35.51
991.313	35.51
991.67	35.57
992.027	35.66
992.383	35.76
992.74	35.88
993.096	35.86
993.453	35.92
993.809	35.91
994.165	36.07
994.522	36.07
994.878	36.05
995.234	36.02
995.59	35.95
995.946	35.87
996.302	35.9
996.658	35.91
997.013	35.97
997.369	36.06
997.725	36.1
998.08	36.05
998.436	35.98
998.791	36.04
999.147	36.02
999.502	36.12
999.857	36.11
1000.212	36.01
1000.567	36.02
1000.922	36.01
1001.277	35.98
1001.632	35.97
1001.987	35.98
1002.342	36.03
1002.696	36
1003.051	36.13
1003.406	36.24
1003.76	36.22
1004.114	36.36
1004.469	36.42
1004.823	36.66
1005.177	36.7
1005.531	36.84
1005.885	36.82
1006.239	36.94
1006.593	37.1
1006.947	37.07
1007.301	37.01
1007.655	37.05
1008.008	36.99
1008.362	37
1008.715	36.86
1009.069	36.8
1009.422	36.73
1009.776	36.76
1010.129	36.7
1010.482	36.51
1010.835	36.51
1011.188	36.63
1011.541	36.73
1011.894	36.64
1012.247	36.54
1012.6	36.49
1012.952	36.59
1013.305	36.64
1013.657	36.76
1014.01	36.75
1014.362	36.91
1014.715	37.11
1015.067	37.05
1015.419	37.07
1015.771	37.21
1016.123	37.45
1016.475	37.61
1016.827	37.88
1017.179	37.97
1017.531	37.99
1017.883	38.14
1018.234	38.18
1018.586	38.09
1018.938	38.19
1019.289	38.13
1019.64	38.16
1019.992	38.05
1020.343	37.84
1020.694	37.56
1021.045	37.58
1021.396	37.57
1021.747	37.59
1022.098	37.68
1022.449	37.68
1022.8	37.68
1023.151	37.64
1023.501	37.68
1023.852	37.8
1024.202	37.78
1024.553	37.87
1024.903	37.87
1025.253	38.05
1025.604	38.2
1025.954	37.82
1026.304	38.04
1026.654	38.26
1027.004	38.42
1027.354	38.4
1027.703	38.53
1028.053	39.02
1028.403	39.21
1028.753	38.86
1029.102	38.89
1029.452	38.93
1029.801	39.42
1030.15	39.34
1030.499	39.15
897.758	1398.96
901.051	1396.55
904.343	1402.86
907.636	1422.63
910.928	1384.34
914.22	1379.8
917.511	1357.51
920.803	1300.39
924.094	1294.26
927.384	1263.21
930.675	1208.18
933.965	1200.26
937.255	1134.99
940.544	1082.65
943.834	1033.55
947.123	1022.97
950.411	963.73
953.7	944.62
956.988	894.17
960.276	855.85
963.563	842.59
966.851	810.15
970.138	804.57
973.424	777.35
976.711	783.04
979.997	741.84
983.283	739.44
986.568	724.22
989.853	699.9
993.138	688.16
996.423	662.74
999.708	644.33
1002.992	638.13
1006.275	606.79
1009.559	601.76
1012.842	579.67
1016.125	564.47
1019.408	553.38
1022.69	545.8
1025.972	536.49
1029.254	522.96
1032.536	513.6
1035.817	502.97
1039.098	497.32
1042.379	487.33
1045.659	481.53
1048.939	468.92
1052.219	461.13
1055.498	452.49
1058.778	442.34
1062.057	431.51
1065.335	426.21
1068.614	420.43
1071.892	416.65
1075.17	402.33
1078.447	395.45
1081.724	392.06
1085.001	388.99
1088.278	380.21
1091.554	374.4
1094.83	374.24
1098.106	371.55
1101.382	367.99
1104.657	365.34
1107.932	358.24
1111.206	360.59
1114.481	350.88
1117.755	348.36
1121.029	344.82
1124.302	344.13
1127.575	336.89
1130.848	332.94
1134.121	329.98
1137.393	328.14
1140.665	321.84
1143.937	319.83
1147.208	316.59
1150.48	317.09
1153.75	311.86
1157.021	307.67
1160.291	307.94
1163.561	303.99
1166.831	303.78
1170.101	301.08
1173.37	299.99
1176.639	300.7
1179.907	297.55
1183.176	294.96
1186.444	293.66
1189.711	294.11
1192.979	292.77
1196.246	290.82
1199.513	293.07
1202.78	290.91
1206.046	290.67
1209.312	287.74
1212.578	287.9
1215.843	290.55
1219.108	288.21
1222.373	294.71
1225.638	296.24
1228.902	301.15
1232.166	301.11
1235.43	302.52
1238.693	306.78
1241.956	308.27
1245.219	313.83
1248.482	313.4
1251.744	313.38
1255.006	315.43
1258.268	307.22
1261.529	304.25
1264.79	302.2
1268.051	300.78
1271.312	297.39
1274.572	293.48
1277.832	290.56
1281.092	285.26
1284.351	283.73
1287.61	283.37
1290.869	277.85
1294.128	276.46
1297.386	276.5
1300.644	273.38
1303.902	273.91
1307.159	272.32
1310.416	272.7
1313.673	272.64
1316.93	275.42
1320.186	275.57
1323.442	275.81
1326.697	282.04
1329.953	282.27
1333.208	283.36
1336.463	287.88
1339.717	288.04
1342.972	291.86
1346.226	293.87
1349.479	294.86
1352.733	296.7
1355.986	297.82
1359.238	298.39
1362.491	299.16
1365.743	302.87
1368.995	302.21
1372.247	300.64
1375.498	300.74
1378.749	303.24
1382	300.5
1385.251	301.97
1388.501	299.68
1391.751	301.51
1395	299.91
1398.25	297.76
1401.499	296.67
1404.748	297.15
1407.996	294.52
1411.244	293.46
1414.492	291.88
1417.74	289.46
1420.987	284.58
1424.234	285.64
1427.481	281.31
1430.728	281.58
1433.974	278.77
1437.22	276.23
1440.465	275.38
1443.711	273.22
1446.956	271.45
1450.201	267.56
1453.445	265.4
1456.689	264.34
1459.933	259.36
1463.177	257.22
1466.42	253.74
1469.663	250.98
1472.906	249.01
1476.148	241.98
1479.391	239.1
1482.633	236.98
1485.874	234.08
1489.115	232.1
1492.356	229.19
1495.597	228.33
1498.838	224.75
1502.078	222.84
1505.318	221.62
1508.557	221.51
1511.797	221.76
1515.036	220.06
1518.274	219.26
1521.513	216.95
1524.751	216.72
1527.989	216.16
1531.227	214.86
1534.464	215.7
1537.701	214.17
1540.938	213.57
1544.174	210.28
1547.41	209.65
1550.646	209.03
1553.882	208.66
1557.117	205.91
1560.352	204.25
1563.587	203.83
1566.821	202.66
1570.055	200.34
1573.289	198.75
1576.523	198.06
1579.756	197.26
1582.989	196.18
1586.222	195.51
1589.454	194.59
1592.686	196.4
1595.918	195.39
1599.15	194.26
1602.381	194.65
1605.612	194.43
1608.843	194.76
1612.073	195.07
1615.303	195.64
1618.533	196.07
1621.762	195.25
1624.992	195.75
1628.221	194.67
1631.449	194.83
1634.678	194.56
1637.906	195.65
1641.134	195.24
1644.361	195.18
1647.588	195.63
1650.815	194.93
1654.042	193.91
1657.269	195.8
1660.495	195.57
1663.72	194.85
1666.946	195.46
1670.171	196.23
1673.396	195.16
1676.621	195.7
1679.845	196.22
1683.069	195.83
1686.293	197.2
1689.517	198.18
1692.74	197.76
1695.963	198.51
1699.185	200.98
1702.408	201.45
1705.63	202.07
1708.852	203.03
1712.073	203.45
1715.294	203.55
1718.515	205.34
1721.736	204.7
1724.956	205.65
1728.176	205.53
1731.396	207.08
1734.616	206.34
1737.835	207.17
1741.054	205.08
1744.272	206
1747.491	207.53
1750.709	208.41
1753.927	207.98
1757.144	207.33
1760.361	208.2
1763.578	208.37
1766.795	207.92
1770.011	209.37
1773.227	209.02
1776.443	212.57
1779.658	213.34
1782.874	212.67
1786.089	213.29
1789.303	214.01
1792.518	217.27
1795.732	216.5
1798.945	219.58
1802.159	219.43
1805.372	219.69
1808.585	223.71
1811.797	224.01
1815.01	224.51
1818.222	226.94
1821.434	228.69
1824.645	229.49
1827.856	233.43
1831.067	236
1834.278	234.76
1837.488	236.87
1840.698	238.87
1843.908	236.63
1847.117	238.24
1850.326	239.79
1853.535	239.32
1856.744	242.7
1859.952	242.92
1863.16	241.09
1866.368	239.82
1869.575	242.5
1872.782	239.71
1875.989	239.18
1879.196	238.98
1882.402	237.84
1885.608	238.68
1888.814	239.22
1892.019	239.3
1895.224	238.74
1898.429	237.76
1901.634	239.59
1904.838	239.94
1908.042	242.68
1911.246	243.42
1914.449	244.99
1917.652	245.09
1920.855	244.77
1924.058	245.22
1927.26	243.63
1930.462	244.43
1933.664	247.88
1936.865	245.67
1940.066	245.97
1943.267	243.99
1946.467	244.24
1949.668	245.78
1952.868	249.1
1956.067	249.1
1959.267	249.44
1962.466	250.05
1965.665	248.2
1968.863	248.94
1972.061	252.55
1975.259	254.49
1978.457	256.15
1981.654	258.37
1984.852	258.8
1988.048	257.38
1991.245	260.22
1994.441	263.16
1997.637	264.82
2000.833	271.04
2004.028	274.2
2007.223	274.64
2010.418	277.88
2013.613	282.65
2016.807	285.64
2020.001	287.49
2023.194	291.65
2026.388	298.82
2029.581	304.1
2032.774	306.8
2035.966	312.44
2039.158	312.65
2042.35	319.41
2045.542	321.4
2048.733	326.96
2051.924	330.68
2055.115	336.31
2058.306	337.63
2061.496	339.49
2064.686	340.29
2067.875	346.28
2071.065	347.67
2074.254	346.32
2077.442	350.95
2080.631	351.67
2083.819	355.12
2087.007	354.92
2090.195	359.33
2093.382	362.37
2096.569	359.95
2099.756	365.92
2102.942	367.48
2106.128	369.85
2109.314	378.5
2112.5	377
2115.685	384.55
2118.87	385.11
2122.055	394.76
2125.239	396.7
2128.424	400.86
2131.608	403.28
2134.791	408.01
2137.974	409.49
2141.157	411.27
2144.34	411.09
2147.523	417.94
2150.705	415.59
2153.887	417.75
2157.068	417.12
2160.25	414.34
2163.431	416.96
2166.611	421.47
2169.792	430.36
2172.972	435.8
2176.152	438.94
2179.331	444.75
2182.511	451.49
2185.69	456.64
2188.868	469.29
2192.047	469.31
2195.225	482.9
2198.403	494.69
2201.58	505.02
2204.758	513.68
2207.935	523.23
2211.111	533.89
2214.288	540.08
2217.464	541.59
2220.64	550.56
2223.815	556
2226.991	579.69
2230.166	580.81
2233.34	591.91
2236.515	600.26
2239.689	600.53
2242.863	604.26
2246.036	620.68
2249.209	614.42
2252.382	624.77
2255.555	643.49
2258.727	645.55
2261.9	650.96
2265.071	657.19
2268.243	666.28
2271.414	675.36
2274.585	689.76
2277.756	697.39
2280.926	701.39
2284.096	719.15
2287.266	734.39
2290.436	741.46
2293.605	758.39
2296.774	779.65
2299.942	805.25
2303.111	810.48
2306.279	828
2309.447	841.21
2312.614	861.3
2315.781	885.23
2318.948	928.74
2322.115	915.4
2325.281	963.69
2328.447	945
2331.613	980.91
2334.779	968.54
2337.944	1010.45
2341.109	1020.25
2344.274	1048.52
2347.438	1087.6
2350.602	1086.97
2353.766	1118.15
2356.929	1135.48
2360.092	1127.08
2363.255	1208.98
2366.418	1208.47
2369.58	1232.89
2372.742	1310.07
2375.904	1345.23
2379.066	1334.21
2382.227	1308.05
2385.388	1418.11
2388.548	1416.7
2391.709	1438.3
2394.869	1596.44
2398.029	1530.4
2401.188	1573.76
2404.347	1568.62
2407.506	1540.77
2410.665	1579.36
2413.823	1677.5
2416.981	1772.86
2420.139	1718.37
2423.296	1699.71
2426.453	1775.87
2429.61	1713.38
2432.767	1791.26
2435.923	1773.48
2439.079	1931.39
2442.235	1961.75
2445.391	1946.19
2448.546	1929.8
2451.701	1878.66
2454.855	1878.33
2458.009	1995.22
2461.163	2068.12
2464.317	2134.11
2467.471	2189.2
2470.624	2191.99
2473.777	2142.6
2476.929	2081.07
2480.082	2023.11
2483.234	2000.66
2486.385	2101.02
2489.537	2109.98
2492.688	2189.22
2495.839	2131.14
2498.989	2090.83
2502.14	2097.59
2505.29	2119.37
2508.439	2140.49
2511.589	2140.23
2514.738	2338.07
2517.887	2286.45
2521.035	2415.19
2524.183	2432.51
2527.331	2449.95
2530.479	2435.56
2533.627	2454.74
