Data from N_3_DEC_OH_4N_Splice17_14-22-21-954.txt Node
Date: Sat Mar 07 14:22:21 EST 2020
User: sa697716
Spectrometer: NQ5500242
Trigger mode: 0
Integration Time (sec): 1.450000E-1
Scans to average: 20
Nonlinearity correction enabled: false
Boxcar width: 5
Storing dark spectrum: false
XAxis mode: Wavelengths
Number of Pixels in Spectrum: 512
>>>>>Begin Spectral Data<<<<<
187.83	114.23
188.298	124.96
188.766	113.93
189.233	93.06
189.701	81.28
190.169	114.94
190.636	110.96
191.104	90
191.571	88.27
192.039	129.78
192.506	-371.83
192.974	109.06
193.441	110.43
193.908	9.22
194.375	27.51
194.842	-35.46
195.31	24.03
195.777	-158.94
196.244	40.19
196.711	62
197.177	68.18
197.644	67.84
198.111	68.98
198.578	69.91
199.045	71.1
199.511	70.88
199.978	70.96
200.445	71.49
200.911	71.61
201.378	71.92
201.844	72.24
202.31	71.79
202.777	72.21
203.243	71.94
203.709	71.62
204.176	70.96
204.642	70.84
205.108	70.64
205.574	69.83
206.04	69.21
206.506	68.52
206.972	68.07
207.438	67.3
207.903	66.09
208.369	64.69
208.835	63.22
209.301	61.66
209.766	59.56
210.232	57.78
210.697	56.03
211.163	54.28
211.628	52.97
212.094	51.4
212.559	50.16
213.024	48.87
213.49	47.8
213.955	46.72
214.42	45.57
214.885	44.37
215.35	42.57
215.815	40.15
216.28	37.23
216.745	33.81
217.21	30.61
217.675	27.55
218.14	24.89
218.604	22.59
219.069	20.57
219.534	18.89
219.998	17.52
220.463	16.41
220.927	15.48
221.392	14.75
221.856	14.13
222.32	13.56
222.785	13.12
223.249	12.71
223.713	12.33
224.177	12.02
224.642	11.72
225.106	11.42
225.57	11.12
226.034	10.89
226.497	10.64
226.961	10.42
227.425	10.23
227.889	10.02
228.353	9.81
228.816	9.62
229.28	9.43
229.744	9.28
230.207	9.12
230.671	8.96
231.134	8.8
231.597	8.68
232.061	8.54
232.524	8.4
232.987	8.27
233.45	8.17
233.914	8.05
234.377	7.94
234.84	7.83
235.303	7.74
235.766	7.66
236.229	7.57
236.691	7.47
237.154	7.39
237.617	7.32
238.08	7.24
238.542	7.16
239.005	7.11
239.468	7.04
239.93	6.97
240.393	6.92
240.855	6.84
241.317	6.78
241.78	6.72
242.242	6.64
242.704	6.59
243.166	6.53
243.629	6.47
244.091	6.39
244.553	6.34
245.015	6.27
245.477	6.21
245.939	6.16
246.4	6.1
246.862	6.06
247.324	6.01
247.786	5.94
248.247	5.89
248.709	5.84
249.17	5.78
249.632	5.74
250.093	5.71
250.555	5.67
251.016	5.64
251.477	5.6
251.939	5.56
252.4	5.53
252.861	5.5
253.322	5.47
253.783	5.44
254.244	5.42
254.705	5.39
255.166	5.35
255.627	5.32
256.088	5.28
256.549	5.26
257.009	5.23
257.47	5.2
257.931	5.17
258.391	5.13
258.852	5.09
259.312	5.06
259.773	5.03
260.233	5
260.694	4.97
261.154	4.95
261.614	4.91
262.074	4.88
262.534	4.84
262.994	4.83
263.455	4.81
263.915	4.78
264.374	4.76
264.834	4.74
265.294	4.71
265.754	4.7
266.214	4.67
266.673	4.66
267.133	4.64
267.593	4.64
268.052	4.62
268.512	4.61
268.971	4.61
269.431	4.6
269.89	4.58
270.349	4.57
270.809	4.56
271.268	4.55
271.727	4.54
272.186	4.53
272.645	4.52
273.104	4.51
273.563	4.5
274.022	4.49
274.481	4.48
274.94	4.48
275.399	4.47
275.857	4.47
276.316	4.47
276.775	4.46
277.233	4.46
277.692	4.45
278.15	4.45
278.609	4.44
279.067	4.44
279.525	4.44
279.984	4.43
280.442	4.43
280.9	4.42
281.358	4.41
281.816	4.41
282.274	4.41
282.732	4.4
283.19	4.39
283.648	4.38
284.106	4.37
284.564	4.37
285.021	4.37
285.479	4.37
285.937	4.37
286.394	4.36
286.852	4.35
287.309	4.35
287.767	4.34
288.224	4.33
288.682	4.33
289.139	4.32
289.596	4.31
290.053	4.29
290.511	4.27
290.968	4.25
291.425	4.23
291.882	4.22
292.339	4.2
292.796	4.19
293.252	4.17
293.709	4.16
294.166	4.15
294.623	4.14
295.079	4.13
295.536	4.12
295.992	4.11
296.449	4.09
296.905	4.09
297.362	4.08
297.818	4.06
298.274	4.06
298.731	4.05
299.187	4.04
299.643	4.02
300.099	4.02
300.555	4.02
301.011	4.01
301.467	4.01
301.923	4
302.379	4
302.835	4
303.291	3.99
303.746	3.99
304.202	3.99
304.658	3.99
305.113	3.98
305.569	3.98
306.024	3.99
306.479	3.99
306.935	3.98
307.39	3.99
307.845	3.99
308.301	4
308.756	4.01
309.211	4
309.666	4.01
310.121	4.02
310.576	4.03
311.031	4.02
311.486	4.03
311.94	4.04
312.395	4.04
312.85	4.04
313.305	4.03
313.759	4.03
314.214	4.02
314.668	4.02
315.123	4.01
315.577	4.01
316.032	4.01
316.486	4
316.94	3.99
317.394	3.99
317.849	3.97
318.303	3.96
318.757	3.95
319.211	3.95
319.665	3.94
320.119	3.93
320.572	3.91
321.026	3.91
321.48	3.9
321.934	3.89
322.387	3.88
322.841	3.88
323.295	3.88
323.748	3.87
324.202	3.87
324.655	3.87
325.108	3.86
325.562	3.86
326.015	3.86
326.468	3.86
326.921	3.86
327.374	3.86
327.827	3.86
328.28	3.85
328.733	3.85
329.186	3.84
329.639	3.84
330.092	3.85
330.545	3.84
330.997	3.84
331.45	3.85
331.903	3.85
332.355	3.86
332.808	3.87
333.26	3.87
333.713	3.87
334.165	3.88
334.617	3.88
335.069	3.88
335.522	3.89
335.974	3.91
336.426	3.91
336.878	3.91
337.33	3.91
337.782	3.92
338.234	3.92
338.686	3.92
339.137	3.93
339.589	3.92
340.041	3.92
340.493	3.91
340.944	3.89
341.396	3.88
341.847	3.86
342.299	3.84
342.75	3.82
343.201	3.8
343.653	3.79
344.104	3.77
344.555	3.75
345.006	3.74
345.457	3.73
345.908	3.73
346.359	3.71
346.81	3.71
347.261	3.7
347.712	3.7
348.163	3.7
348.613	3.7
349.064	3.7
349.515	3.71
349.965	3.71
350.416	3.7
350.866	3.69
351.317	3.7
351.767	3.7
352.217	3.7
352.668	3.7
353.118	3.71
353.568	3.7
354.018	3.7
354.468	3.7
354.918	3.7
355.368	3.71
355.818	3.72
356.268	3.71
356.718	3.71
357.168	3.72
357.617	3.71
358.067	3.71
358.517	3.73
358.966	3.74
359.416	3.75
359.865	3.75
360.315	3.76
360.764	3.76
361.213	3.76
361.663	3.76
362.112	3.77
362.561	3.78
363.01	3.78
363.459	3.77
363.908	3.76
364.357	3.76
364.806	3.76
365.255	3.76
365.703	3.76
366.152	3.76
366.601	3.76
367.05	3.77
367.498	3.76
367.947	3.77
368.395	3.78
368.844	3.79
369.292	3.79
369.74	3.8
370.189	3.79
370.637	3.79
371.085	3.8
371.533	3.79
371.981	3.79
372.429	3.79
372.877	3.79
373.325	3.78
373.773	3.78
374.221	3.78
374.669	3.77
375.116	3.77
375.564	3.77
376.012	3.77
376.459	3.77
376.907	3.79
377.354	3.78
377.801	3.78
378.249	3.78
378.696	3.78
379.143	3.78
379.591	3.78
380.038	3.78
380.485	3.78
380.932	3.79
381.379	3.8
381.826	3.78
382.273	3.79
382.72	3.79
383.166	3.79
383.613	3.8
384.06	3.79
384.506	3.79
384.953	3.8
385.4	3.81
385.846	3.82
386.292	3.82
386.739	3.83
387.185	3.84
387.631	3.85
388.078	3.86
388.524	3.86
388.97	3.88
389.416	3.89
389.862	3.9
390.308	3.91
390.754	3.92
391.2	3.93
391.645	3.95
392.091	3.96
392.537	3.98
392.983	4.01
393.428	4.02
393.874	4.04
394.319	4.05
394.765	4.06
395.21	4.06
395.655	4.07
396.101	4.08
396.546	4.09
396.991	4.11
397.436	4.12
397.881	4.13
398.326	4.16
398.771	4.18
399.216	4.2
399.661	4.22
400.106	4.25
400.551	4.26
400.995	4.27
401.44	4.27
401.885	4.27
402.329	4.28
402.774	4.29
403.218	4.3
403.663	4.31
404.107	4.32
404.551	4.33
404.995	4.35
405.44	4.35
405.884	4.38
406.328	4.4
406.772	4.42
407.216	4.43
407.66	4.46
408.104	4.45
408.547	4.47
408.991	4.49
409.435	4.49
409.879	4.5
410.322	4.52
410.766	4.53
411.209	4.55
411.653	4.58
412.096	4.6
412.54	4.61
412.983	4.63
413.426	4.65
413.869	4.67
414.312	4.71
414.756	4.73
415.199	4.75
415.642	4.76
416.085	4.77
416.527	4.75
416.97	4.76
417.413	4.77
417.856	4.77
418.298	4.76
418.741	4.75
419.184	4.74
419.626	4.75
420.069	4.75
420.511	4.75
420.953	4.75
421.396	4.77
421.838	4.78
422.28	4.8
422.722	4.82
423.164	4.83
423.606	4.85
424.048	4.87
424.49	4.88
424.932	4.89
425.374	4.89
425.816	4.88
426.258	4.86
426.699	4.85
427.141	4.83
427.582	4.83
428.024	4.85
428.465	4.86
428.907	4.85
429.348	4.84
429.789	4.83
430.231	4.85
430.672	4.88
431.113	4.91
431.554	4.94
431.995	4.96
432.436	4.97
432.877	4.98
433.318	5
433.759	5.02
434.2	5.06
434.64	5.08
435.081	5.1
435.522	5.12
435.962	5.14
436.403	5.17
436.843	5.18
437.284	5.19
437.724	5.18
438.164	5.18
438.604	5.19
439.045	5.18
439.485	5.19
439.925	5.18
440.365	5.19
440.805	5.18
441.245	5.18
441.685	5.2
442.125	5.21
442.564	5.23
443.004	5.23
443.444	5.24
443.883	5.26
444.323	5.25
444.762	5.27
445.202	5.28
445.641	5.29
446.081	5.3
446.52	5.3
446.959	5.33
447.398	5.34
447.837	5.34
448.276	5.34
448.716	5.35
449.154	5.38
449.593	5.37
450.032	5.36
450.471	5.37
450.91	5.35
451.349	5.35
451.787	5.33
452.226	5.32
452.664	5.3
453.103	5.29
453.541	5.29
453.98	5.29
454.418	5.26
454.856	5.24
455.295	5.23
455.733	5.21
456.171	5.19
456.609	5.18
457.047	5.16
457.485	5.15
457.923	5.14
458.361	5.12
458.798	5.1
459.236	5.1
459.674	5.1
460.111	5.08
460.549	5.1
460.987	5.11
461.424	5.11
461.862	5.11
462.299	5.11
462.736	5.11
463.173	5.11
463.611	5.13
464.048	5.14
464.485	5.15
464.922	5.15
465.359	5.16
465.796	5.16
466.233	5.16
466.67	5.17
467.106	5.19
467.543	5.19
467.98	5.19
468.416	5.19
468.853	5.19
469.29	5.19
469.726	5.2
470.162	5.19
470.599	5.19
471.035	5.19
471.471	5.19
471.907	5.18
472.344	5.19
472.78	5.21
473.216	5.19
473.652	5.2
474.088	5.18
474.523	5.17
474.959	5.17
475.395	5.14
475.831	5.13
476.266	5.13
476.702	5.12
477.138	5.11
477.573	5.09
478.008	5.1
478.444	5.07
478.879	5.07
479.314	5.06
479.75	5.05
480.185	5.04
480.62	5.03
481.055	5.02
481.49	5.01
481.925	5.01
482.36	5
482.795	4.99
483.229	4.99
483.664	5
484.099	4.99
484.534	5
484.968	5
485.403	5
485.837	4.99
486.271	4.99
486.706	4.99
487.14	4.98
487.574	5
488.009	5.01
488.443	5.01
488.877	5.02
489.311	5.03
489.745	5.04
490.179	5.06
490.613	5.08
491.046	5.1
491.48	5.12
491.914	5.16
492.348	5.18
492.781	5.2
493.215	5.23
493.648	5.27
494.082	5.31
494.515	5.33
494.948	5.37
495.382	5.4
495.815	5.45
496.248	5.49
496.681	5.52
497.114	5.57
497.547	5.61
497.98	5.65
498.413	5.68
498.846	5.73
499.279	5.78
499.711	5.83
500.144	5.88
500.577	5.93
501.009	6
501.442	6.06
501.874	6.12
502.306	6.19
502.739	6.27
503.171	6.34
503.603	6.42
504.036	6.5
504.468	6.58
504.9	6.65
505.332	6.74
505.764	6.82
506.196	6.91
506.627	7
507.059	7.1
507.491	7.19
507.923	7.29
508.354	7.4
508.786	7.51
509.217	7.63
509.649	7.75
510.08	7.87
510.512	7.99
510.943	8.11
511.374	8.22
511.805	8.35
512.237	8.47
512.668	8.61
513.099	8.73
513.53	8.86
513.961	8.99
514.391	9.13
514.822	9.25
515.253	9.39
515.684	9.52
516.114	9.66
516.545	9.79
516.975	9.92
517.406	10.04
517.836	10.17
518.267	10.3
518.697	10.42
519.127	10.54
519.558	10.66
519.988	10.78
520.418	10.89
520.848	11.01
521.278	11.13
521.708	11.34
522.138	11.46
522.567	11.57
522.997	11.67
523.427	11.78
523.857	11.89
524.286	12
524.716	12.1
525.145	12.2
525.575	12.29
526.004	12.39
526.433	12.38
526.863	12.48
527.292	12.56
527.721	12.64
528.15	12.72
528.579	12.81
529.008	12.88
529.437	12.95
529.866	13.01
530.295	13.08
530.724	13.14
531.152	13.2
531.581	13.26
532.01	13.33
532.438	13.39
532.867	13.44
533.295	13.49
533.723	13.53
534.152	13.58
534.58	13.63
535.008	13.67
535.436	13.7
535.865	13.74
536.293	13.76
536.721	13.79
537.149	13.83
537.576	13.85
538.004	13.88
538.432	13.91
538.86	13.93
539.287	13.95
539.715	13.98
540.143	14.01
540.57	14.03
540.998	14.06
541.425	14.07
541.852	14.08
542.28	14.11
542.707	14.12
543.134	14.14
543.561	14.18
543.988	14.2
544.415	14.22
544.842	14.24
545.269	14.25
545.696	14.28
546.123	14.31
546.549	14.34
546.976	14.36
547.403	14.4
547.829	14.42
548.256	14.45
548.682	14.48
549.108	14.51
549.535	14.54
549.961	14.57
550.387	14.58
550.813	14.6
551.24	14.62
551.666	14.63
552.092	14.64
552.518	14.64
552.943	14.65
553.369	14.66
553.795	14.65
554.221	14.65
554.646	14.65
555.072	14.66
555.498	14.66
555.923	14.65
556.349	14.64
556.774	14.63
557.199	14.63
557.625	14.62
558.05	14.6
558.475	14.58
558.9	14.56
559.325	14.53
559.75	14.5
560.175	14.47
560.6	14.43
561.025	14.41
561.449	14.38
561.874	14.33
562.299	14.28
562.723	14.24
563.148	14.2
563.572	14.14
563.997	14.1
564.421	14.04
564.846	13.99
565.27	13.93
565.694	13.88
566.118	13.82
566.542	13.76
566.966	13.7
567.39	13.64
567.814	13.59
568.238	13.52
568.662	13.46
569.086	13.4
569.509	13.35
569.933	13.3
570.357	13.23
570.78	13.16
571.204	13.09
571.627	13.05
572.05	12.99
572.474	12.94
572.897	12.89
573.32	12.84
573.743	12.8
574.166	12.76
574.589	12.72
575.012	12.68
575.435	12.65
575.858	12.62
576.281	12.57
576.704	12.55
577.126	12.51
577.549	12.49
577.972	12.46
578.394	12.42
578.817	12.37
579.239	12.35
579.661	12.32
580.084	12.3
580.506	12.28
580.928	12.26
581.35	12.24
581.772	12.22
582.194	12.19
582.616	12.17
583.038	12.14
583.46	12.13
583.882	12.1
584.303	12.07
584.725	12.04
585.147	12
585.568	11.98
585.99	11.96
586.411	11.93
586.833	11.9
587.254	11.87
587.675	11.84
588.096	11.82
588.518	11.8
588.939	11.8
589.36	11.78
589.781	11.76
590.202	11.74
590.623	11.72
591.043	11.7
591.464	11.69
591.885	11.66
592.305	11.65
592.726	11.64
593.147	11.61
593.567	11.58
593.987	11.56
594.408	11.55
594.828	11.52
595.248	11.5
595.669	11.5
596.089	11.48
596.509	11.46
596.929	11.44
597.349	11.42
597.769	11.41
598.189	11.39
598.608	11.37
599.028	11.36
599.448	11.35
599.867	11.33
600.287	11.3
600.706	11.29
601.126	11.28
601.545	11.26
601.965	11.25
602.384	11.24
602.803	11.23
603.222	11.21
603.641	11.19
604.061	11.18
604.48	11.17
604.898	11.15
605.317	11.13
605.736	11.11
606.155	11.1
606.574	11.07
606.992	11.04
607.411	11.02
607.829	10.96
608.248	10.92
608.666	10.89
609.085	10.87
609.503	10.86
609.921	10.83
610.339	10.81
610.758	10.79
611.176	10.76
611.594	10.74
612.012	10.72
612.43	10.72
612.847	10.71
613.265	10.68
613.683	10.66
614.101	10.63
614.518	10.61
614.936	10.59
615.353	10.57
615.771	10.55
616.188	10.52
616.606	10.5
617.023	10.49
617.44	10.48
617.857	10.45
618.274	10.43
618.691	10.4
619.108	10.39
619.525	10.37
619.942	10.36
620.359	10.35
620.776	10.33
621.192	10.32
621.609	10.31
622.026	10.3
622.442	10.31
622.859	10.31
623.275	10.31
623.691	10.3
624.108	10.3
624.524	10.3
624.94	10.29
625.356	10.3
625.772	10.29
626.188	10.31
626.604	10.3
627.02	10.3
627.436	10.29
627.852	10.28
628.268	10.27
628.683	10.27
629.099	10.27
629.514	10.26
629.93	10.26
630.345	10.24
630.761	10.2
631.176	10.19
631.591	10.17
632.007	10.15
632.422	10.13
632.837	10.1
633.252	10.06
633.667	10
634.082	9.95
634.497	9.89
634.911	9.85
635.326	9.79
635.741	9.74
636.155	9.66
636.57	9.59
636.984	9.51
637.399	9.43
637.813	9.36
638.228	9.28
638.642	9.2
639.056	9.12
639.47	9.04
639.884	8.96
640.298	8.87
640.712	8.79
641.126	8.72
641.54	8.63
641.954	8.55
642.368	8.48
642.781	8.42
643.195	8.35
643.609	8.28
644.022	8.21
644.436	8.15
644.849	8.09
645.262	8.03
645.676	7.98
646.089	7.94
646.502	7.9
646.915	7.86
647.328	7.82
647.741	7.79
648.154	7.76
648.567	7.74
648.98	7.72
649.393	7.7
649.805	7.71
650.218	7.69
650.631	7.69
651.043	7.68
651.456	7.68
651.868	7.66
652.28	7.66
652.693	7.66
653.105	7.65
653.517	7.64
653.929	7.63
654.341	7.6
654.753	7.58
655.165	7.55
655.577	7.54
655.989	7.52
656.401	7.49
656.813	7.47
657.224	7.43
657.636	7.4
658.047	7.38
658.459	7.35
658.87	7.32
659.282	7.29
659.693	7.26
660.104	7.23
660.515	7.19
660.926	7.16
661.338	7.12
661.749	7.09
662.159	7.06
662.57	7.03
662.981	7
663.392	6.97
663.803	6.95
664.213	6.92
664.624	6.88
665.035	6.86
665.445	6.85
665.855	6.83
666.266	6.82
666.676	6.82
667.086	6.8
667.497	6.79
667.907	6.79
668.317	6.78
668.727	6.77
669.137	6.78
669.547	6.79
669.956	6.79
670.366	6.79
670.776	6.8
671.186	6.8
671.595	6.81
672.005	6.83
672.414	6.85
672.824	6.87
673.233	6.89
673.642	6.91
674.052	6.93
674.461	6.95
674.87	6.98
675.279	7
675.688	7.03
676.097	7.06
676.506	7.09
676.915	7.12
677.323	7.15
677.732	7.19
678.141	7.23
678.549	7.28
678.958	7.34
679.366	7.4
679.775	7.46
680.183	7.54
680.592	7.63
681	7.72
681.408	7.83
681.816	7.94
682.224	8.06
682.632	8.2
683.04	8.33
683.448	8.48
683.856	8.63
684.264	8.81
684.671	8.98
685.079	9.17
685.487	9.37
685.894	9.6
686.302	9.83
686.709	10.09
687.116	10.34
687.524	10.62
687.931	10.92
688.338	11.22
688.745	11.52
689.152	11.84
689.559	12.17
689.966	12.5
690.373	12.84
690.78	13.18
691.187	13.52
691.593	13.87
692	14.21
692.407	14.56
692.813	14.9
693.22	15.25
693.626	15.61
694.032	15.97
694.439	16.32
694.845	16.66
695.251	17
695.657	17.34
696.063	17.67
696.469	18.01
696.875	18.34
697.281	18.67
697.687	18.99
698.093	19.28
698.498	19.57
698.904	19.86
699.31	20.16
699.715	20.44
700.12	20.71
700.526	20.96
700.931	21.21
701.337	21.46
701.742	21.69
702.147	21.92
702.552	22.16
702.957	22.37
703.362	22.59
703.767	22.8
704.172	22.98
704.577	23.18
704.981	23.38
705.386	23.57
705.791	23.77
706.195	23.95
706.6	24.13
707.004	24.3
707.408	24.49
707.813	24.66
708.217	24.81
708.621	24.99
709.025	25.14
709.43	25.29
709.834	25.44
710.237	25.59
710.641	25.74
711.045	25.88
711.449	26.04
711.853	26.19
712.256	26.33
712.66	26.49
713.064	26.63
713.467	26.77
713.87	26.93
714.274	27.07
714.677	27.19
715.08	27.33
715.484	27.46
715.887	27.59
716.29	27.7
716.693	27.82
717.096	27.94
717.499	28.06
717.901	28.17
718.304	28.28
718.707	28.39
719.109	28.51
719.512	28.61
719.915	28.71
720.317	28.79
720.719	28.87
721.122	28.96
721.524	29.05
721.926	29.14
722.328	29.25
722.731	29.33
723.133	29.41
723.535	29.49
723.937	29.56
724.338	29.63
724.74	29.73
725.142	29.86
725.544	29.9
725.945	29.98
726.347	30.03
726.748	30.08
727.15	30.12
727.551	30.19
727.952	30.24
728.354	30.29
728.755	30.34
729.156	30.37
729.557	30.39
729.958	30.44
730.359	30.47
730.76	30.51
731.161	30.55
731.562	30.61
731.962	30.63
732.363	30.68
732.763	30.74
733.164	30.79
733.564	30.85
733.965	30.88
734.365	30.94
734.766	30.99
735.166	31.02
735.566	31.06
735.966	31.12
736.366	31.13
736.766	31.14
737.166	31.16
737.566	31.18
737.966	31.18
738.365	31.21
738.765	31.25
739.165	31.27
739.564	31.3
739.964	31.32
740.363	31.32
740.763	31.34
741.162	31.38
741.561	31.42
741.96	31.43
742.36	31.47
742.759	31.48
743.158	31.48
743.557	31.5
743.955	31.53
744.354	31.57
744.753	31.62
745.152	31.68
745.55	31.71
745.949	31.73
746.348	31.77
746.746	31.78
747.144	31.84
747.543	31.85
747.941	31.9
748.339	31.89
748.737	31.9
749.136	31.91
749.534	31.9
749.932	31.93
750.33	31.94
750.727	31.94
751.125	31.94
751.523	31.94
751.921	31.95
752.318	31.98
752.716	31.97
753.113	31.98
753.511	31.99
753.908	32.01
754.305	32.01
754.703	31.98
755.1	32.01
755.497	32
755.894	31.98
756.291	31.99
756.688	31.95
757.085	31.98
757.482	31.97
757.878	31.96
758.275	31.95
758.672	31.93
759.068	31.97
759.465	31.95
759.861	31.96
760.258	31.97
760.654	31.97
761.05	32
761.447	31.99
761.843	32.01
762.239	32.02
762.635	32.02
763.031	32.05
763.427	32.04
763.822	32.06
764.218	32.07
764.614	32.09
765.01	32.09
765.405	32.1
765.801	32.09
766.196	32.11
766.592	32.12
766.987	32.12
767.382	32.13
767.778	32.15
768.173	32.16
768.568	32.16
768.963	32.17
769.358	32.21
769.753	32.21
770.148	32.23
770.542	32.24
770.937	32.27
771.332	32.28
771.726	32.28
772.121	32.31
772.515	32.33
772.91	32.35
773.304	32.37
773.699	32.37
774.093	32.37
774.487	32.4
774.881	32.43
775.275	32.43
775.669	32.42
776.063	32.44
776.457	32.45
776.851	32.46
777.245	32.46
777.638	32.47
778.032	32.5
778.425	32.53
778.819	32.53
779.212	32.52
779.606	32.53
779.999	32.58
780.392	32.61
780.786	32.6
781.179	32.62
781.572	32.65
781.965	32.67
782.358	32.68
782.751	32.68
783.143	32.7
783.536	32.74
783.929	32.76
784.322	32.76
784.714	32.76
785.107	32.79
785.499	32.8
785.891	32.83
786.284	32.83
786.676	32.85
787.068	32.87
787.46	32.89
787.852	32.9
788.245	32.9
788.636	32.9
789.028	32.9
789.42	32.92
789.812	32.91
790.204	32.89
790.595	32.91
790.987	32.93
791.378	32.97
791.77	32.97
792.161	32.97
792.553	33
792.944	33.04
793.335	33.09
793.726	33.11
794.117	33.12
794.508	33.11
794.899	33.12
795.29	33.1
795.681	33.1
796.072	33.11
796.463	33.12
796.853	33.13
797.244	33.11
797.634	33.1
798.025	33.14
798.415	33.17
798.806	33.19
799.196	33.21
799.586	33.25
799.976	33.28
800.366	33.28
800.756	33.31
801.146	33.33
801.536	33.37
801.926	33.38
802.316	33.38
802.706	33.39
803.095	33.4
803.485	33.41
803.874	33.4
804.264	33.4
804.653	33.44
805.043	33.43
805.432	33.42
805.821	33.43
806.21	33.45
806.599	33.44
806.988	33.45
807.377	33.48
807.766	33.49
808.155	33.49
808.544	33.49
808.933	33.49
809.321	33.5
809.71	33.53
810.098	33.56
810.487	33.55
810.875	33.55
811.264	33.52
811.652	33.54
812.04	33.56
812.428	33.61
812.816	33.64
813.204	33.64
813.592	33.63
813.98	33.64
814.368	33.64
814.756	33.65
815.144	33.67
815.531	33.69
815.919	33.69
816.306	33.67
816.694	33.66
817.081	33.67
817.469	33.69
817.856	33.71
818.243	33.69
818.63	33.7
819.017	33.71
819.404	33.7
819.791	33.71
820.178	33.72
820.565	33.72
820.952	33.72
821.339	33.71
821.725	33.74
822.112	33.75
822.498	33.78
822.885	33.77
823.271	33.79
823.657	33.77
824.044	33.8
824.43	33.79
824.816	33.79
825.202	33.81
825.588	33.8
825.974	33.76
826.36	33.75
826.746	33.73
827.132	33.72
827.517	33.7
827.903	33.72
828.289	33.69
828.674	33.69
829.06	33.7
829.445	33.67
829.83	33.65
830.216	33.66
830.601	33.65
830.986	33.63
831.371	33.62
831.756	33.6
832.141	33.59
832.526	33.6
832.911	33.57
833.295	33.54
833.68	33.54
834.065	33.53
834.449	33.51
834.834	33.5
835.218	33.49
835.603	33.48
835.987	33.48
836.371	33.47
836.755	33.44
837.139	33.43
837.524	33.43
837.908	33.45
838.291	33.47
838.675	33.47
839.059	33.48
839.443	33.47
839.827	33.49
840.21	33.49
840.594	33.49
840.977	33.49
841.361	33.5
841.744	33.48
842.127	33.45
842.511	33.43
842.894	33.42
843.277	33.4
843.66	33.4
844.043	33.38
844.426	33.37
844.809	33.38
845.191	33.41
845.574	33.41
845.957	33.45
846.339	33.46
846.722	33.47
847.104	33.48
847.487	33.48
847.869	33.48
848.252	33.5
848.634	33.51
849.016	33.52
849.398	33.51
849.78	33.5
850.162	33.47
850.544	33.47
850.926	33.46
851.307	33.47
851.689	33.47
852.071	33.5
852.452	33.52
852.834	33.54
853.215	33.53
853.597	33.52
853.978	33.53
854.359	33.55
854.741	33.56
855.122	33.58
855.503	33.57
855.884	33.57
856.265	33.57
856.646	33.55
857.026	33.55
857.407	33.56
857.788	33.56
858.169	33.59
858.549	33.59
858.93	33.58
859.31	33.58
859.69	33.59
860.071	33.61
860.451	33.62
860.831	33.64
861.211	33.62
861.591	33.61
861.971	33.63
862.351	33.63
862.731	33.65
863.111	33.67
863.491	33.67
863.87	33.68
864.25	33.66
864.629	33.67
865.009	33.69
865.388	33.7
865.768	33.71
866.147	33.7
866.526	33.68
866.905	33.67
867.284	33.67
867.663	33.67
868.042	33.7
868.421	33.71
868.8	33.71
869.179	33.67
869.558	33.67
869.936	33.66
870.315	33.68
870.693	33.68
871.072	33.71
871.45	33.71
871.828	33.72
872.207	33.73
872.585	33.72
872.963	33.74
873.341	33.76
873.719	33.78
874.097	33.82
874.475	33.82
874.853	33.84
875.23	33.82
875.608	33.84
875.986	33.88
876.363	33.88
876.741	33.9
877.118	33.89
877.495	33.91
877.873	33.93
878.25	33.93
878.627	33.96
879.004	33.96
879.381	33.99
879.758	33.98
880.135	33.95
880.512	33.95
880.889	33.95
881.265	33.93
881.642	33.92
882.019	33.91
882.395	33.88
882.772	33.86
883.148	33.85
883.524	33.83
883.901	33.84
884.277	33.83
884.653	33.82
885.029	33.81
885.405	33.82
885.781	33.82
886.157	33.83
886.532	33.85
886.908	33.83
887.284	33.84
887.659	33.82
888.035	33.78
888.411	33.77
888.786	33.76
889.161	33.75
889.537	33.75
889.912	33.73
890.287	33.71
890.662	33.68
891.037	33.68
891.412	33.66
891.787	33.65
892.162	33.65
892.536	33.64
892.911	33.63
893.286	33.62
893.66	33.59
894.035	33.58
894.409	33.55
894.784	33.56
895.158	33.54
895.532	33.53
895.906	33.53
896.281	33.53
896.655	33.54
897.029	33.54
897.402	33.55
897.776	33.56
898.15	33.56
898.524	33.6
898.898	33.6
899.271	33.61
899.645	33.63
900.018	33.66
900.392	33.67
900.765	33.71
901.138	33.72
901.511	33.72
901.884	33.74
902.258	33.76
902.631	33.77
903.003	33.79
903.376	33.82
903.749	33.82
904.122	33.84
904.495	33.88
904.867	33.89
905.24	33.92
905.612	33.92
905.985	33.93
906.357	33.93
906.729	33.94
907.102	33.94
907.474	33.95
907.846	33.97
908.218	33.98
908.59	33.97
908.962	33.98
909.334	34.01
909.705	34.04
910.077	34.07
910.449	34.09
910.82	34.09
911.192	34.1
911.563	34.11
911.935	34.12
912.306	34.14
912.677	34.15
913.048	34.18
913.419	34.17
913.79	34.19
914.161	34.2
914.532	34.22
914.903	34.26
915.274	34.29
915.645	34.33
916.015	34.34
916.386	34.34
916.756	34.36
917.127	34.37
917.497	34.37
917.868	34.37
918.238	34.38
918.608	34.41
918.978	34.41
919.348	34.43
919.718	34.4
920.088	34.44
920.458	34.44
920.828	34.42
921.198	34.4
921.567	34.41
921.937	34.44
922.306	34.46
922.676	34.46
923.045	34.45
923.415	34.43
923.784	34.44
924.153	34.43
924.522	34.45
924.891	34.5
925.26	34.52
925.629	34.56
925.998	34.58
926.367	34.6
926.736	34.6
927.104	34.6
927.473	34.6
927.842	34.62
928.21	34.64
928.578	34.63
928.947	34.64
929.315	34.64
929.683	34.61
930.051	34.56
930.42	34.54
930.788	34.52
931.156	34.52
931.523	34.54
931.891	34.57
932.259	34.58
932.627	34.61
932.994	34.61
933.362	34.62
933.729	34.66
934.097	34.68
934.464	34.7
934.831	34.74
935.199	34.77
935.566	34.8
935.933	34.84
936.3	34.84
936.667	34.85
937.034	34.86
937.401	34.92
937.767	34.94
938.134	34.99
938.501	35.02
938.867	35.08
939.234	35.13
939.6	35.17
939.967	35.15
940.333	35.16
940.699	35.21
941.065	35.21
941.431	35.21
941.798	35.22
942.163	35.21
942.529	35.2
942.895	35.25
943.261	35.22
943.627	35.24
943.992	35.25
944.358	35.25
944.723	35.24
945.089	35.26
945.454	35.24
945.82	35.23
946.185	35.29
946.55	35.28
946.915	35.23
947.28	35.26
947.645	35.26
948.01	35.3
948.375	35.31
948.74	35.28
949.104	35.29
949.469	35.28
949.834	35.25
950.198	35.21
950.562	35.18
950.927	35.15
951.291	35.04
951.655	34.99
952.02	34.93
952.384	34.92
952.748	34.9
953.112	34.86
953.476	34.82
953.839	34.8
954.203	34.77
954.567	34.76
954.931	34.75
955.294	34.76
955.658	34.79
956.021	34.73
956.385	34.71
956.748	34.71
957.111	34.66
957.474	34.69
957.837	34.65
958.2	34.6
958.563	34.57
958.926	34.57
959.289	34.6
959.652	34.53
960.015	34.54
960.377	34.55
960.74	34.53
961.102	34.58
961.465	34.57
961.827	34.61
962.189	34.66
962.552	34.69
962.914	34.68
963.276	34.69
963.638	34.69
964	34.73
964.362	34.75
964.724	34.76
965.085	34.74
965.447	34.73
965.809	34.76
966.17	34.79
966.532	34.78
966.893	34.82
967.255	34.83
967.616	34.93
967.977	34.97
968.338	34.96
968.699	34.96
969.061	34.95
969.421	34.98
969.782	34.96
970.143	34.98
970.504	35.02
970.865	35.03
971.225	35.01
971.586	34.93
971.946	34.9
972.307	34.9
972.667	34.92
973.027	34.98
973.388	35.03
973.748	35.08
974.108	35.13
974.468	35.11
974.828	35.18
975.188	35.22
975.548	35.29
975.907	35.3
976.267	35.29
976.627	35.36
976.986	35.33
977.346	35.27
977.705	35.27
978.064	35.24
978.424	35.29
978.783	35.2
979.142	35.22
979.501	35.25
979.86	35.29
980.219	35.36
980.578	35.42
980.937	35.46
981.296	35.55
981.654	35.57
982.013	35.6
982.371	35.59
982.73	35.67
983.088	35.67
983.447	35.62
983.805	35.62
984.163	35.66
984.521	35.63
984.879	35.64
985.237	35.67
985.595	35.74
985.953	35.72
986.311	35.74
986.669	35.75
987.026	35.8
987.384	35.88
987.741	35.88
988.099	35.91
988.456	35.88
988.814	35.91
989.171	35.94
989.528	35.95
989.885	35.96
990.242	35.97
990.599	36.04
990.956	36.11
991.313	36.1
991.67	36.17
992.027	36.29
992.383	36.4
992.74	36.51
993.096	36.47
993.453	36.52
993.809	36.71
994.165	36.82
994.522	36.86
994.878	36.88
995.234	36.99
995.59	37.09
995.946	37.04
996.302	37.04
996.658	37.14
997.013	37.26
997.369	37.28
997.725	37.24
998.08	37.31
998.436	37.39
998.791	37.44
999.147	37.34
999.502	37.39
999.857	37.42
1000.212	37.42
1000.567	37.38
1000.922	37.33
1001.277	37.37
1001.632	37.33
1001.987	37.32
1002.342	37.3
1002.696	37.36
1003.051	37.62
1003.406	37.66
1003.76	37.76
1004.114	37.88
1004.469	38
1004.823	38.37
1005.177	38.4
1005.531	38.56
1005.885	38.66
1006.239	38.82
1006.593	38.86
1006.947	38.93
1007.301	39
1007.655	39.1
1008.008	39.3
1008.362	39.43
1008.715	39.29
1009.069	39.48
1009.422	39.55
1009.776	39.62
1010.129	39.53
1010.482	39.59
1010.835	39.64
1011.188	39.77
1011.541	39.75
1011.894	39.65
1012.247	39.61
1012.6	39.69
1012.952	39.78
1013.305	39.9
1013.657	39.93
1014.01	40.15
1014.362	40.27
1014.715	40.42
1015.067	40.41
1015.419	40.68
1015.771	40.68
1016.123	40.93
1016.475	40.95
1016.827	41.1
1017.179	41.24
1017.531	41.55
1017.883	41.58
1018.234	41.69
1018.586	41.66
1018.938	41.86
1019.289	41.97
1019.64	42.23
1019.992	42.18
1020.343	42.21
1020.694	41.97
1021.045	42.2
1021.396	42.11
1021.747	42.37
1022.098	42.56
1022.449	42.59
1022.8	42.72
1023.151	42.69
1023.501	42.89
1023.852	43.17
1024.202	43.23
1024.553	43.43
1024.903	43.32
1025.253	43.47
1025.604	43.48
1025.954	43.37
1026.304	43.7
1026.654	43.71
1027.004	43.67
1027.354	43.72
1027.703	43.51
1028.053	44.02
1028.403	44.25
1028.753	44.18
1029.102	44.48
1029.452	44.79
1029.801	45.27
1030.15	45.23
1030.499	45.29
897.758	929.93
901.051	934.43
904.343	936.86
907.636	950.98
910.928	927.28
914.22	923.36
917.511	912.4
920.803	874.74
924.094	870.77
927.384	852.72
930.675	820.5
933.965	817.16
937.255	769.3
940.544	736.7
943.834	707.45
947.123	700.47
950.411	660.74
953.7	647.04
956.988	612.9
960.276	587.48
963.563	579.44
966.851	556.41
970.138	551.08
973.424	535.7
976.711	540.62
979.997	509.81
983.283	508.1
986.568	499.43
989.853	485.29
993.138	474.84
996.423	459.92
999.708	446.92
1002.992	441.77
1006.275	423.87
1009.559	420.66
1012.842	403.39
1016.125	394.88
1019.408	386.13
1022.69	382.91
1025.972	373.75
1029.254	365.41
1032.536	357.69
1035.817	352.6
1039.098	348.07
1042.379	341.19
1045.659	336.82
1048.939	328.59
1052.219	322.63
1055.498	319.49
1058.778	310.75
1062.057	305.85
1065.335	303.42
1068.614	300.47
1071.892	295.42
1075.17	287.82
1078.447	283.02
1081.724	280.77
1085.001	279.19
1088.278	273.01
1091.554	267.81
1094.83	268.96
1098.106	265.99
1101.382	263.12
1104.657	261.14
1107.932	258.13
1111.206	259.17
1114.481	252.52
1117.755	250.86
1121.029	248.88
1124.302	248.61
1127.575	244.82
1130.848	241.2
1134.121	239.75
1137.393	238.76
1140.665	234.1
1143.937	231.19
1147.208	230.74
1150.48	229.94
1153.75	225.99
1157.021	223.67
1160.291	224.05
1163.561	220.11
1166.831	220.14
1170.101	217.96
1173.37	217.89
1176.639	217.87
1179.907	216.92
1183.176	213.6
1186.444	213.67
1189.711	214.09
1192.979	213.39
1196.246	211.68
1199.513	212.97
1202.78	211.46
1206.046	211.59
1209.312	209.22
1212.578	209.56
1215.843	210.52
1219.108	210
1222.373	213.59
1225.638	214.39
1228.902	216.98
1232.166	217.19
1235.43	218.53
1238.693	221.89
1241.956	223.24
1245.219	226.24
1248.482	226.61
1251.744	226.97
1255.006	227.26
1258.268	223.25
1261.529	221.82
1264.79	220.75
1268.051	219
1271.312	216.99
1274.572	213.85
1277.832	212.16
1281.092	208.32
1284.351	207.06
1287.61	206.85
1290.869	203.67
1294.128	201.85
1297.386	201.62
1300.644	199.31
1303.902	200.67
1307.159	200.28
1310.416	200.16
1313.673	198.67
1316.93	201.41
1320.186	200.94
1323.442	201.45
1326.697	204.84
1329.953	205.51
1333.208	205.96
1336.463	208.47
1339.717	208.61
1342.972	210.66
1346.226	211.94
1349.479	213.29
1352.733	214.22
1355.986	215.82
1359.238	214.98
1362.491	215.08
1365.743	216.9
1368.995	217.57
1372.247	216.53
1375.498	216.55
1378.749	216.52
1382	215.42
1385.251	215.57
1388.501	213.55
1391.751	212.72
1395	212.58
1398.25	211.07
1401.499	209.49
1404.748	208.73
1407.996	206.33
1411.244	205.43
1414.492	204.29
1417.74	200.98
1420.987	198.56
1424.234	198.73
1427.481	196.96
1430.728	196.44
1433.974	194.68
1437.22	192.49
1440.465	191.83
1443.711	190.08
1446.956	189.03
1450.201	186.78
1453.445	186.27
1456.689	184.92
1459.933	181.97
1463.177	179.5
1466.42	177.43
1469.663	175.74
1472.906	174.76
1476.148	170.04
1479.391	168.62
1482.633	167.02
1485.874	165.18
1489.115	163.44
1492.356	162.17
1495.597	161.4
1498.838	159.9
1502.078	158.4
1505.318	157.65
1508.557	157.89
1511.797	157.99
1515.036	156.26
1518.274	156.16
1521.513	155.23
1524.751	154.69
1527.989	154.09
1531.227	153.72
1534.464	154.08
1537.701	153.79
1540.938	153.21
1544.174	151.04
1547.41	151.69
1550.646	151.45
1553.882	150.57
1557.117	149.06
1560.352	148.63
1563.587	148.57
1566.821	147.5
1570.055	146.78
1573.289	145.24
1576.523	145.41
1579.756	144.63
1582.989	143.44
1586.222	143.58
1589.454	143.22
1592.686	143.75
1595.918	143.42
1599.15	142.74
1602.381	143.5
1605.612	142.65
1608.843	142.88
1612.073	143.08
1615.303	144.29
1618.533	143.9
1621.762	144.22
1624.992	144.54
1628.221	144.51
1631.449	143.97
1634.678	144.04
1637.906	144.5
1641.134	144.33
1644.361	144.37
1647.588	144.6
1650.815	143.93
1654.042	144.29
1657.269	144.21
1660.495	144.18
1663.72	143.99
1666.946	144.67
1670.171	145.08
1673.396	144.51
1676.621	144.28
1679.845	145.23
1683.069	145.2
1686.293	145.39
1689.517	145.92
1692.74	146
1695.963	146.7
1699.185	147.9
1702.408	148.04
1705.63	148.03
1708.852	148.57
1712.073	149.33
1715.294	148.96
1718.515	149.88
1721.736	150.05
1724.956	150.31
1728.176	150.28
1731.396	151.03
1734.616	149.88
1737.835	150.65
1741.054	149.75
1744.272	149.85
1747.491	151.48
1750.709	152.01
1753.927	151.45
1757.144	151.14
1760.361	151.34
1763.578	151.72
1766.795	150.86
1770.011	153.24
1773.227	152.25
1776.443	154.35
1779.658	154.84
1782.874	154.46
1786.089	153.91
1789.303	154.43
1792.518	156.45
1795.732	156.37
1798.945	157.65
1802.159	158.15
1805.372	157.37
1808.585	160.67
1811.797	160.5
1815.01	161.38
1818.222	162.33
1821.434	164.6
1824.645	164.87
1827.856	167.02
1831.067	167.98
1834.278	167.82
1837.488	169.56
1840.698	170.31
1843.908	168.7
1847.117	169.72
1850.326	170.45
1853.535	169.72
1856.744	171.6
1859.952	171.75
1863.16	170.51
1866.368	169.84
1869.575	170.82
1872.782	167.87
1875.989	167.93
1879.196	167.61
1882.402	166.12
1885.608	165.99
1888.814	166.06
1892.019	164.87
1895.224	163.72
1898.429	163.88
1901.634	164.33
1904.838	164.39
1908.042	165.54
1911.246	165.86
1914.449	166.2
1917.652	166.63
1920.855	165.8
1924.058	167.22
1927.26	166.55
1930.462	167.02
1933.664	167.89
1936.865	166.86
1940.066	166.28
1943.267	165.71
1946.467	165.85
1949.668	166.5
1952.868	169.11
1956.067	170.27
1959.267	169.04
1962.466	169.96
1965.665	169.7
1968.863	170.2
1972.061	173.28
1975.259	175.06
1978.457	175.65
1981.654	177.48
1984.852	178.16
1988.048	176.95
1991.245	178.93
1994.441	180.4
1997.637	182.14
2000.833	185.26
2004.028	187.55
2007.223	187.59
2010.418	189.46
2013.613	193.58
2016.807	194.52
2020.001	196.17
2023.194	199.99
2026.388	203.3
2029.581	209.26
2032.774	210.07
2035.966	214.36
2039.158	214.81
2042.35	218.75
2045.542	219.63
2048.733	223.84
2051.924	227.65
2055.115	230.65
2058.306	230.87
2061.496	233.12
2064.686	232.27
2067.875	237.07
2071.065	237.82
2074.254	236.06
2077.442	240.2
2080.631	241.17
2083.819	242.21
2087.007	241.95
2090.195	245.87
2093.382	248.07
2096.569	246.68
2099.756	250.39
2102.942	250.94
2106.128	252.68
2109.314	260.18
2112.5	258.15
2115.685	264.32
2118.87	265.52
2122.055	270.35
2125.239	271.16
2128.424	274.58
2131.608	276.05
2134.791	280.52
2137.974	281.37
2141.157	282
2144.34	281.82
2147.523	287.54
2150.705	285.77
2153.887	288.38
2157.068	289
2160.25	286.18
2163.431	287.91
2166.611	291.92
2169.792	295.56
2172.972	299.19
2176.152	302.91
2179.331	305.88
2182.511	308.69
2185.69	312.86
2188.868	319.05
2192.047	318.78
2195.225	329.34
2198.403	336.45
2201.58	341.94
2204.758	349.73
2207.935	355.29
2211.111	362.92
2214.288	366.96
2217.464	367.98
2220.64	374.79
2223.815	378.04
2226.991	395.2
2230.166	395.13
2233.34	400.3
2236.515	409.16
2239.689	408.52
2242.863	412.3
2246.036	419.24
2249.209	416.54
2252.382	426.86
2255.555	435.8
2258.727	439.47
2261.9	440.34
2265.071	445.75
2268.243	453.89
2271.414	458.73
2274.585	467.52
2277.756	471.33
2280.926	476.71
2284.096	490.53
2287.266	497.62
2290.436	502.13
2293.605	511.69
2296.774	529.28
2299.942	544.94
2303.111	549.01
2306.279	557.07
2309.447	567.12
2312.614	583.81
2315.781	598.72
2318.948	624.68
2322.115	616.75
2325.281	650.82
2328.447	640.3
2331.613	662.75
2334.779	656.12
2337.944	683.28
2341.109	692.87
2344.274	710.44
2347.438	732.74
2350.602	734.39
2353.766	754.92
2356.929	766.36
2360.092	762.74
2363.255	814.71
2366.418	814.86
2369.58	826.97
2372.742	879.19
2375.904	900.24
2379.066	893.43
2382.227	878.12
2385.388	948.84
2388.548	950.93
2391.709	961.7
2394.869	1071.31
2398.029	1023.81
2401.188	1054.45
2404.347	1051.89
2407.506	1031.95
2410.665	1068.41
2413.823	1127.24
2416.981	1189.58
2420.139	1162.03
2423.296	1143.37
2426.453	1196.09
2429.61	1154.2
2432.767	1211.13
2435.923	1194.84
2439.079	1309.59
2442.235	1334.02
2445.391	1315.67
2448.546	1308.07
2451.701	1273.26
2454.855	1262.57
2458.009	1350.42
2461.163	1398.31
2464.317	1442.24
2467.471	1480.35
2470.624	1481.66
2473.777	1442.1
2476.929	1394.27
2480.082	1346.27
2483.234	1339.06
2486.385	1411.2
2489.537	1417.24
2492.688	1461.7
2495.839	1430.59
2498.989	1391.74
2502.14	1393.39
2505.29	1410.57
2508.439	1424.52
2511.589	1424.59
2514.738	1561.12
2517.887	1525.98
2521.035	1597.09
2524.183	1625.1
2527.331	1635.73
2530.479	1619.29
2533.627	1638.58
