Data from N_3_DEC_VA_2N_Splice17_14-19-49-301.txt Node
Date: Sat Mar 07 14:19:49 EST 2020
User: sa697716
Spectrometer: NQ5500242
Trigger mode: 0
Integration Time (sec): 1.450000E-1
Scans to average: 20
Nonlinearity correction enabled: false
Boxcar width: 5
Storing dark spectrum: false
XAxis mode: Wavelengths
Number of Pixels in Spectrum: 512
>>>>>Begin Spectral Data<<<<<
187.83	74.93
188.298	99.17
188.766	77.05
189.233	72.6
189.701	73.06
190.169	104.4
190.636	98.76
191.104	71.34
191.571	-114.77
192.039	-39.88
192.506	-16.68
192.974	64.19
193.441	133.36
193.908	-10.35
194.375	41.05
194.842	37.69
195.31	91.05
195.777	8.29
196.244	65.65
196.711	78.06
197.177	83.73
197.644	84.71
198.111	85.44
198.578	86.15
199.045	87.04
199.511	86.51
199.978	86.61
200.445	86.97
200.911	87.22
201.378	87.77
201.844	88.18
202.31	87.78
202.777	87.76
203.243	87.65
203.709	87.19
204.176	86.27
204.642	85.9
205.108	85.41
205.574	84.7
206.04	83.62
206.506	82.79
206.972	82.18
207.438	81.45
207.903	80.4
208.369	78.71
208.835	77.14
209.301	75.46
209.766	73.57
210.232	71.64
210.697	69.83
211.163	68.24
211.628	66.52
212.094	64.72
212.559	63.23
213.024	61.81
213.49	60.73
213.955	59.34
214.42	58.17
214.885	56.53
215.35	54.4
215.815	51.64
216.28	48.39
216.745	44.59
217.21	40.79
217.675	37.28
218.14	34.17
218.604	31.43
219.069	29.15
219.534	27.2
219.998	25.57
220.463	24.28
220.927	23.11
221.392	22.15
221.856	21.35
222.32	20.7
222.785	20.1
223.249	19.55
223.713	19.05
224.177	18.64
224.642	18.23
225.106	17.85
225.57	17.46
226.034	17.14
226.497	16.82
226.961	16.53
227.425	16.21
227.889	15.92
228.353	15.66
228.816	15.4
229.28	15.15
229.744	14.93
230.207	14.71
230.671	14.49
231.134	14.28
231.597	14.09
232.061	13.88
232.524	13.7
232.987	13.53
233.45	13.38
233.914	13.2
234.377	13.03
234.84	12.86
235.303	12.71
235.766	12.58
236.229	12.44
236.691	12.31
237.154	12.19
237.617	12.07
238.08	11.96
238.542	11.83
239.005	11.73
239.468	11.62
239.93	11.53
240.393	11.44
240.855	11.3
241.317	11.2
241.78	11.08
242.242	10.97
242.704	10.88
243.166	10.77
243.629	10.68
244.091	10.57
244.553	10.48
245.015	10.38
245.477	10.28
245.939	10.19
246.4	10.1
246.862	10.02
247.324	9.94
247.786	9.84
248.247	9.76
248.709	9.67
249.17	9.57
249.632	9.49
250.093	9.41
250.555	9.34
251.016	9.27
251.477	9.19
251.939	9.12
252.4	9.07
252.861	9
253.322	8.94
253.783	8.89
254.244	8.84
254.705	8.78
255.166	8.74
255.627	8.69
256.088	8.64
256.549	8.59
257.009	8.54
257.47	8.49
257.931	8.44
258.391	8.37
258.852	8.32
259.312	8.27
259.773	8.22
260.233	8.17
260.694	8.12
261.154	8.06
261.614	8.02
262.074	7.96
262.534	7.91
262.994	7.87
263.455	7.83
263.915	7.79
264.374	7.76
264.834	7.72
265.294	7.68
265.754	7.65
266.214	7.62
266.673	7.59
267.133	7.57
267.593	7.55
268.052	7.52
268.512	7.5
268.971	7.48
269.431	7.45
269.89	7.43
270.349	7.42
270.809	7.39
271.268	7.38
271.727	7.36
272.186	7.34
272.645	7.32
273.104	7.3
273.563	7.27
274.022	7.26
274.481	7.25
274.94	7.23
275.399	7.21
275.857	7.2
276.316	7.17
276.775	7.16
277.233	7.15
277.692	7.14
278.15	7.13
278.609	7.12
279.067	7.1
279.525	7.09
279.984	7.08
280.442	7.07
280.9	7.05
281.358	7.04
281.816	7.04
282.274	7.03
282.732	7.01
283.19	7
283.648	6.98
284.106	6.97
284.564	6.97
285.021	6.96
285.479	6.96
285.937	6.95
286.394	6.94
286.852	6.92
287.309	6.91
287.767	6.88
288.224	6.86
288.682	6.85
289.139	6.82
289.596	6.79
290.053	6.75
290.511	6.72
290.968	6.7
291.425	6.66
291.882	6.64
292.339	6.61
292.796	6.6
293.252	6.58
293.709	6.55
294.166	6.54
294.623	6.52
295.079	6.51
295.536	6.5
295.992	6.48
296.449	6.47
296.905	6.46
297.362	6.44
297.818	6.43
298.274	6.42
298.731	6.41
299.187	6.39
299.643	6.37
300.099	6.36
300.555	6.35
301.011	6.33
301.467	6.32
301.923	6.31
302.379	6.29
302.835	6.28
303.291	6.27
303.746	6.26
304.202	6.25
304.658	6.25
305.113	6.24
305.569	6.24
306.024	6.23
306.479	6.22
306.935	6.21
307.39	6.21
307.845	6.21
308.301	6.22
308.756	6.22
309.211	6.23
309.666	6.23
310.121	6.22
310.576	6.22
311.031	6.22
311.486	6.23
311.94	6.24
312.395	6.23
312.85	6.23
313.305	6.22
313.759	6.21
314.214	6.2
314.668	6.19
315.123	6.18
315.577	6.18
316.032	6.16
316.486	6.15
316.94	6.13
317.394	6.11
317.849	6.09
318.303	6.07
318.757	6.05
319.211	6.04
319.665	6.01
320.119	6
320.572	5.98
321.026	5.96
321.48	5.94
321.934	5.93
322.387	5.92
322.841	5.9
323.295	5.9
323.748	5.89
324.202	5.88
324.655	5.88
325.108	5.87
325.562	5.86
326.015	5.87
326.468	5.86
326.921	5.86
327.374	5.85
327.827	5.85
328.28	5.85
328.733	5.85
329.186	5.84
329.639	5.83
330.092	5.83
330.545	5.83
330.997	5.83
331.45	5.83
331.903	5.82
332.355	5.84
332.808	5.84
333.26	5.84
333.713	5.84
334.165	5.84
334.617	5.85
335.069	5.85
335.522	5.86
335.974	5.86
336.426	5.86
336.878	5.87
337.33	5.86
337.782	5.86
338.234	5.87
338.686	5.87
339.137	5.88
339.589	5.87
340.041	5.86
340.493	5.84
340.944	5.82
341.396	5.81
341.847	5.79
342.299	5.77
342.75	5.74
343.201	5.72
343.653	5.69
344.104	5.66
344.555	5.64
345.006	5.63
345.457	5.61
345.908	5.6
346.359	5.59
346.81	5.58
347.261	5.58
347.712	5.57
348.163	5.56
348.613	5.56
349.064	5.55
349.515	5.55
349.965	5.55
350.416	5.54
350.866	5.54
351.317	5.53
351.767	5.53
352.217	5.52
352.668	5.52
353.118	5.52
353.568	5.5
354.018	5.51
354.468	5.51
354.918	5.5
355.368	5.52
355.818	5.52
356.268	5.51
356.718	5.51
357.168	5.51
357.617	5.51
358.067	5.52
358.517	5.53
358.966	5.54
359.416	5.54
359.865	5.54
360.315	5.54
360.764	5.54
361.213	5.54
361.663	5.53
362.112	5.54
362.561	5.54
363.01	5.55
363.459	5.54
363.908	5.53
364.357	5.52
364.806	5.51
365.255	5.52
365.703	5.52
366.152	5.52
366.601	5.53
367.05	5.53
367.498	5.52
367.947	5.52
368.395	5.52
368.844	5.52
369.292	5.51
369.74	5.52
370.189	5.51
370.637	5.5
371.085	5.49
371.533	5.49
371.981	5.48
372.429	5.48
372.877	5.47
373.325	5.48
373.773	5.47
374.221	5.47
374.669	5.45
375.116	5.45
375.564	5.44
376.012	5.44
376.459	5.44
376.907	5.45
377.354	5.45
377.801	5.45
378.249	5.45
378.696	5.44
379.143	5.44
379.591	5.45
380.038	5.46
380.485	5.47
380.932	5.48
381.379	5.48
381.826	5.47
382.273	5.48
382.72	5.47
383.166	5.46
383.613	5.47
384.06	5.45
384.506	5.45
384.953	5.45
385.4	5.46
385.846	5.46
386.292	5.47
386.739	5.47
387.185	5.48
387.631	5.49
388.078	5.51
388.524	5.52
388.97	5.53
389.416	5.55
389.862	5.56
390.308	5.58
390.754	5.59
391.2	5.61
391.645	5.63
392.091	5.66
392.537	5.69
392.983	5.7
393.428	5.73
393.874	5.75
394.319	5.77
394.765	5.78
395.21	5.79
395.655	5.81
396.101	5.85
396.546	5.87
396.991	5.9
397.436	5.92
397.881	5.96
398.326	5.99
398.771	6.02
399.216	6.06
399.661	6.1
400.106	6.13
400.551	6.14
400.995	6.15
401.44	6.16
401.885	6.18
402.329	6.19
402.774	6.2
403.218	6.22
403.663	6.25
404.107	6.26
404.551	6.27
404.995	6.28
405.44	6.29
405.884	6.31
406.328	6.34
406.772	6.34
407.216	6.37
407.66	6.37
408.104	6.38
408.547	6.38
408.991	6.4
409.435	6.42
409.879	6.44
410.322	6.47
410.766	6.49
411.209	6.53
411.653	6.56
412.096	6.58
412.54	6.61
412.983	6.64
413.426	6.68
413.869	6.7
414.312	6.74
414.756	6.77
415.199	6.78
415.642	6.81
416.085	6.82
416.527	6.83
416.97	6.84
417.413	6.83
417.856	6.82
418.298	6.8
418.741	6.79
419.184	6.78
419.626	6.77
420.069	6.77
420.511	6.77
420.953	6.76
421.396	6.77
421.838	6.78
422.28	6.8
422.722	6.83
423.164	6.85
423.606	6.87
424.048	6.88
424.49	6.9
424.932	6.91
425.374	6.89
425.816	6.87
426.258	6.85
426.699	6.82
427.141	6.81
427.582	6.8
428.024	6.81
428.465	6.82
428.907	6.82
429.348	6.8
429.789	6.8
430.231	6.83
430.672	6.86
431.113	6.9
431.554	6.92
431.995	6.94
432.436	6.94
432.877	6.94
433.318	6.94
433.759	6.97
434.2	7
434.64	7.02
435.081	7.04
435.522	7.07
435.962	7.08
436.403	7.12
436.843	7.14
437.284	7.15
437.724	7.17
438.164	7.17
438.604	7.18
439.045	7.17
439.485	7.17
439.925	7.16
440.365	7.16
440.805	7.16
441.245	7.17
441.685	7.18
442.125	7.23
442.564	7.25
443.004	7.28
443.444	7.3
443.883	7.32
444.323	7.34
444.762	7.38
445.202	7.39
445.641	7.41
446.081	7.44
446.52	7.44
446.959	7.45
447.398	7.47
447.837	7.47
448.276	7.48
448.716	7.51
449.154	7.53
449.593	7.54
450.032	7.55
450.471	7.53
450.91	7.51
451.349	7.51
451.787	7.49
452.226	7.46
452.664	7.46
453.103	7.43
453.541	7.41
453.98	7.4
454.418	7.38
454.856	7.35
455.295	7.33
455.733	7.3
456.171	7.28
456.609	7.27
457.047	7.24
457.485	7.21
457.923	7.19
458.361	7.17
458.798	7.15
459.236	7.14
459.674	7.14
460.111	7.13
460.549	7.14
460.987	7.15
461.424	7.15
461.862	7.16
462.299	7.17
462.736	7.16
463.173	7.18
463.611	7.17
464.048	7.17
464.485	7.15
464.922	7.16
465.359	7.16
465.796	7.15
466.233	7.15
466.67	7.14
467.106	7.16
467.543	7.17
467.98	7.15
468.416	7.15
468.853	7.15
469.29	7.15
469.726	7.14
470.162	7.13
470.599	7.14
471.035	7.13
471.471	7.12
471.907	7.11
472.344	7.11
472.78	7.12
473.216	7.11
473.652	7.13
474.088	7.11
474.523	7.1
474.959	7.09
475.395	7.06
475.831	7.05
476.266	7.05
476.702	7.04
477.138	7.02
477.573	7.01
478.008	7.01
478.444	6.97
478.879	6.98
479.314	6.96
479.75	6.95
480.185	6.94
480.62	6.93
481.055	6.91
481.49	6.9
481.925	6.89
482.36	6.88
482.795	6.87
483.229	6.86
483.664	6.86
484.099	6.86
484.534	6.86
484.968	6.86
485.403	6.86
485.837	6.87
486.271	6.89
486.706	6.88
487.14	6.9
487.574	6.91
488.009	6.92
488.443	6.93
488.877	6.96
489.311	6.98
489.745	7
490.179	7.03
490.613	7.06
491.046	7.09
491.48	7.13
491.914	7.17
492.348	7.21
492.781	7.26
493.215	7.3
493.648	7.36
494.082	7.41
494.515	7.47
494.948	7.52
495.382	7.58
495.815	7.66
496.248	7.72
496.681	7.79
497.114	7.87
497.547	7.94
497.98	8.03
498.413	8.1
498.846	8.2
499.279	8.3
499.711	8.41
500.144	8.52
500.577	8.63
501.009	8.75
501.442	8.88
501.874	9.02
502.306	9.16
502.739	9.32
503.171	9.47
503.603	9.62
504.036	9.79
504.468	9.96
504.9	10.12
505.332	10.3
505.764	10.48
506.196	10.68
506.627	10.87
507.059	11.07
507.491	11.27
507.923	11.49
508.354	11.73
508.786	11.98
509.217	12.23
509.649	12.48
510.08	12.74
510.512	13.01
510.943	13.27
511.374	13.55
511.805	13.84
512.237	14.13
512.668	14.44
513.099	14.71
513.53	15.01
513.961	15.3
514.391	15.62
514.822	15.94
515.253	16.26
515.684	16.59
516.114	16.92
516.545	17.25
516.975	17.58
517.406	17.9
517.836	18.24
518.267	18.58
518.697	18.92
519.127	19.25
519.558	19.59
519.988	19.91
520.418	20.22
520.848	20.53
521.278	20.87
521.708	21.28
522.138	21.6
522.567	21.91
522.997	22.19
523.427	22.48
523.857	22.76
524.286	23.02
524.716	23.3
525.145	23.56
525.575	23.81
526.004	24.05
526.433	24.18
526.863	24.4
527.292	24.62
527.721	24.82
528.15	25.01
528.579	25.19
529.008	25.37
529.437	25.52
529.866	25.68
530.295	25.84
530.724	25.98
531.152	26.12
531.581	26.26
532.01	26.37
532.438	26.5
532.867	26.62
533.295	26.73
533.723	26.83
534.152	26.92
534.58	27.01
535.008	27.07
535.436	27.14
535.865	27.19
536.293	27.26
536.721	27.31
537.149	27.35
537.576	27.4
538.004	27.42
538.432	27.45
538.86	27.48
539.287	27.5
539.715	27.56
540.143	27.59
540.57	27.61
540.998	27.62
541.425	27.66
541.852	27.68
542.28	27.7
542.707	27.75
543.134	27.79
543.561	27.84
543.988	27.87
544.415	27.88
544.842	27.91
545.269	27.97
545.696	28
546.123	28.04
546.549	28.08
546.976	28.11
547.403	28.15
547.829	28.18
548.256	28.2
548.682	28.23
549.108	28.27
549.535	28.3
549.961	28.3
550.387	28.3
550.813	28.31
551.24	28.31
551.666	28.31
552.092	28.29
552.518	28.28
552.943	28.27
553.369	28.25
553.795	28.21
554.221	28.19
554.646	28.15
555.072	28.12
555.498	28.07
555.923	28.01
556.349	27.95
556.774	27.89
557.199	27.82
557.625	27.72
558.05	27.63
558.475	27.55
558.9	27.47
559.325	27.4
559.75	27.27
560.175	27.16
560.6	27.06
561.025	26.94
561.449	26.8
561.874	26.67
562.299	26.54
562.723	26.4
563.148	26.24
563.572	26.04
563.997	25.86
564.421	25.69
564.846	25.52
565.27	25.33
565.694	25.15
566.118	24.95
566.542	24.76
566.966	24.57
567.39	24.37
567.814	24.16
568.238	23.97
568.662	23.76
569.086	23.57
569.509	23.39
569.933	23.19
570.357	22.99
570.78	22.8
571.204	22.61
571.627	22.43
572.05	22.25
572.474	22.1
572.897	21.95
573.32	21.8
573.743	21.63
574.166	21.47
574.589	21.34
575.012	21.19
575.435	21.06
575.858	20.93
576.281	20.79
576.704	20.68
577.126	20.56
577.549	20.44
577.972	20.32
578.394	20.2
578.817	20.1
579.239	19.98
579.661	19.88
580.084	19.78
580.506	19.7
580.928	19.6
581.35	19.52
581.772	19.43
582.194	19.34
582.616	19.25
583.038	19.19
583.46	19.1
583.882	19.02
584.303	18.94
584.725	18.87
585.147	18.79
585.568	18.73
585.99	18.64
586.411	18.56
586.833	18.48
587.254	18.4
587.675	18.32
588.096	18.27
588.518	18.2
588.939	18.13
589.36	18.08
589.781	18.02
590.202	17.96
590.623	17.91
591.043	17.85
591.464	17.82
591.885	17.77
592.305	17.73
592.726	17.68
593.147	17.65
593.567	17.61
593.987	17.56
594.408	17.52
594.828	17.47
595.248	17.44
595.669	17.39
596.089	17.33
596.509	17.3
596.929	17.26
597.349	17.2
597.769	17.15
598.189	17.1
598.608	17.07
599.028	17.03
599.448	16.98
599.867	16.93
600.287	16.89
600.706	16.85
601.126	16.78
601.545	16.74
601.965	16.69
602.384	16.64
602.803	16.57
603.222	16.51
603.641	16.44
604.061	16.38
604.48	16.31
604.898	16.23
605.317	16.17
605.736	16.1
606.155	16.02
606.574	15.95
606.992	15.86
607.411	15.79
607.829	15.68
608.248	15.59
608.666	15.5
609.085	15.41
609.503	15.33
609.921	15.25
610.339	15.17
610.758	15.09
611.176	14.99
611.594	14.91
612.012	14.82
612.43	14.75
612.847	14.67
613.265	14.59
613.683	14.52
614.101	14.44
614.518	14.36
614.936	14.26
615.353	14.18
615.771	14.12
616.188	14.05
616.606	13.99
617.023	13.94
617.44	13.87
617.857	13.82
618.274	13.76
618.691	13.71
619.108	13.65
619.525	13.62
619.942	13.57
620.359	13.53
620.776	13.49
621.192	13.46
621.609	13.43
622.026	13.39
622.442	13.36
622.859	13.33
623.275	13.3
623.691	13.28
624.108	13.26
624.524	13.24
624.94	13.23
625.356	13.21
625.772	13.19
626.188	13.17
626.604	13.16
627.02	13.14
627.436	13.14
627.852	13.12
628.268	13.1
628.683	13.09
629.099	13.08
629.514	13.04
629.93	13.02
630.345	12.98
630.761	12.94
631.176	12.89
631.591	12.83
632.007	12.77
632.422	12.71
632.837	12.66
633.252	12.58
633.667	12.5
634.082	12.42
634.497	12.34
634.911	12.24
635.326	12.16
635.741	12.07
636.155	11.97
636.57	11.87
636.984	11.76
637.399	11.63
637.813	11.52
638.228	11.39
638.642	11.26
639.056	11.13
639.47	11.01
639.884	10.89
640.298	10.75
640.712	10.63
641.126	10.51
641.54	10.38
641.954	10.27
642.368	10.15
642.781	10.05
643.195	9.93
643.609	9.84
644.022	9.73
644.436	9.63
644.849	9.54
645.262	9.45
645.676	9.37
646.089	9.28
646.502	9.21
646.915	9.14
647.328	9.07
647.741	9.01
648.154	8.95
648.567	8.9
648.98	8.86
649.393	8.82
649.805	8.78
650.218	8.74
650.631	8.71
651.043	8.68
651.456	8.65
651.868	8.62
652.28	8.59
652.693	8.56
653.105	8.52
653.517	8.49
653.929	8.44
654.341	8.4
654.753	8.35
655.165	8.3
655.577	8.24
655.989	8.17
656.401	8.11
656.813	8.06
657.224	7.98
657.636	7.91
658.047	7.86
658.459	7.78
658.87	7.71
659.282	7.63
659.693	7.56
660.104	7.49
660.515	7.43
660.926	7.36
661.338	7.3
661.749	7.23
662.159	7.16
662.57	7.1
662.981	7.05
663.392	7.01
663.803	6.97
664.213	6.92
664.624	6.87
665.035	6.83
665.445	6.8
665.855	6.76
666.266	6.74
666.676	6.74
667.086	6.72
667.497	6.69
667.907	6.66
668.317	6.65
668.727	6.63
669.137	6.63
669.547	6.63
669.956	6.62
670.366	6.63
670.776	6.64
671.186	6.63
671.595	6.63
672.005	6.64
672.414	6.67
672.824	6.67
673.233	6.7
673.642	6.72
674.052	6.73
674.461	6.76
674.87	6.77
675.279	6.79
675.688	6.83
676.097	6.87
676.506	6.91
676.915	6.95
677.323	7
677.732	7.04
678.141	7.09
678.549	7.14
678.958	7.2
679.366	7.27
679.775	7.33
680.183	7.4
680.592	7.48
681	7.57
681.408	7.66
681.816	7.76
682.224	7.86
682.632	7.99
683.04	8.12
683.448	8.26
683.856	8.41
684.264	8.59
684.671	8.78
685.079	8.98
685.487	9.21
685.894	9.48
686.302	9.76
686.709	10.07
687.116	10.4
687.524	10.76
687.931	11.15
688.338	11.57
688.745	12.01
689.152	12.47
689.559	13
689.966	13.51
690.373	14.05
690.78	14.63
691.187	15.21
691.593	15.81
692	16.44
692.407	17.06
692.813	17.72
693.22	18.39
693.626	19.08
694.032	19.76
694.439	20.45
694.845	21.15
695.251	21.86
695.657	22.56
696.063	23.29
696.469	24.02
696.875	24.74
697.281	25.46
697.687	26.18
698.093	26.89
698.498	27.59
698.904	28.28
699.31	28.97
699.715	29.64
700.12	30.31
700.526	30.96
700.931	31.6
701.337	32.24
701.742	32.85
702.147	33.48
702.552	34.08
702.957	34.66
703.362	35.25
703.767	35.8
704.172	36.37
704.577	36.93
704.981	37.47
705.386	38.01
705.791	38.53
706.195	39.08
706.6	39.59
707.004	40.07
707.408	40.6
707.813	41.08
708.217	41.6
708.621	42.09
709.025	42.53
709.43	43.01
709.834	43.48
710.237	43.93
710.641	44.36
711.045	44.8
711.449	45.25
711.853	45.67
712.256	46.11
712.66	46.5
713.064	46.9
713.467	47.32
713.87	47.69
714.274	48.05
714.677	48.43
715.08	48.8
715.484	49.17
715.887	49.53
716.29	49.88
716.693	50.22
717.096	50.57
717.499	50.91
717.901	51.22
718.304	51.57
718.707	51.92
719.109	52.23
719.512	52.54
719.915	52.83
720.317	53.1
720.719	53.37
721.122	53.64
721.524	53.9
721.926	54.14
722.328	54.4
722.731	54.62
723.133	54.87
723.535	55.1
723.937	55.33
724.338	55.55
724.74	55.78
725.142	56.03
725.544	56.24
725.945	56.43
726.347	56.63
726.748	56.82
727.15	56.97
727.551	57.14
727.952	57.29
728.354	57.45
728.755	57.58
729.156	57.72
729.557	57.82
729.958	57.94
730.359	58.11
730.76	58.26
731.161	58.37
731.562	58.5
731.962	58.62
732.363	58.72
732.763	58.83
733.164	58.96
733.564	59.05
733.965	59.16
734.365	59.24
734.766	59.31
735.166	59.41
735.566	59.49
735.966	59.57
736.366	59.63
736.766	59.72
737.166	59.78
737.566	59.86
737.966	59.91
738.365	59.99
738.765	60.07
739.165	60.13
739.564	60.17
739.964	60.23
740.363	60.28
740.763	60.35
741.162	60.41
741.561	60.44
741.96	60.47
742.36	60.54
742.759	60.54
743.158	60.58
743.557	60.63
743.955	60.63
744.354	60.7
744.753	60.77
745.152	60.82
745.55	60.87
745.949	60.94
746.348	61.01
746.746	61.04
747.144	61.11
747.543	61.15
747.941	61.18
748.339	61.24
748.737	61.23
749.136	61.24
749.534	61.24
749.932	61.23
750.33	61.22
750.727	61.23
751.125	61.23
751.523	61.2
751.921	61.19
752.318	61.2
752.716	61.19
753.113	61.21
753.511	61.22
753.908	61.23
754.305	61.24
754.703	61.22
755.1	61.21
755.497	61.21
755.894	61.2
756.291	61.18
756.688	61.12
757.085	61.12
757.482	61.09
757.878	61.05
758.275	61.02
758.672	60.97
759.068	61
759.465	60.99
759.861	60.98
760.258	60.96
760.654	61
761.05	61.03
761.447	61.04
761.843	61.01
762.239	61.02
762.635	61.03
763.031	61.03
763.427	61.01
763.822	61.04
764.218	61.04
764.614	61.09
765.01	61.08
765.405	61.07
765.801	61.04
766.196	61.06
766.592	61.06
766.987	61.06
767.382	61.06
767.778	61.06
768.173	61.05
768.568	61.04
768.963	61.02
769.358	61.04
769.753	61.03
770.148	61.06
770.542	61.08
770.937	61.08
771.332	61.06
771.726	61.06
772.121	61.07
772.515	61.06
772.91	61.07
773.304	61.07
773.699	61.05
774.093	61.04
774.487	61
774.881	61.04
775.275	61.04
775.669	61.04
776.063	61.07
776.457	61.07
776.851	61.06
777.245	61.03
777.638	61.02
778.032	61.04
778.425	61.08
778.819	61.08
779.212	61.05
779.606	61.1
779.999	61.11
780.392	61.14
780.786	61.16
781.179	61.17
781.572	61.25
781.965	61.29
782.358	61.31
782.751	61.31
783.143	61.34
783.536	61.32
783.929	61.29
784.322	61.31
784.714	61.29
785.107	61.32
785.499	61.3
785.891	61.27
786.284	61.28
786.676	61.29
787.068	61.3
787.46	61.31
787.852	61.35
788.245	61.34
788.636	61.34
789.028	61.33
789.42	61.29
789.812	61.32
790.204	61.35
790.595	61.34
790.987	61.34
791.378	61.37
791.77	61.35
792.161	61.35
792.553	61.38
792.944	61.38
793.335	61.39
793.726	61.39
794.117	61.36
794.508	61.32
794.899	61.3
795.29	61.32
795.681	61.3
796.072	61.33
796.463	61.31
796.853	61.29
797.244	61.3
797.634	61.3
798.025	61.34
798.415	61.39
798.806	61.42
799.196	61.44
799.586	61.45
799.976	61.46
800.366	61.45
800.756	61.51
801.146	61.58
801.536	61.61
801.926	61.6
802.316	61.61
802.706	61.63
803.095	61.7
803.485	61.72
803.874	61.74
804.264	61.74
804.653	61.76
805.043	61.76
805.432	61.74
805.821	61.78
806.21	61.82
806.599	61.85
806.988	61.85
807.377	61.83
807.766	61.83
808.155	61.83
808.544	61.84
808.933	61.87
809.321	61.87
809.71	61.91
810.098	61.91
810.487	61.9
810.875	61.91
811.264	61.91
811.652	61.91
812.04	61.92
812.428	61.97
812.816	61.99
813.204	62.01
813.592	62
813.98	62.02
814.368	62.06
814.756	62.07
815.144	62.07
815.531	62.1
815.919	62.12
816.306	62.12
816.694	62.08
817.081	62.1
817.469	62.11
817.856	62.11
818.243	62.1
818.63	62.06
819.017	62.05
819.404	62.03
819.791	61.99
820.178	61.99
820.565	61.98
820.952	61.98
821.339	61.92
821.725	61.95
822.112	61.96
822.498	61.97
822.885	62
823.271	62
823.657	61.98
824.044	62
824.43	61.98
824.816	61.97
825.202	61.93
825.588	61.95
825.974	61.89
826.36	61.87
826.746	61.82
827.132	61.79
827.517	61.78
827.903	61.79
828.289	61.79
828.674	61.78
829.06	61.76
829.445	61.75
829.83	61.74
830.216	61.72
830.601	61.7
830.986	61.68
831.371	61.65
831.756	61.65
832.141	61.61
832.526	61.58
832.911	61.55
833.295	61.55
833.68	61.57
834.065	61.54
834.449	61.53
834.834	61.49
835.218	61.46
835.603	61.43
835.987	61.38
836.371	61.36
836.755	61.32
837.139	61.28
837.524	61.25
837.908	61.21
838.291	61.21
838.675	61.2
839.059	61.21
839.443	61.21
839.827	61.2
840.21	61.17
840.594	61.16
840.977	61.16
841.361	61.17
841.744	61.12
842.127	61.09
842.511	61.05
842.894	61.04
843.277	61.01
843.66	60.99
844.043	61
844.426	61.01
844.809	61.04
845.191	61.03
845.574	61.01
845.957	61.03
846.339	61.04
846.722	61.05
847.104	61.05
847.487	61.04
847.869	61.04
848.252	61.03
848.634	61.03
849.016	61.02
849.398	61.01
849.78	61.01
850.162	61.01
850.544	61.02
850.926	61.03
851.307	60.99
851.689	61
852.071	61.02
852.452	61.03
852.834	61.04
853.215	61.03
853.597	61.03
853.978	61.03
854.359	61.04
854.741	61.03
855.122	61.01
855.503	61.04
855.884	61.03
856.265	60.99
856.646	60.99
857.026	61.01
857.407	61.02
857.788	61.04
858.169	61.04
858.549	61.03
858.93	61.06
859.31	61.06
859.69	61.07
860.071	61.09
860.451	61.11
860.831	61.1
861.211	61.08
861.591	61.06
861.971	61.04
862.351	61.05
862.731	61.08
863.111	61.04
863.491	61.03
863.87	61.01
864.25	60.99
864.629	61
865.009	61
865.388	60.99
865.768	60.98
866.147	60.98
866.526	60.96
866.905	60.95
867.284	60.97
867.663	60.98
868.042	61
868.421	61.03
868.8	61.03
869.179	61.03
869.558	61.03
869.936	61.02
870.315	61.02
870.693	61.04
871.072	61.03
871.45	61.04
871.828	61.03
872.207	61.03
872.585	60.99
872.963	60.99
873.341	60.97
873.719	60.98
874.097	60.98
874.475	61
874.853	60.97
875.23	60.99
875.608	61
875.986	61.02
876.363	61.02
876.741	61.03
877.118	61.03
877.495	61.03
877.873	61.03
878.25	61.1
878.627	61.09
879.004	61.11
879.381	61.11
879.758	61.09
880.135	61.08
880.512	61.09
880.889	61.08
881.265	61.05
881.642	61.08
882.019	61.08
882.395	61.01
882.772	61.02
883.148	60.98
883.524	60.97
883.901	60.95
884.277	60.94
884.653	60.91
885.029	60.9
885.405	60.91
885.781	60.89
886.157	60.9
886.532	60.89
886.908	60.84
887.284	60.85
887.659	60.82
888.035	60.8
888.411	60.79
888.786	60.77
889.161	60.77
889.537	60.75
889.912	60.72
890.287	60.67
890.662	60.68
891.037	60.69
891.412	60.66
891.787	60.63
892.162	60.61
892.536	60.58
892.911	60.56
893.286	60.54
893.66	60.52
894.035	60.51
894.409	60.5
894.784	60.48
895.158	60.45
895.532	60.45
895.906	60.44
896.281	60.45
896.655	60.43
897.029	60.44
897.402	60.43
897.776	60.43
898.15	60.43
898.524	60.44
898.898	60.43
899.271	60.43
899.645	60.44
900.018	60.46
900.392	60.46
900.765	60.49
901.138	60.48
901.511	60.49
901.884	60.53
902.258	60.59
902.631	60.61
903.003	60.63
903.376	60.65
903.749	60.63
904.122	60.65
904.495	60.68
904.867	60.69
905.24	60.73
905.612	60.76
905.985	60.73
906.357	60.72
906.729	60.73
907.102	60.74
907.474	60.72
907.846	60.75
908.218	60.74
908.59	60.76
908.962	60.76
909.334	60.77
909.705	60.77
910.077	60.8
910.449	60.78
910.82	60.76
911.192	60.79
911.563	60.83
911.935	60.83
912.306	60.86
912.677	60.88
913.048	60.87
913.419	60.84
913.79	60.85
914.161	60.87
914.532	60.9
914.903	60.93
915.274	60.92
915.645	60.94
916.015	60.95
916.386	60.95
916.756	60.94
917.127	60.98
917.497	60.99
917.868	61
918.238	60.98
918.608	60.99
918.978	60.98
919.348	61.02
919.718	60.98
920.088	60.98
920.458	61
920.828	60.99
921.198	60.94
921.567	60.95
921.937	60.97
922.306	60.95
922.676	60.95
923.045	60.95
923.415	60.89
923.784	60.95
924.153	61.01
924.522	60.98
924.891	61
925.26	61.06
925.629	61.11
925.998	61.07
926.367	61.09
926.736	61.1
927.104	61.12
927.473	61.15
927.842	61.1
928.21	61.08
928.578	61.07
928.947	61.07
929.315	61.03
929.683	61
930.051	61.01
930.42	61.02
930.788	60.96
931.156	60.92
931.523	60.87
931.891	60.85
932.259	60.81
932.627	60.77
932.994	60.71
933.362	60.63
933.729	60.55
934.097	60.49
934.464	60.41
934.831	60.4
935.199	60.37
935.566	60.32
935.933	60.31
936.3	60.26
936.667	60.24
937.034	60.26
937.401	60.3
937.767	60.33
938.134	60.35
938.501	60.39
938.867	60.47
939.234	60.53
939.6	60.62
939.967	60.64
940.333	60.69
940.699	60.79
941.065	60.8
941.431	60.92
941.798	60.95
942.163	61.03
942.529	61.11
942.895	61.16
943.261	61.17
943.627	61.16
943.992	61.19
944.358	61.27
944.723	61.25
945.089	61.26
945.454	61.2
945.82	61.22
946.185	61.2
946.55	61.13
946.915	61.07
947.28	61.09
947.645	61.13
948.01	61.15
948.375	61.07
948.74	61.1
949.104	61.14
949.469	61.11
949.834	61.08
950.198	61.04
950.562	60.98
950.927	60.99
951.291	60.87
951.655	60.79
952.02	60.78
952.384	60.74
952.748	60.65
953.112	60.59
953.476	60.56
953.839	60.54
954.203	60.51
954.567	60.51
954.931	60.41
955.294	60.4
955.658	60.4
956.021	60.33
956.385	60.29
956.748	60.26
957.111	60.23
957.474	60.19
957.837	60.13
958.2	60.1
958.563	60.13
958.926	60.15
959.289	60.16
959.652	60.15
960.015	60.12
960.377	60.15
960.74	60.18
961.102	60.18
961.465	60.24
961.827	60.27
962.189	60.29
962.552	60.28
962.914	60.28
963.276	60.35
963.638	60.37
964	60.38
964.362	60.36
964.724	60.29
965.085	60.26
965.447	60.26
965.809	60.26
966.17	60.24
966.532	60.25
966.893	60.23
967.255	60.18
967.616	60.14
967.977	60.14
968.338	60.16
968.699	60.16
969.061	60.2
969.421	60.14
969.782	60.12
970.143	60.12
970.504	60.12
970.865	60.15
971.225	60.06
971.586	60.08
971.946	60.07
972.307	60.12
972.667	60.16
973.027	60.15
973.388	60.19
973.748	60.29
974.108	60.36
974.468	60.31
974.828	60.36
975.188	60.42
975.548	60.44
975.907	60.54
976.267	60.52
976.627	60.53
976.986	60.52
977.346	60.52
977.705	60.43
978.064	60.37
978.424	60.44
978.783	60.42
979.142	60.47
979.501	60.47
979.86	60.44
980.219	60.42
980.578	60.48
980.937	60.5
981.296	60.48
981.654	60.58
982.013	60.63
982.371	60.64
982.73	60.65
983.088	60.57
983.447	60.58
983.805	60.57
984.163	60.54
984.521	60.46
984.879	60.41
985.237	60.47
985.595	60.44
985.953	60.47
986.311	60.39
986.669	60.4
987.026	60.48
987.384	60.47
987.741	60.48
988.099	60.67
988.456	60.74
988.814	60.84
989.171	60.88
989.528	60.9
989.885	60.85
990.242	60.93
990.599	61.01
990.956	60.93
991.313	60.99
991.67	61.04
992.027	61.06
992.383	61.09
992.74	61.14
993.096	61.05
993.453	61.07
993.809	61.16
994.165	61.22
994.522	61.2
994.878	61.29
995.234	61.33
995.59	61.33
995.946	61.28
996.302	61.38
996.658	61.44
997.013	61.56
997.369	61.58
997.725	61.66
998.08	61.63
998.436	61.78
998.791	61.84
999.147	61.86
999.502	61.9
999.857	61.9
1000.212	61.84
1000.567	61.94
1000.922	61.97
1001.277	62.03
1001.632	61.93
1001.987	61.93
1002.342	61.79
1002.696	61.75
1003.051	62.03
1003.406	62.12
1003.76	62.15
1004.114	62.11
1004.469	62.1
1004.823	62.32
1005.177	62.28
1005.531	62.51
1005.885	62.61
1006.239	62.62
1006.593	62.73
1006.947	62.61
1007.301	62.49
1007.655	62.55
1008.008	62.7
1008.362	62.7
1008.715	62.75
1009.069	63.04
1009.422	63.06
1009.776	63.12
1010.129	63.27
1010.482	63.39
1010.835	63.44
1011.188	63.56
1011.541	63.74
1011.894	63.91
1012.247	63.91
1012.6	63.87
1012.952	63.79
1013.305	63.93
1013.657	64.13
1014.01	64.27
1014.362	64.34
1014.715	64.41
1015.067	64.72
1015.419	64.79
1015.771	64.8
1016.123	64.88
1016.475	64.93
1016.827	64.91
1017.179	64.81
1017.531	64.73
1017.883	64.77
1018.234	64.97
1018.586	64.97
1018.938	65.03
1019.289	64.95
1019.64	65
1019.992	65.3
1020.343	65.27
1020.694	65.43
1021.045	65.61
1021.396	65.82
1021.747	66.02
1022.098	66.19
1022.449	66.5
1022.8	66.52
1023.151	66.77
1023.501	67.04
1023.852	67.21
1024.202	67.17
1024.553	67.43
1024.903	67.41
1025.253	67.67
1025.604	67.6
1025.954	67.22
1026.304	67.21
1026.654	67.43
1027.004	67.35
1027.354	67.16
1027.703	66.98
1028.053	67.25
1028.403	67.29
1028.753	67.25
1029.102	67.36
1029.452	67.61
1029.801	68.12
1030.15	68.15
1030.499	67.93
897.758	958.36
901.051	961.47
904.343	965.18
907.636	982.05
910.928	957.05
914.22	954.49
917.511	941.94
920.803	902.88
924.094	901.05
927.384	878.88
930.675	848.52
933.965	844.69
937.255	796.29
940.544	762.98
943.834	729.92
947.123	722.94
950.411	682.89
953.7	669.83
956.988	634.58
960.276	611.06
963.563	602.41
966.851	577.42
970.138	573.34
973.424	558.57
976.711	559.55
979.997	532.84
983.283	530.69
986.568	520.8
989.853	504.7
993.138	495.34
996.423	476.94
999.708	464.04
1002.992	459.06
1006.275	439.61
1009.559	436.4
1012.842	421.57
1016.125	410.21
1019.408	401.73
1022.69	397.52
1025.972	390.28
1029.254	381.39
1032.536	374.31
1035.817	368
1039.098	364.27
1042.379	357.75
1045.659	353.34
1048.939	345.81
1052.219	338.81
1055.498	336.63
1058.778	328.03
1062.057	322.36
1065.335	319.57
1068.614	316.6
1071.892	313.07
1075.17	304.24
1078.447	298.8
1081.724	296.31
1085.001	294.45
1088.278	289.82
1091.554	283.82
1094.83	285.07
1098.106	282.11
1101.382	279.5
1104.657	276.83
1107.932	272.33
1111.206	274.2
1114.481	267.91
1117.755	266.32
1121.029	263.86
1124.302	262.23
1127.575	258.49
1130.848	255.14
1134.121	253.42
1137.393	252.26
1140.665	247.31
1143.937	245.91
1147.208	244.03
1150.48	243.65
1153.75	239.59
1157.021	237.38
1160.291	238.54
1163.561	235.12
1166.831	234.8
1170.101	232.97
1173.37	232.95
1176.639	233.73
1179.907	231.84
1183.176	229.27
1186.444	228.94
1189.711	229.43
1192.979	228.4
1196.246	226.73
1199.513	227.63
1202.78	226.33
1206.046	226.26
1209.312	223.56
1212.578	223.78
1215.843	225.3
1219.108	225.07
1222.373	228.79
1225.638	229.62
1228.902	232.43
1232.166	231.49
1235.43	233.05
1238.693	236.04
1241.956	237.78
1245.219	241.51
1248.482	241.45
1251.744	241.31
1255.006	241.99
1258.268	236.67
1261.529	235.15
1264.79	233.97
1268.051	233.52
1271.312	230.66
1274.572	227.96
1277.832	225.22
1281.092	221.99
1284.351	221
1287.61	221.12
1290.869	217.12
1294.128	216.15
1297.386	216.03
1300.644	213.39
1303.902	214.77
1307.159	214.27
1310.416	214.57
1313.673	213.95
1316.93	216.06
1320.186	215.31
1323.442	215.72
1326.697	218.43
1329.953	219.99
1333.208	220.01
1336.463	223.25
1339.717	222.95
1342.972	225.28
1346.226	226.55
1349.479	227.56
1352.733	227.82
1355.986	230.03
1359.238	229.66
1362.491	230.79
1365.743	232.22
1368.995	233.29
1372.247	231.93
1375.498	232.09
1378.749	232.33
1382	230.67
1385.251	230.91
1388.501	229.83
1391.751	228.57
1395	227.78
1398.25	226.32
1401.499	223.52
1404.748	222.25
1407.996	220.27
1411.244	218.82
1414.492	217.73
1417.74	213.76
1420.987	210.99
1424.234	210.16
1427.481	208.69
1430.728	208.31
1433.974	205.96
1437.22	204.44
1440.465	204.11
1443.711	202.06
1446.956	200.58
1450.201	197.9
1453.445	197.24
1456.689	195.99
1459.933	192.86
1463.177	190.63
1466.42	188.66
1469.663	186.59
1472.906	185.62
1476.148	181.22
1479.391	179.17
1482.633	178.15
1485.874	176.64
1489.115	175.41
1492.356	174.01
1495.597	174.01
1498.838	172.09
1502.078	170.51
1505.318	170.35
1508.557	170.58
1511.797	170.3
1515.036	169.55
1518.274	169
1521.513	167.91
1524.751	167.89
1527.989	167.89
1531.227	167.14
1534.464	167.72
1537.701	167.51
1540.938	166.95
1544.174	164.39
1547.41	165.46
1550.646	164.96
1553.882	164.78
1557.117	163.1
1560.352	162.47
1563.587	161.79
1566.821	160.62
1570.055	160.53
1573.289	158.28
1576.523	158.56
1579.756	158.47
1582.989	156.98
1586.222	156.9
1589.454	156.93
1592.686	158.02
1595.918	157.35
1599.15	156.96
1602.381	157.52
1605.612	156.32
1608.843	157.67
1612.073	157.02
1615.303	157.79
1618.533	157.9
1621.762	158.03
1624.992	157.86
1628.221	157.38
1631.449	157.11
1634.678	157.8
1637.906	158.46
1641.134	158.26
1644.361	157.92
1647.588	158.56
1650.815	157.9
1654.042	157.32
1657.269	157.99
1660.495	157.52
1663.72	157.57
1666.946	157.88
1670.171	157.85
1673.396	157.55
1676.621	157.5
1679.845	158.06
1683.069	158.61
1686.293	159.23
1689.517	159.92
1692.74	159.57
1695.963	160.21
1699.185	161.5
1702.408	161.73
1705.63	161.96
1708.852	162.45
1712.073	162.68
1715.294	162.68
1718.515	163.38
1721.736	163.17
1724.956	164.1
1728.176	164.19
1731.396	164.98
1734.616	164.06
1737.835	164.88
1741.054	163.53
1744.272	163.82
1747.491	165.27
1750.709	165.43
1753.927	164.79
1757.144	164.86
1760.361	164.57
1763.578	165.03
1766.795	164.67
1770.011	166.33
1773.227	166.27
1776.443	168.33
1779.658	168.51
1782.874	168.29
1786.089	168.35
1789.303	168.67
1792.518	170.44
1795.732	170.2
1798.945	171.41
1802.159	171.83
1805.372	171.18
1808.585	173.36
1811.797	173.74
1815.01	174.69
1818.222	175.99
1821.434	178.68
1824.645	178.72
1827.856	181.08
1831.067	182.56
1834.278	182.34
1837.488	183.67
1840.698	184.99
1843.908	183.76
1847.117	184.06
1850.326	184.91
1853.535	183.57
1856.744	185.25
1859.952	185
1863.16	183.4
1866.368	182.31
1869.575	182.95
1872.782	179.17
1875.989	178.93
1879.196	177.35
1882.402	176.09
1885.608	174.81
1888.814	174.34
1892.019	172.69
1895.224	171.67
1898.429	170.16
1901.634	170.01
1904.838	169.56
1908.042	171.58
1911.246	170.39
1914.449	170.88
1917.652	171.47
1920.855	171.32
1924.058	171.44
1927.26	169.92
1930.462	170.48
1933.664	172.61
1936.865	171.2
1940.066	170.91
1943.267	169.23
1946.467	170.04
1949.668	170.3
1952.868	171.35
1956.067	172.21
1959.267	172.13
1962.466	172.72
1965.665	172.53
1968.863	172.89
1972.061	176.55
1975.259	178.19
1978.457	179.55
1981.654	181.22
1984.852	182.33
1988.048	181.68
1991.245	183.6
1994.441	185.75
1997.637	187.23
2000.833	191.07
2004.028	193.21
2007.223	192.98
2010.418	194.79
2013.613	199.64
2016.807	200.82
2020.001	202.84
2023.194	206.41
2026.388	211.51
2029.581	216.68
2032.774	218.46
2035.966	222.04
2039.158	222.88
2042.35	227.54
2045.542	229.63
2048.733	232.3
2051.924	236.38
2055.115	240.61
2058.306	241.41
2061.496	241.74
2064.686	242.85
2067.875	247.64
2071.065	249.18
2074.254	247.24
2077.442	251.59
2080.631	251.99
2083.819	254.28
2087.007	253.64
2090.195	258.15
2093.382	260.03
2096.569	259.44
2099.756	263.09
2102.942	263.5
2106.128	265.24
2109.314	272.8
2112.5	270.94
2115.685	277.29
2118.87	277.57
2122.055	283.62
2125.239	282.9
2128.424	286.78
2131.608	288.09
2134.791	292.19
2137.974	293.33
2141.157	294.67
2144.34	294.2
2147.523	299.69
2150.705	297.7
2153.887	301.83
2157.068	301.78
2160.25	300.65
2163.431	302.89
2166.611	307.1
2169.792	311.89
2172.972	314.98
2176.152	317.92
2179.331	321.73
2182.511	324.59
2185.69	328.19
2188.868	333.9
2192.047	334.51
2195.225	343.91
2198.403	351.36
2201.58	356.72
2204.758	362.86
2207.935	370.6
2211.111	376.89
2214.288	380.62
2217.464	382.36
2220.64	388.03
2223.815	392
2226.991	407.78
2230.166	407.78
2233.34	413.46
2236.515	421.18
2239.689	423.72
2242.863	426.01
2246.036	435.35
2249.209	433.22
2252.382	441.04
2255.555	452.49
2258.727	455.17
2261.9	459.15
2265.071	462.87
2268.243	470.39
2271.414	476.2
2274.585	482.62
2277.756	487.18
2280.926	492.59
2284.096	503.8
2287.266	514.29
2290.436	519.99
2293.605	530.97
2296.774	545.21
2299.942	560.95
2303.111	565.09
2306.279	577.11
2309.447	585.03
2312.614	600.63
2315.781	614.64
2318.948	645.82
2322.115	635.53
2325.281	669.32
2328.447	656.23
2331.613	680.28
2334.779	675.42
2337.944	701.91
2341.109	708.48
2344.274	730.63
2347.438	753.08
2350.602	756.33
2353.766	775.3
2356.929	789.75
2360.092	783.61
2363.255	837.59
2366.418	837.41
2369.58	852.57
2372.742	909.67
2375.904	932.63
2379.066	924.8
2382.227	911.6
2385.388	982.35
2388.548	985.58
2391.709	993.23
2394.869	1104.83
2398.029	1062.89
2401.188	1094.21
2404.347	1089.24
2407.506	1064.41
2410.665	1094.33
2413.823	1160.63
2416.981	1224.39
2420.139	1190.33
2423.296	1171.91
2426.453	1231.4
2429.61	1186.43
2432.767	1234.51
2435.923	1220.43
2439.079	1336.28
2442.235	1360.54
2445.391	1347.28
2448.546	1331.39
2451.701	1297.27
2454.855	1290.3
2458.009	1381.76
2461.163	1429.32
2464.317	1473.62
2467.471	1511.33
2470.624	1510.87
2473.777	1470.97
2476.929	1426.69
2480.082	1379.9
2483.234	1370.63
2486.385	1444.3
2489.537	1451.94
2492.688	1492.46
2495.839	1456.45
2498.989	1427.73
2502.14	1432.93
2505.29	1448.56
2508.439	1460.48
2511.589	1460.22
2514.738	1602.76
2517.887	1562.71
2521.035	1638.41
2524.183	1665.06
2527.331	1674.03
2530.479	1658.81
2533.627	1673.17
