Data from N_3_DEC_VA_2N_Splice17_14-19-30-220.txt Node
Date: Sat Mar 07 14:19:30 EST 2020
User: sa697716
Spectrometer: NQ5500242
Trigger mode: 0
Integration Time (sec): 1.450000E-1
Scans to average: 20
Nonlinearity correction enabled: false
Boxcar width: 5
Storing dark spectrum: false
XAxis mode: Wavelengths
Number of Pixels in Spectrum: 512
>>>>>Begin Spectral Data<<<<<
187.83	122.59
188.298	133.8
188.766	105.68
189.233	92.08
189.701	89.87
190.169	81.17
190.636	51.84
191.104	-24.43
191.571	-162.22
192.039	-10.03
192.506	214.99
192.974	76.7
193.441	126.5
193.908	48.93
194.375	72.12
194.842	1.66
195.31	-33.59
195.777	-396.61
196.244	51.72
196.711	80.13
197.177	84.26
197.644	86.62
198.111	86.57
198.578	86.83
199.045	87.15
199.511	86.97
199.978	87.37
200.445	87.39
200.911	88.03
201.378	88.34
201.844	88.29
202.31	88.07
202.777	87.86
203.243	87.77
203.709	87.37
204.176	86.69
204.642	85.93
205.108	85.54
205.574	84.98
206.04	84.07
206.506	83.32
206.972	82.87
207.438	82.08
207.903	80.73
208.369	79.03
208.835	77.39
209.301	75.58
209.766	73.88
210.232	71.69
210.697	69.89
211.163	68.21
211.628	66.32
212.094	64.4
212.559	62.98
213.024	61.77
213.49	60.68
213.955	59.4
214.42	58.38
214.885	56.75
215.35	54.95
215.815	52.14
216.28	48.73
216.745	45.14
217.21	41.47
217.675	37.94
218.14	34.85
218.604	32.07
219.069	29.8
219.534	27.79
219.998	26.23
220.463	24.94
220.927	23.82
221.392	22.96
221.856	22.16
222.32	21.48
222.785	20.92
223.249	20.38
223.713	19.93
224.177	19.52
224.642	19.12
225.106	18.71
225.57	18.29
226.034	17.95
226.497	17.59
226.961	17.28
227.425	17.01
227.889	16.73
228.353	16.44
228.816	16.17
229.28	15.9
229.744	15.67
230.207	15.44
230.671	15.21
231.134	14.99
231.597	14.8
232.061	14.6
232.524	14.41
232.987	14.21
233.45	14.05
233.914	13.88
234.377	13.69
234.84	13.51
235.303	13.38
235.766	13.25
236.229	13.1
236.691	12.97
237.154	12.85
237.617	12.7
238.08	12.58
238.542	12.45
239.005	12.35
239.468	12.24
239.93	12.14
240.393	12.03
240.855	11.91
241.317	11.8
241.78	11.68
242.242	11.55
242.704	11.44
243.166	11.33
243.629	11.23
244.091	11.11
244.553	11
245.015	10.88
245.477	10.78
245.939	10.67
246.4	10.58
246.862	10.48
247.324	10.38
247.786	10.29
248.247	10.2
248.709	10.09
249.17	10
249.632	9.92
250.093	9.85
250.555	9.76
251.016	9.68
251.477	9.6
251.939	9.53
252.4	9.47
252.861	9.41
253.322	9.34
253.783	9.29
254.244	9.25
254.705	9.19
255.166	9.15
255.627	9.1
256.088	9.07
256.549	9.03
257.009	8.98
257.47	8.93
257.931	8.88
258.391	8.82
258.852	8.76
259.312	8.71
259.773	8.65
260.233	8.59
260.694	8.53
261.154	8.46
261.614	8.41
262.074	8.35
262.534	8.3
262.994	8.25
263.455	8.21
263.915	8.16
264.374	8.12
264.834	8.09
265.294	8.05
265.754	8.02
266.214	8
266.673	7.96
267.133	7.94
267.593	7.91
268.052	7.89
268.512	7.87
268.971	7.84
269.431	7.82
269.89	7.79
270.349	7.78
270.809	7.75
271.268	7.73
271.727	7.72
272.186	7.7
272.645	7.68
273.104	7.66
273.563	7.64
274.022	7.63
274.481	7.61
274.94	7.59
275.399	7.56
275.857	7.54
276.316	7.52
276.775	7.5
277.233	7.49
277.692	7.47
278.15	7.47
278.609	7.45
279.067	7.43
279.525	7.42
279.984	7.4
280.442	7.39
280.9	7.39
281.358	7.38
281.816	7.36
282.274	7.35
282.732	7.34
283.19	7.32
283.648	7.31
284.106	7.3
284.564	7.29
285.021	7.29
285.479	7.28
285.937	7.26
286.394	7.25
286.852	7.24
287.309	7.23
287.767	7.21
288.224	7.19
288.682	7.16
289.139	7.13
289.596	7.1
290.053	7.06
290.511	7.03
290.968	7
291.425	6.96
291.882	6.93
292.339	6.9
292.796	6.88
293.252	6.85
293.709	6.83
294.166	6.81
294.623	6.8
295.079	6.79
295.536	6.77
295.992	6.76
296.449	6.75
296.905	6.74
297.362	6.72
297.818	6.7
298.274	6.69
298.731	6.67
299.187	6.65
299.643	6.62
300.099	6.61
300.555	6.59
301.011	6.57
301.467	6.55
301.923	6.55
302.379	6.54
302.835	6.54
303.291	6.53
303.746	6.53
304.202	6.53
304.658	6.53
305.113	6.53
305.569	6.53
306.024	6.53
306.479	6.52
306.935	6.51
307.39	6.51
307.845	6.51
308.301	6.51
308.756	6.51
309.211	6.5
309.666	6.5
310.121	6.5
310.576	6.49
311.031	6.5
311.486	6.51
311.94	6.51
312.395	6.51
312.85	6.5
313.305	6.5
313.759	6.49
314.214	6.49
314.668	6.48
315.123	6.48
315.577	6.47
316.032	6.45
316.486	6.44
316.94	6.43
317.394	6.4
317.849	6.38
318.303	6.36
318.757	6.34
319.211	6.32
319.665	6.29
320.119	6.27
320.572	6.25
321.026	6.23
321.48	6.21
321.934	6.2
322.387	6.2
322.841	6.19
323.295	6.18
323.748	6.17
324.202	6.15
324.655	6.14
325.108	6.14
325.562	6.14
326.015	6.13
326.468	6.12
326.921	6.11
327.374	6.1
327.827	6.1
328.28	6.09
328.733	6.08
329.186	6.09
329.639	6.09
330.092	6.09
330.545	6.09
330.997	6.09
331.45	6.09
331.903	6.1
332.355	6.11
332.808	6.11
333.26	6.11
333.713	6.12
334.165	6.13
334.617	6.13
335.069	6.13
335.522	6.13
335.974	6.14
336.426	6.14
336.878	6.14
337.33	6.14
337.782	6.15
338.234	6.16
338.686	6.15
339.137	6.15
339.589	6.14
340.041	6.14
340.493	6.12
340.944	6.09
341.396	6.08
341.847	6.05
342.299	6.03
342.75	6
343.201	5.97
343.653	5.95
344.104	5.91
344.555	5.89
345.006	5.86
345.457	5.85
345.908	5.82
346.359	5.81
346.81	5.8
347.261	5.8
347.712	5.78
348.163	5.78
348.613	5.77
349.064	5.77
349.515	5.76
349.965	5.76
350.416	5.76
350.866	5.77
351.317	5.75
351.767	5.75
352.217	5.75
352.668	5.75
353.118	5.76
353.568	5.75
354.018	5.76
354.468	5.77
354.918	5.77
355.368	5.77
355.818	5.78
356.268	5.8
356.718	5.8
357.168	5.8
357.617	5.8
358.067	5.79
358.517	5.81
358.966	5.82
359.416	5.81
359.865	5.81
360.315	5.81
360.764	5.82
361.213	5.8
361.663	5.8
362.112	5.81
362.561	5.82
363.01	5.81
363.459	5.8
363.908	5.8
364.357	5.8
364.806	5.8
365.255	5.79
365.703	5.79
366.152	5.8
366.601	5.81
367.05	5.8
367.498	5.79
367.947	5.79
368.395	5.8
368.844	5.8
369.292	5.79
369.74	5.79
370.189	5.78
370.637	5.78
371.085	5.76
371.533	5.75
371.981	5.75
372.429	5.75
372.877	5.75
373.325	5.74
373.773	5.74
374.221	5.74
374.669	5.72
375.116	5.71
375.564	5.71
376.012	5.71
376.459	5.7
376.907	5.71
377.354	5.71
377.801	5.71
378.249	5.7
378.696	5.7
379.143	5.7
379.591	5.71
380.038	5.71
380.485	5.72
380.932	5.73
381.379	5.72
381.826	5.72
382.273	5.73
382.72	5.72
383.166	5.73
383.613	5.73
384.06	5.72
384.506	5.72
384.953	5.73
385.4	5.74
385.846	5.74
386.292	5.76
386.739	5.76
387.185	5.77
387.631	5.79
388.078	5.79
388.524	5.8
388.97	5.82
389.416	5.84
389.862	5.86
390.308	5.88
390.754	5.9
391.2	5.92
391.645	5.95
392.091	5.98
392.537	6.01
392.983	6.04
393.428	6.07
393.874	6.09
394.319	6.12
394.765	6.14
395.21	6.16
395.655	6.18
396.101	6.2
396.546	6.22
396.991	6.25
397.436	6.26
397.881	6.31
398.326	6.34
398.771	6.38
399.216	6.41
399.661	6.45
400.106	6.48
400.551	6.49
400.995	6.51
401.44	6.52
401.885	6.54
402.329	6.56
402.774	6.57
403.218	6.59
403.663	6.61
404.107	6.63
404.551	6.64
404.995	6.67
405.44	6.69
405.884	6.73
406.328	6.75
406.772	6.78
407.216	6.8
407.66	6.81
408.104	6.81
408.547	6.83
408.991	6.84
409.435	6.85
409.879	6.87
410.322	6.9
410.766	6.93
411.209	6.97
411.653	6.99
412.096	7.01
412.54	7.03
412.983	7.05
413.426	7.11
413.869	7.13
414.312	7.18
414.756	7.2
415.199	7.23
415.642	7.23
416.085	7.25
416.527	7.26
416.97	7.25
417.413	7.25
417.856	7.26
418.298	7.24
418.741	7.26
419.184	7.25
419.626	7.24
420.069	7.23
420.511	7.23
420.953	7.24
421.396	7.26
421.838	7.29
422.28	7.31
422.722	7.34
423.164	7.36
423.606	7.37
424.048	7.37
424.49	7.4
424.932	7.4
425.374	7.39
425.816	7.35
426.258	7.33
426.699	7.31
427.141	7.29
427.582	7.27
428.024	7.29
428.465	7.28
428.907	7.28
429.348	7.26
429.789	7.25
430.231	7.27
430.672	7.31
431.113	7.34
431.554	7.37
431.995	7.39
432.436	7.41
432.877	7.42
433.318	7.44
433.759	7.46
434.2	7.5
434.64	7.54
435.081	7.56
435.522	7.56
435.962	7.57
436.403	7.62
436.843	7.65
437.284	7.65
437.724	7.66
438.164	7.66
438.604	7.68
439.045	7.68
439.485	7.69
439.925	7.69
440.365	7.71
440.805	7.72
441.245	7.72
441.685	7.74
442.125	7.77
442.564	7.79
443.004	7.81
443.444	7.8
443.883	7.83
444.323	7.84
444.762	7.87
445.202	7.89
445.641	7.92
446.081	7.93
446.52	7.94
446.959	7.96
447.398	7.98
447.837	8.02
448.276	8.05
448.716	8.06
449.154	8.09
449.593	8.13
450.032	8.14
450.471	8.14
450.91	8.13
451.349	8.14
451.787	8.13
452.226	8.12
452.664	8.11
453.103	8.1
453.541	8.08
453.98	8.06
454.418	8.02
454.856	7.99
455.295	7.98
455.733	7.94
456.171	7.92
456.609	7.88
457.047	7.85
457.485	7.81
457.923	7.79
458.361	7.77
458.798	7.76
459.236	7.75
459.674	7.74
460.111	7.71
460.549	7.73
460.987	7.72
461.424	7.73
461.862	7.73
462.299	7.74
462.736	7.74
463.173	7.74
463.611	7.72
464.048	7.73
464.485	7.72
464.922	7.74
465.359	7.74
465.796	7.74
466.233	7.75
466.67	7.75
467.106	7.74
467.543	7.74
467.98	7.75
468.416	7.74
468.853	7.74
469.29	7.74
469.726	7.73
470.162	7.71
470.599	7.72
471.035	7.71
471.471	7.72
471.907	7.73
472.344	7.73
472.78	7.72
473.216	7.72
473.652	7.73
474.088	7.72
474.523	7.72
474.959	7.72
475.395	7.71
475.831	7.69
476.266	7.69
476.702	7.67
477.138	7.67
477.573	7.66
478.008	7.66
478.444	7.63
478.879	7.63
479.314	7.61
479.75	7.59
480.185	7.58
480.62	7.56
481.055	7.54
481.49	7.53
481.925	7.52
482.36	7.51
482.795	7.49
483.229	7.5
483.664	7.5
484.099	7.5
484.534	7.49
484.968	7.5
485.403	7.5
485.837	7.5
486.271	7.51
486.706	7.52
487.14	7.53
487.574	7.54
488.009	7.55
488.443	7.57
488.877	7.59
489.311	7.61
489.745	7.64
490.179	7.68
490.613	7.71
491.046	7.73
491.48	7.78
491.914	7.81
492.348	7.86
492.781	7.92
493.215	7.97
493.648	8.02
494.082	8.08
494.515	8.13
494.948	8.18
495.382	8.25
495.815	8.33
496.248	8.4
496.681	8.48
497.114	8.55
497.547	8.63
497.98	8.72
498.413	8.81
498.846	8.91
499.279	9.01
499.711	9.12
500.144	9.23
500.577	9.33
501.009	9.45
501.442	9.57
501.874	9.71
502.306	9.84
502.739	9.99
503.171	10.14
503.603	10.3
504.036	10.46
504.468	10.63
504.9	10.81
505.332	11
505.764	11.2
506.196	11.4
506.627	11.6
507.059	11.81
507.491	12.01
507.923	12.22
508.354	12.45
508.786	12.7
509.217	12.95
509.649	13.2
510.08	13.46
510.512	13.72
510.943	13.99
511.374	14.27
511.805	14.56
512.237	14.85
512.668	15.15
513.099	15.46
513.53	15.75
513.961	16.04
514.391	16.35
514.822	16.66
515.253	16.97
515.684	17.29
516.114	17.61
516.545	17.93
516.975	18.25
517.406	18.57
517.836	18.9
518.267	19.25
518.697	19.59
519.127	19.91
519.558	20.23
519.988	20.56
520.418	20.87
520.848	21.19
521.278	21.5
521.708	21.91
522.138	22.22
522.567	22.51
522.997	22.78
523.427	23.06
523.857	23.34
524.286	23.6
524.716	23.85
525.145	24.11
525.575	24.34
526.004	24.58
526.433	24.7
526.863	24.91
527.292	25.14
527.721	25.34
528.15	25.53
528.579	25.71
529.008	25.88
529.437	26.04
529.866	26.19
530.295	26.35
530.724	26.49
531.152	26.63
531.581	26.77
532.01	26.89
532.438	27.01
532.867	27.12
533.295	27.21
533.723	27.31
534.152	27.39
534.58	27.49
535.008	27.55
535.436	27.64
535.865	27.7
536.293	27.76
536.721	27.79
537.149	27.83
537.576	27.87
538.004	27.91
538.432	27.95
538.86	27.97
539.287	27.98
539.715	28.02
540.143	28.03
540.57	28.06
540.998	28.08
541.425	28.11
541.852	28.14
542.28	28.17
542.707	28.2
543.134	28.22
543.561	28.27
543.988	28.32
544.415	28.35
544.842	28.38
545.269	28.42
545.696	28.47
546.123	28.51
546.549	28.54
546.976	28.58
547.403	28.61
547.829	28.65
548.256	28.67
548.682	28.69
549.108	28.73
549.535	28.77
549.961	28.78
550.387	28.77
550.813	28.78
551.24	28.79
551.666	28.79
552.092	28.8
552.518	28.78
552.943	28.76
553.369	28.75
553.795	28.71
554.221	28.68
554.646	28.65
555.072	28.62
555.498	28.57
555.923	28.53
556.349	28.46
556.774	28.38
557.199	28.31
557.625	28.25
558.05	28.17
558.475	28.09
558.9	27.99
559.325	27.91
559.75	27.8
560.175	27.7
560.6	27.59
561.025	27.48
561.449	27.37
561.874	27.25
562.299	27.1
562.723	26.97
563.148	26.8
563.572	26.63
563.997	26.46
564.421	26.3
564.846	26.12
565.27	25.94
565.694	25.76
566.118	25.56
566.542	25.37
566.966	25.17
567.39	24.98
567.814	24.8
568.238	24.61
568.662	24.42
569.086	24.21
569.509	24.02
569.933	23.83
570.357	23.63
570.78	23.45
571.204	23.25
571.627	23.08
572.05	22.91
572.474	22.76
572.897	22.61
573.32	22.45
573.743	22.31
574.166	22.17
574.589	22.02
575.012	21.89
575.435	21.78
575.858	21.66
576.281	21.54
576.704	21.41
577.126	21.28
577.549	21.16
577.972	21.03
578.394	20.91
578.817	20.8
579.239	20.7
579.661	20.6
580.084	20.49
580.506	20.4
580.928	20.31
581.35	20.22
581.772	20.14
582.194	20.06
582.616	19.98
583.038	19.9
583.46	19.81
583.882	19.73
584.303	19.65
584.725	19.56
585.147	19.48
585.568	19.4
585.99	19.33
586.411	19.25
586.833	19.18
587.254	19.1
587.675	19.05
588.096	18.99
588.518	18.93
588.939	18.89
589.36	18.82
589.781	18.78
590.202	18.75
590.623	18.69
591.043	18.64
591.464	18.59
591.885	18.55
592.305	18.5
592.726	18.46
593.147	18.41
593.567	18.36
593.987	18.32
594.408	18.26
594.828	18.2
595.248	18.18
595.669	18.15
596.089	18.12
596.509	18.08
596.929	18.03
597.349	18
597.769	17.97
598.189	17.92
598.608	17.89
599.028	17.86
599.448	17.81
599.867	17.74
600.287	17.68
600.706	17.63
601.126	17.58
601.545	17.53
601.965	17.47
602.384	17.41
602.803	17.35
603.222	17.28
603.641	17.22
604.061	17.17
604.48	17.11
604.898	17.05
605.317	16.98
605.736	16.91
606.155	16.84
606.574	16.76
606.992	16.67
607.411	16.61
607.829	16.52
608.248	16.42
608.666	16.33
609.085	16.24
609.503	16.15
609.921	16.08
610.339	15.99
610.758	15.91
611.176	15.81
611.594	15.74
612.012	15.63
612.43	15.56
612.847	15.49
613.265	15.41
613.683	15.34
614.101	15.25
614.518	15.16
614.936	15.09
615.353	15
615.771	14.94
616.188	14.87
616.606	14.81
617.023	14.74
617.44	14.69
617.857	14.63
618.274	14.57
618.691	14.51
619.108	14.47
619.525	14.42
619.942	14.39
620.359	14.35
620.776	14.32
621.192	14.27
621.609	14.24
622.026	14.2
622.442	14.17
622.859	14.14
623.275	14.11
623.691	14.09
624.108	14.06
624.524	14.05
624.94	14.03
625.356	14.01
625.772	13.98
626.188	13.97
626.604	13.96
627.02	13.93
627.436	13.93
627.852	13.93
628.268	13.9
628.683	13.89
629.099	13.87
629.514	13.84
629.93	13.82
630.345	13.8
630.761	13.75
631.176	13.71
631.591	13.67
632.007	13.61
632.422	13.55
632.837	13.48
633.252	13.39
633.667	13.32
634.082	13.23
634.497	13.15
634.911	13.05
635.326	12.98
635.741	12.88
636.155	12.77
636.57	12.65
636.984	12.54
637.399	12.43
637.813	12.32
638.228	12.19
638.642	12.07
639.056	11.94
639.47	11.82
639.884	11.68
640.298	11.54
640.712	11.42
641.126	11.3
641.54	11.17
641.954	11.04
642.368	10.93
642.781	10.82
643.195	10.71
643.609	10.61
644.022	10.49
644.436	10.39
644.849	10.29
645.262	10.2
645.676	10.11
646.089	10.03
646.502	9.96
646.915	9.89
647.328	9.82
647.741	9.76
648.154	9.71
648.567	9.65
648.98	9.6
649.393	9.57
649.805	9.54
650.218	9.5
650.631	9.47
651.043	9.44
651.456	9.41
651.868	9.38
652.28	9.33
652.693	9.29
653.105	9.26
653.517	9.23
653.929	9.18
654.341	9.14
654.753	9.09
655.165	9.03
655.577	8.97
655.989	8.91
656.401	8.84
656.813	8.79
657.224	8.71
657.636	8.64
658.047	8.57
658.459	8.49
658.87	8.41
659.282	8.34
659.693	8.26
660.104	8.18
660.515	8.11
660.926	8.04
661.338	7.96
661.749	7.91
662.159	7.84
662.57	7.78
662.981	7.73
663.392	7.67
663.803	7.62
664.213	7.57
664.624	7.53
665.035	7.48
665.445	7.46
665.855	7.43
666.266	7.39
666.676	7.36
667.086	7.34
667.497	7.31
667.907	7.29
668.317	7.28
668.727	7.26
669.137	7.26
669.547	7.25
669.956	7.23
670.366	7.23
670.776	7.24
671.186	7.25
671.595	7.25
672.005	7.26
672.414	7.27
672.824	7.29
673.233	7.31
673.642	7.33
674.052	7.36
674.461	7.38
674.87	7.4
675.279	7.43
675.688	7.46
676.097	7.5
676.506	7.53
676.915	7.58
677.323	7.62
677.732	7.66
678.141	7.71
678.549	7.75
678.958	7.81
679.366	7.88
679.775	7.94
680.183	8.01
680.592	8.1
681	8.2
681.408	8.28
681.816	8.39
682.224	8.5
682.632	8.63
683.04	8.76
683.448	8.92
683.856	9.08
684.264	9.25
684.671	9.46
685.079	9.67
685.487	9.91
685.894	10.18
686.302	10.48
686.709	10.8
687.116	11.14
687.524	11.52
687.931	11.92
688.338	12.34
688.745	12.8
689.152	13.26
689.559	13.77
689.966	14.29
690.373	14.84
690.78	15.42
691.187	16
691.593	16.63
692	17.25
692.407	17.88
692.813	18.54
693.22	19.19
693.626	19.87
694.032	20.55
694.439	21.24
694.845	21.92
695.251	22.61
695.657	23.29
696.063	23.97
696.469	24.67
696.875	25.36
697.281	26.04
697.687	26.74
698.093	27.42
698.498	28.08
698.904	28.75
699.31	29.39
699.715	30.04
700.12	30.67
700.526	31.31
700.931	31.95
701.337	32.56
701.742	33.15
702.147	33.75
702.552	34.33
702.957	34.88
703.362	35.42
703.767	35.95
704.172	36.48
704.577	37.04
704.981	37.56
705.386	38.05
705.791	38.53
706.195	39.04
706.6	39.51
707.004	39.97
707.408	40.46
707.813	40.93
708.217	41.41
708.621	41.88
709.025	42.29
709.43	42.7
709.834	43.16
710.237	43.59
710.641	44.03
711.045	44.43
711.449	44.86
711.853	45.27
712.256	45.67
712.66	46.06
713.064	46.41
713.467	46.8
713.87	47.21
714.274	47.54
714.677	47.91
715.08	48.27
715.484	48.66
715.887	49.02
716.29	49.33
716.693	49.66
717.096	49.99
717.499	50.35
717.901	50.68
718.304	50.97
718.707	51.27
719.109	51.56
719.512	51.82
719.915	52.08
720.317	52.32
720.719	52.59
721.122	52.86
721.524	53.11
721.926	53.34
722.328	53.58
722.731	53.81
723.133	54.06
723.535	54.24
723.937	54.46
724.338	54.66
724.74	54.87
725.142	55.09
725.544	55.25
725.945	55.41
726.347	55.57
726.748	55.69
727.15	55.85
727.551	56.02
727.952	56.18
728.354	56.32
728.755	56.44
729.156	56.6
729.557	56.7
729.958	56.84
730.359	56.98
730.76	57.1
731.161	57.26
731.562	57.4
731.962	57.47
732.363	57.59
732.763	57.69
733.164	57.8
733.564	57.88
733.965	57.95
734.365	58.05
734.766	58.13
735.166	58.2
735.566	58.23
735.966	58.28
736.366	58.35
736.766	58.39
737.166	58.46
737.566	58.53
737.966	58.59
738.365	58.66
738.765	58.74
739.165	58.8
739.564	58.89
739.964	58.95
740.363	58.98
740.763	59.01
741.162	59.08
741.561	59.15
741.96	59.16
742.36	59.19
742.759	59.22
743.158	59.24
743.557	59.26
743.955	59.26
744.354	59.3
744.753	59.36
745.152	59.44
745.55	59.48
745.949	59.52
746.348	59.6
746.746	59.65
747.144	59.7
747.543	59.73
747.941	59.78
748.339	59.82
748.737	59.83
749.136	59.85
749.534	59.84
749.932	59.84
750.33	59.83
750.727	59.84
751.125	59.83
751.523	59.84
751.921	59.82
752.318	59.81
752.716	59.81
753.113	59.81
753.511	59.79
753.908	59.81
754.305	59.81
754.703	59.78
755.1	59.75
755.497	59.76
755.894	59.73
756.291	59.73
756.688	59.7
757.085	59.71
757.482	59.71
757.878	59.71
758.275	59.67
758.672	59.66
759.068	59.7
759.465	59.7
759.861	59.68
760.258	59.72
760.654	59.72
761.05	59.72
761.447	59.71
761.843	59.69
762.239	59.69
762.635	59.69
763.031	59.68
763.427	59.66
763.822	59.66
764.218	59.68
764.614	59.65
765.01	59.64
765.405	59.64
765.801	59.6
766.196	59.62
766.592	59.59
766.987	59.59
767.382	59.57
767.778	59.59
768.173	59.59
768.568	59.55
768.963	59.54
769.358	59.55
769.753	59.59
770.148	59.61
770.542	59.6
770.937	59.63
771.332	59.64
771.726	59.66
772.121	59.63
772.515	59.65
772.91	59.65
773.304	59.68
773.699	59.69
774.093	59.66
774.487	59.67
774.881	59.68
775.275	59.69
775.669	59.67
776.063	59.66
776.457	59.69
776.851	59.66
777.245	59.65
777.638	59.65
778.032	59.64
778.425	59.66
778.819	59.64
779.212	59.65
779.606	59.64
779.999	59.66
780.392	59.68
780.786	59.67
781.179	59.69
781.572	59.75
781.965	59.75
782.358	59.77
782.751	59.75
783.143	59.8
783.536	59.8
783.929	59.83
784.322	59.85
784.714	59.85
785.107	59.88
785.499	59.91
785.891	59.89
786.284	59.93
786.676	59.94
787.068	59.97
787.46	59.95
787.852	59.96
788.245	59.97
788.636	59.98
789.028	59.97
789.42	59.96
789.812	59.94
790.204	59.95
790.595	59.94
790.987	59.93
791.378	59.95
791.77	59.99
792.161	59.97
792.553	59.97
792.944	59.94
793.335	59.99
793.726	60
794.117	60.01
794.508	60.01
794.899	60.02
795.29	60.05
795.681	60.04
796.072	60.02
796.463	60.03
796.853	60.04
797.244	60.07
797.634	60.07
798.025	60.1
798.415	60.09
798.806	60.08
799.196	60.06
799.586	60.05
799.976	60.06
800.366	60.06
800.756	60.08
801.146	60.09
801.536	60.09
801.926	60.07
802.316	60.04
802.706	60.07
803.095	60.11
803.485	60.14
803.874	60.16
804.264	60.18
804.653	60.22
805.043	60.25
805.432	60.28
805.821	60.31
806.21	60.35
806.599	60.38
806.988	60.41
807.377	60.43
807.766	60.43
808.155	60.44
808.544	60.46
808.933	60.47
809.321	60.48
809.71	60.5
810.098	60.48
810.487	60.5
810.875	60.51
811.264	60.53
811.652	60.55
812.04	60.58
812.428	60.62
812.816	60.62
813.204	60.63
813.592	60.64
813.98	60.65
814.368	60.67
814.756	60.65
815.144	60.66
815.531	60.64
815.919	60.65
816.306	60.65
816.694	60.61
817.081	60.63
817.469	60.66
817.856	60.66
818.243	60.63
818.63	60.63
819.017	60.63
819.404	60.62
819.791	60.62
820.178	60.63
820.565	60.61
820.952	60.62
821.339	60.58
821.725	60.55
822.112	60.57
822.498	60.59
822.885	60.62
823.271	60.61
823.657	60.58
824.044	60.58
824.43	60.55
824.816	60.53
825.202	60.52
825.588	60.51
825.974	60.48
826.36	60.44
826.746	60.41
827.132	60.38
827.517	60.37
827.903	60.41
828.289	60.4
828.674	60.36
829.06	60.33
829.445	60.29
829.83	60.29
830.216	60.3
830.601	60.26
830.986	60.23
831.371	60.19
831.756	60.19
832.141	60.13
832.526	60.11
832.911	60.08
833.295	60.09
833.68	60.1
834.065	60.06
834.449	60.03
834.834	60.01
835.218	60.01
835.603	59.99
835.987	59.95
836.371	59.93
836.755	59.88
837.139	59.89
837.524	59.89
837.908	59.87
838.291	59.91
838.675	59.89
839.059	59.92
839.443	59.86
839.827	59.86
840.21	59.87
840.594	59.86
840.977	59.85
841.361	59.83
841.744	59.77
842.127	59.75
842.511	59.69
842.894	59.68
843.277	59.66
843.66	59.66
844.043	59.65
844.426	59.62
844.809	59.63
845.191	59.63
845.574	59.6
845.957	59.65
846.339	59.63
846.722	59.64
847.104	59.63
847.487	59.63
847.869	59.62
848.252	59.62
848.634	59.64
849.016	59.64
849.398	59.66
849.78	59.68
850.162	59.67
850.544	59.69
850.926	59.69
851.307	59.7
851.689	59.7
852.071	59.74
852.452	59.72
852.834	59.72
853.215	59.72
853.597	59.73
853.978	59.71
854.359	59.72
854.741	59.72
855.122	59.69
855.503	59.7
855.884	59.7
856.265	59.68
856.646	59.68
857.026	59.71
857.407	59.72
857.788	59.71
858.169	59.76
858.549	59.73
858.93	59.75
859.31	59.78
859.69	59.79
860.071	59.82
860.451	59.83
860.831	59.83
861.211	59.82
861.591	59.8
861.971	59.81
862.351	59.79
862.731	59.81
863.111	59.79
863.491	59.77
863.87	59.73
864.25	59.71
864.629	59.71
865.009	59.74
865.388	59.7
865.768	59.72
866.147	59.71
866.526	59.7
866.905	59.69
867.284	59.72
867.663	59.72
868.042	59.74
868.421	59.76
868.8	59.78
869.179	59.76
869.558	59.76
869.936	59.75
870.315	59.75
870.693	59.77
871.072	59.78
871.45	59.78
871.828	59.8
872.207	59.8
872.585	59.77
872.963	59.75
873.341	59.76
873.719	59.76
874.097	59.77
874.475	59.77
874.853	59.76
875.23	59.77
875.608	59.76
875.986	59.79
876.363	59.78
876.741	59.78
877.118	59.78
877.495	59.77
877.873	59.79
878.25	59.83
878.627	59.84
879.004	59.85
879.381	59.85
879.758	59.85
880.135	59.82
880.512	59.83
880.889	59.83
881.265	59.82
881.642	59.82
882.019	59.83
882.395	59.77
882.772	59.74
883.148	59.72
883.524	59.7
883.901	59.69
884.277	59.66
884.653	59.62
885.029	59.6
885.405	59.6
885.781	59.59
886.157	59.56
886.532	59.56
886.908	59.55
887.284	59.55
887.659	59.52
888.035	59.5
888.411	59.49
888.786	59.51
889.161	59.5
889.537	59.48
889.912	59.46
890.287	59.46
890.662	59.43
891.037	59.44
891.412	59.4
891.787	59.39
892.162	59.38
892.536	59.36
892.911	59.32
893.286	59.31
893.66	59.27
894.035	59.24
894.409	59.19
894.784	59.17
895.158	59.16
895.532	59.14
895.906	59.12
896.281	59.1
896.655	59.07
897.029	59.08
897.402	59.06
897.776	59.08
898.15	59.09
898.524	59.13
898.898	59.13
899.271	59.12
899.645	59.16
900.018	59.18
900.392	59.21
900.765	59.24
901.138	59.23
901.511	59.25
901.884	59.28
902.258	59.3
902.631	59.3
903.003	59.32
903.376	59.34
903.749	59.31
904.122	59.33
904.495	59.35
904.867	59.38
905.24	59.42
905.612	59.45
905.985	59.42
906.357	59.44
906.729	59.46
907.102	59.49
907.474	59.52
907.846	59.54
908.218	59.55
908.59	59.57
908.962	59.58
909.334	59.59
909.705	59.58
910.077	59.61
910.449	59.6
910.82	59.59
911.192	59.58
911.563	59.55
911.935	59.56
912.306	59.58
912.677	59.59
913.048	59.59
913.419	59.58
913.79	59.59
914.161	59.61
914.532	59.62
914.903	59.65
915.274	59.65
915.645	59.66
916.015	59.67
916.386	59.64
916.756	59.6
917.127	59.62
917.497	59.63
917.868	59.64
918.238	59.61
918.608	59.66
918.978	59.69
919.348	59.71
919.718	59.71
920.088	59.73
920.458	59.75
920.828	59.74
921.198	59.71
921.567	59.76
921.937	59.77
922.306	59.77
922.676	59.75
923.045	59.7
923.415	59.68
923.784	59.69
924.153	59.68
924.522	59.68
924.891	59.7
925.26	59.72
925.629	59.71
925.998	59.72
926.367	59.73
926.736	59.73
927.104	59.74
927.473	59.74
927.842	59.73
928.21	59.77
928.578	59.79
928.947	59.84
929.315	59.82
929.683	59.75
930.051	59.67
930.42	59.66
930.788	59.63
931.156	59.57
931.523	59.54
931.891	59.52
932.259	59.46
932.627	59.37
932.994	59.31
933.362	59.24
933.729	59.23
934.097	59.22
934.464	59.18
934.831	59.15
935.199	59.17
935.566	59.16
935.933	59.15
936.3	59.14
936.667	59.17
937.034	59.16
937.401	59.22
937.767	59.27
938.134	59.34
938.501	59.36
938.867	59.44
939.234	59.44
939.6	59.48
939.967	59.54
940.333	59.6
940.699	59.66
941.065	59.71
941.431	59.76
941.798	59.79
942.163	59.82
942.529	59.9
942.895	59.94
943.261	59.97
943.627	60.01
943.992	60.02
944.358	60.03
944.723	60.07
945.089	60.04
945.454	60.09
945.82	60.1
946.185	60.12
946.55	60.06
946.915	60.1
947.28	60.15
947.645	60.18
948.01	60.16
948.375	60.11
948.74	60.05
949.104	60.14
949.469	60.08
949.834	60.02
950.198	59.93
950.562	59.9
950.927	59.78
951.291	59.66
951.655	59.55
952.02	59.54
952.384	59.5
952.748	59.47
953.112	59.4
953.476	59.32
953.839	59.29
954.203	59.27
954.567	59.23
954.931	59.19
955.294	59.15
955.658	59.2
956.021	59.14
956.385	59.11
956.748	59.08
957.111	59.09
957.474	59.07
957.837	59.02
958.2	59.02
958.563	58.99
958.926	59.05
959.289	59.07
959.652	59.02
960.015	59.04
960.377	59.07
960.74	59.04
961.102	58.99
961.465	59.09
961.827	59.06
962.189	59.11
962.552	59.1
962.914	59.05
963.276	59.1
963.638	59.1
964	59.08
964.362	59
964.724	59.02
965.085	59
965.447	58.92
965.809	58.92
966.17	58.88
966.532	58.87
966.893	58.88
967.255	58.88
967.616	58.86
967.977	58.89
968.338	58.94
968.699	58.96
969.061	58.97
969.421	58.98
969.782	58.98
970.143	59.03
970.504	59.08
970.865	59.05
971.225	59.02
971.586	59.08
971.946	59.03
972.307	59
972.667	58.98
973.027	59.01
973.388	58.96
973.748	59
974.108	59.02
974.468	59.01
974.828	59.09
975.188	59.16
975.548	59.06
975.907	59.11
976.267	59.16
976.627	59.17
976.986	59.16
977.346	59.24
977.705	59.25
978.064	59.2
978.424	59.2
978.783	59.22
979.142	59.18
979.501	59.26
979.86	59.27
980.219	59.25
980.578	59.3
980.937	59.32
981.296	59.22
981.654	59.24
982.013	59.28
982.371	59.29
982.73	59.26
983.088	59.24
983.447	59.18
983.805	59.15
984.163	59.18
984.521	59.14
984.879	59.07
985.237	59.14
985.595	59.13
985.953	59.04
986.311	58.98
986.669	58.97
987.026	59.06
987.384	59.18
987.741	59.22
988.099	59.26
988.456	59.32
988.814	59.46
989.171	59.54
989.528	59.59
989.885	59.75
990.242	59.87
990.599	59.98
990.956	60
991.313	60.07
991.67	60.13
992.027	60.24
992.383	60.31
992.74	60.35
993.096	60.3
993.453	60.3
993.809	60.33
994.165	60.38
994.522	60.31
994.878	60.37
995.234	60.38
995.59	60.33
995.946	60.23
996.302	60.24
996.658	60.32
997.013	60.38
997.369	60.5
997.725	60.53
998.08	60.64
998.436	60.72
998.791	60.71
999.147	60.69
999.502	60.88
999.857	60.95
1000.212	60.86
1000.567	60.84
1000.922	60.91
1001.277	60.92
1001.632	60.91
1001.987	60.89
1002.342	61.02
1002.696	60.98
1003.051	61.19
1003.406	61.28
1003.76	61.32
1004.114	61.48
1004.469	61.64
1004.823	61.98
1005.177	62.04
1005.531	62.09
1005.885	62.15
1006.239	61.99
1006.593	62.26
1006.947	62.2
1007.301	61.98
1007.655	62.07
1008.008	62.09
1008.362	62.07
1008.715	61.92
1009.069	61.98
1009.422	62.06
1009.776	62.11
1010.129	62.43
1010.482	62.43
1010.835	62.52
1011.188	62.89
1011.541	62.85
1011.894	63.09
1012.247	63.2
1012.6	63.31
1012.952	63.4
1013.305	63.63
1013.657	63.67
1014.01	63.54
1014.362	63.7
1014.715	63.72
1015.067	63.72
1015.419	63.98
1015.771	63.71
1016.123	63.68
1016.475	63.67
1016.827	63.69
1017.179	63.6
1017.531	63.8
1017.883	64.05
1018.234	64.01
1018.586	63.93
1018.938	64.2
1019.289	64.12
1019.64	64.46
1019.992	64.62
1020.343	64.8
1020.694	65.01
1021.045	65.1
1021.396	65.15
1021.747	65.24
1022.098	65.57
1022.449	66.03
1022.8	65.87
1023.151	66.12
1023.501	66.21
1023.852	66.31
1024.202	66.25
1024.553	66.19
1024.903	66.28
1025.253	66.27
1025.604	66.36
1025.954	65.88
1026.304	65.92
1026.654	66.31
1027.004	66.52
1027.354	66.74
1027.703	67.07
1028.053	67.12
1028.403	67.2
1028.753	67.3
1029.102	67.66
1029.452	67.93
1029.801	68.62
1030.15	68.58
1030.499	68.33
897.758	969.18
901.051	975.79
904.343	978.9
907.636	993.41
910.928	965.33
914.22	964.43
917.511	951.67
920.803	910.38
924.094	909.84
927.384	883.97
930.675	851.94
933.965	849.29
937.255	796.46
940.544	763.08
943.834	730.61
947.123	725.68
950.411	683.78
953.7	670.29
956.988	635.6
960.276	611.5
963.563	604.24
966.851	580.35
970.138	574.96
973.424	560.79
976.711	563.07
979.997	534.71
983.283	532.71
986.568	522.18
989.853	507.21
993.138	498.66
996.423	479.68
999.708	466.02
1002.992	461.55
1006.275	443.53
1009.559	440.74
1012.842	424.59
1016.125	414.18
1019.408	405.68
1022.69	401.8
1025.972	392.92
1029.254	383.68
1032.536	376.33
1035.817	370.91
1039.098	366.8
1042.379	359.9
1045.659	355.04
1048.939	347.46
1052.219	340.92
1055.498	337.79
1058.778	329.4
1062.057	323.71
1065.335	321.51
1068.614	318.41
1071.892	313.71
1075.17	304.46
1078.447	299.37
1081.724	297.23
1085.001	294.87
1088.278	290.1
1091.554	284.05
1094.83	284.76
1098.106	282.57
1101.382	279.03
1104.657	276.77
1107.932	273.29
1111.206	274.73
1114.481	268.25
1117.755	266.23
1121.029	263.94
1124.302	263.05
1127.575	259.07
1130.848	256.1
1134.121	253.88
1137.393	253.05
1140.665	248.25
1143.937	246.22
1147.208	244.36
1150.48	243.53
1153.75	239.42
1157.021	237.36
1160.291	237.42
1163.561	234.02
1166.831	234.23
1170.101	232.36
1173.37	232.42
1176.639	232.89
1179.907	231.21
1183.176	228.94
1186.444	228.52
1189.711	229
1192.979	228.06
1196.246	226.69
1199.513	228.15
1202.78	226.3
1206.046	226.4
1209.312	223.93
1212.578	224.18
1215.843	225.08
1219.108	224.92
1222.373	228.57
1225.638	230.16
1228.902	233
1232.166	232.72
1235.43	233.13
1238.693	236.15
1241.956	237.41
1245.219	240.89
1248.482	240.82
1251.744	241.29
1255.006	241.54
1258.268	237.05
1261.529	234.83
1264.79	233.88
1268.051	232.17
1271.312	230.77
1274.572	227.95
1277.832	225.86
1281.092	222.29
1284.351	221.22
1287.61	221.05
1290.869	217.64
1294.128	215.98
1297.386	215.69
1300.644	213.56
1303.902	215.07
1307.159	214.47
1310.416	214.52
1313.673	213.49
1316.93	216.37
1320.186	215.63
1323.442	216.02
1326.697	218.62
1329.953	220.4
1333.208	220.94
1336.463	223.56
1339.717	223.66
1342.972	225.58
1346.226	227.51
1349.479	228.69
1352.733	228.35
1355.986	230.84
1359.238	230.34
1362.491	231.59
1365.743	233.65
1368.995	234.36
1372.247	233.84
1375.498	233.72
1378.749	234.6
1382	232.11
1385.251	232.63
1388.501	231.25
1391.751	230.37
1395	229.18
1398.25	227.66
1401.499	224.45
1404.748	223.38
1407.996	220.38
1411.244	219.21
1414.492	217.26
1417.74	214.17
1420.987	211.17
1424.234	210.53
1427.481	208.9
1430.728	209.25
1433.974	206.48
1437.22	204.82
1440.465	204.33
1443.711	202.21
1446.956	200.98
1450.201	199.42
1453.445	198.32
1456.689	197.31
1459.933	194.14
1463.177	192.24
1466.42	189.32
1469.663	187.55
1472.906	186.61
1476.148	182.1
1479.391	180.78
1482.633	179.45
1485.874	177.08
1489.115	175.82
1492.356	174.36
1495.597	174.49
1498.838	172.49
1502.078	171.62
1505.318	171.43
1508.557	171.59
1511.797	171.67
1515.036	169.98
1518.274	169.64
1521.513	168.87
1524.751	168.66
1527.989	168.22
1531.227	167.39
1534.464	167.5
1537.701	167.31
1540.938	166.76
1544.174	164.55
1547.41	165.26
1550.646	165.37
1553.882	165.15
1557.117	163.35
1560.352	162.82
1563.587	162.45
1566.821	161.37
1570.055	160.89
1573.289	158.94
1576.523	159.22
1579.756	158.68
1582.989	157.39
1586.222	156.72
1589.454	156.7
1592.686	157.45
1595.918	156.8
1599.15	156.31
1602.381	157.14
1605.612	156.26
1608.843	157.14
1612.073	156.87
1615.303	157.73
1618.533	158.02
1621.762	158.38
1624.992	158.3
1628.221	158.17
1631.449	157.72
1634.678	158.04
1637.906	158.57
1641.134	158.48
1644.361	158.09
1647.588	158.52
1650.815	157.83
1654.042	157.18
1657.269	157.91
1660.495	157.57
1663.72	156.89
1666.946	157.99
1670.171	158.19
1673.396	157.81
1676.621	157.53
1679.845	158.82
1683.069	158.81
1686.293	159.53
1689.517	160.35
1692.74	159.85
1695.963	160.53
1699.185	162.22
1702.408	161.75
1705.63	161.96
1708.852	162.43
1712.073	163.33
1715.294	162.62
1718.515	163.42
1721.736	163.31
1724.956	164
1728.176	164.28
1731.396	164.87
1734.616	164.28
1737.835	165.27
1741.054	164.18
1744.272	164.12
1747.491	165.31
1750.709	165.8
1753.927	165.53
1757.144	165.23
1760.361	165.07
1763.578	165.63
1766.795	165.32
1770.011	166.94
1773.227	166.52
1776.443	168.49
1779.658	169.11
1782.874	168.35
1786.089	168.34
1789.303	168.87
1792.518	170.41
1795.732	170.16
1798.945	170.89
1802.159	171.58
1805.372	171.13
1808.585	173.78
1811.797	173.84
1815.01	175.02
1818.222	176.38
1821.434	178.81
1824.645	179
1827.856	181.76
1831.067	183.27
1834.278	183.71
1837.488	184.43
1840.698	185.87
1843.908	184.49
1847.117	184.94
1850.326	185.54
1853.535	184.03
1856.744	185.71
1859.952	185.51
1863.16	183.89
1866.368	182.44
1869.575	182.57
1872.782	179.51
1875.989	178.37
1879.196	177.85
1882.402	176.7
1885.608	175.52
1888.814	175.42
1892.019	173.87
1895.224	172.61
1898.429	171.19
1901.634	171.52
1904.838	170.99
1908.042	172.27
1911.246	172.18
1914.449	171.54
1917.652	171.82
1920.855	171.3
1924.058	172.4
1927.26	170.79
1930.462	171.38
1933.664	173.34
1936.865	171.81
1940.066	171.3
1943.267	170.7
1946.467	171.07
1949.668	172.07
1952.868	173.33
1956.067	174.42
1959.267	173.36
1962.466	174.04
1965.665	173.82
1968.863	174.47
1972.061	178.1
1975.259	180.19
1978.457	180.77
1981.654	182.51
1984.852	183.2
1988.048	183.04
1991.245	184.81
1994.441	187.32
1997.637	189.29
2000.833	193.08
2004.028	195.59
2007.223	195.66
2010.418	197.38
2013.613	201.7
2016.807	203.08
2020.001	205.53
2023.194	208.93
2026.388	214.27
2029.581	219.45
2032.774	220.87
2035.966	224.58
2039.158	225.18
2042.35	229.67
2045.542	231.47
2048.733	235.12
2051.924	238.58
2055.115	242.52
2058.306	243.24
2061.496	243.84
2064.686	244.51
2067.875	248.89
2071.065	250.58
2074.254	248.22
2077.442	252.91
2080.631	253.26
2083.819	255.26
2087.007	255.89
2090.195	258.89
2093.382	260.93
2096.569	260.12
2099.756	263.3
2102.942	263.91
2106.128	265.05
2109.314	272.96
2112.5	270.91
2115.685	277.29
2118.87	278.02
2122.055	283.53
2125.239	284
2128.424	287.41
2131.608	289.63
2134.791	294.07
2137.974	295.47
2141.157	296.65
2144.34	296.23
2147.523	301.48
2150.705	299.91
2153.887	303.2
2157.068	303.07
2160.25	301.14
2163.431	303.41
2166.611	306.35
2169.792	311.85
2172.972	314.64
2176.152	317.5
2179.331	321.59
2182.511	324.63
2185.69	327.69
2188.868	334.01
2192.047	334.95
2195.225	345.09
2198.403	352.62
2201.58	357.77
2204.758	365.46
2207.935	373.03
2211.111	380.38
2214.288	383.86
2217.464	385.26
2220.64	391.67
2223.815	395.52
2226.991	411.12
2230.166	411.41
2233.34	416.82
2236.515	427.08
2239.689	425.72
2242.863	429.16
2246.036	438.37
2249.209	434.81
2252.382	443.94
2255.555	454.23
2258.727	457.02
2261.9	460.33
2265.071	464.27
2268.243	471.5
2271.414	475.23
2274.585	483.8
2277.756	487.38
2280.926	492.78
2284.096	506.21
2287.266	514.95
2290.436	522.3
2293.605	532.2
2296.774	546.46
2299.942	561.12
2303.111	566.26
2306.279	578.4
2309.447	585.99
2312.614	603.31
2315.781	618.26
2318.948	646.26
2322.115	636.64
2325.281	669.89
2328.447	658.66
2331.613	684.73
2334.779	680.66
2337.944	706.62
2341.109	713.89
2344.274	735.04
2347.438	757.15
2350.602	760.62
2353.766	781.41
2356.929	794.92
2360.092	789.93
2363.255	844.14
2366.418	842.1
2369.58	856.23
2372.742	914.54
2375.904	936.78
2379.066	929.52
2382.227	911.78
2385.388	981.7
2388.548	983.24
2391.709	991.35
2394.869	1101.48
2398.029	1060.49
2401.188	1091.72
2404.347	1086.64
2407.506	1062.87
2410.665	1092.47
2413.823	1159.5
2416.981	1225.82
2420.139	1193.37
2423.296	1176.43
2426.453	1236.88
2429.61	1189.54
2432.767	1238.21
2435.923	1223.32
2439.079	1342.82
2442.235	1365.64
2445.391	1354.29
2448.546	1337.57
2451.701	1302.07
2454.855	1293.48
2458.009	1383.6
2461.163	1433
2464.317	1482.24
2467.471	1517.12
2470.624	1519.34
2473.777	1477.29
2476.929	1433.04
2480.082	1389.56
2483.234	1382.01
2486.385	1456.87
2489.537	1465.79
2492.688	1509.24
2495.839	1475.49
2498.989	1442.79
2502.14	1450.68
2505.29	1464.6
2508.439	1480.01
2511.589	1479.99
2514.738	1618.69
2517.887	1580.61
2521.035	1659.03
2524.183	1681.57
2527.331	1690.55
2530.479	1670.07
2533.627	1686.9
