Data from N_3_DEC_ON_6N_Splice17_14-25-43-178.txt Node
Date: Sat Mar 07 14:25:43 EST 2020
User: sa697716
Spectrometer: NQ5500242
Trigger mode: 0
Integration Time (sec): 1.450000E-1
Scans to average: 20
Nonlinearity correction enabled: false
Boxcar width: 5
Storing dark spectrum: false
XAxis mode: Wavelengths
Number of Pixels in Spectrum: 512
>>>>>Begin Spectral Data<<<<<
187.83	80.9
188.298	89.58
188.766	71.96
189.233	73.46
189.701	71.49
190.169	78.26
190.636	65.64
191.104	47.02
191.571	-121.03
192.039	-54.28
192.506	182.54
192.974	92.35
193.441	122.21
193.908	14.24
194.375	76.87
194.842	27.2
195.31	27.73
195.777	88.45
196.244	74.29
196.711	71.88
197.177	73.09
197.644	72.65
198.111	72
198.578	71.8
199.045	72.22
199.511	71.69
199.978	71.65
200.445	72.22
200.911	72.5
201.378	72.62
201.844	72.21
202.31	71.83
202.777	71.74
203.243	71.84
203.709	71.74
204.176	70.97
204.642	70.54
205.108	70.58
205.574	69.75
206.04	68.81
206.506	68.12
206.972	68.51
207.438	67.81
207.903	67.16
208.369	65.6
208.835	64.32
209.301	63.22
209.766	61.56
210.232	59.54
210.697	57.76
211.163	56.24
211.628	54.72
212.094	52.71
212.559	51.32
213.024	49.77
213.49	48.67
213.955	47.41
214.42	46.11
214.885	44.87
215.35	43.27
215.815	41.03
216.28	38.03
216.745	34.92
217.21	31.72
217.675	28.68
218.14	26.1
218.604	23.87
219.069	21.99
219.534	20.41
219.998	19.04
220.463	17.9
220.927	16.94
221.392	16.21
221.856	15.54
222.32	15.02
222.785	14.58
223.249	14.18
223.713	13.79
224.177	13.48
224.642	13.17
225.106	12.89
225.57	12.63
226.034	12.4
226.497	12.15
226.961	11.96
227.425	11.76
227.889	11.59
228.353	11.38
228.816	11.19
229.28	11.02
229.744	10.84
230.207	10.68
230.671	10.51
231.134	10.36
231.597	10.24
232.061	10.11
232.524	9.97
232.987	9.83
233.45	9.74
233.914	9.62
234.377	9.5
234.84	9.41
235.303	9.32
235.766	9.24
236.229	9.14
236.691	9.05
237.154	8.96
237.617	8.87
238.08	8.81
238.542	8.73
239.005	8.67
239.468	8.61
239.93	8.54
240.393	8.47
240.855	8.4
241.317	8.33
241.78	8.27
242.242	8.19
242.704	8.14
243.166	8.08
243.629	8
244.091	7.94
244.553	7.86
245.015	7.8
245.477	7.74
245.939	7.66
246.4	7.6
246.862	7.54
247.324	7.49
247.786	7.43
248.247	7.36
248.709	7.29
249.17	7.23
249.632	7.19
250.093	7.14
250.555	7.09
251.016	7.06
251.477	7.01
251.939	6.98
252.4	6.94
252.861	6.9
253.322	6.88
253.783	6.85
254.244	6.83
254.705	6.8
255.166	6.77
255.627	6.73
256.088	6.7
256.549	6.67
257.009	6.63
257.47	6.6
257.931	6.55
258.391	6.52
258.852	6.48
259.312	6.44
259.773	6.4
260.233	6.38
260.694	6.35
261.154	6.31
261.614	6.28
262.074	6.25
262.534	6.22
262.994	6.2
263.455	6.17
263.915	6.15
264.374	6.12
264.834	6.1
265.294	6.07
265.754	6.05
266.214	6.03
266.673	6.02
267.133	6
267.593	5.99
268.052	5.97
268.512	5.96
268.971	5.95
269.431	5.94
269.89	5.93
270.349	5.93
270.809	5.91
271.268	5.91
271.727	5.9
272.186	5.9
272.645	5.9
273.104	5.9
273.563	5.89
274.022	5.88
274.481	5.88
274.94	5.88
275.399	5.87
275.857	5.87
276.316	5.86
276.775	5.85
277.233	5.85
277.692	5.85
278.15	5.84
278.609	5.84
279.067	5.84
279.525	5.84
279.984	5.83
280.442	5.83
280.9	5.83
281.358	5.83
281.816	5.84
282.274	5.83
282.732	5.82
283.19	5.82
283.648	5.82
284.106	5.81
284.564	5.8
285.021	5.8
285.479	5.81
285.937	5.8
286.394	5.8
286.852	5.78
287.309	5.79
287.767	5.78
288.224	5.77
288.682	5.76
289.139	5.75
289.596	5.74
290.053	5.72
290.511	5.7
290.968	5.69
291.425	5.66
291.882	5.66
292.339	5.64
292.796	5.63
293.252	5.62
293.709	5.61
294.166	5.61
294.623	5.6
295.079	5.6
295.536	5.59
295.992	5.59
296.449	5.59
296.905	5.58
297.362	5.57
297.818	5.56
298.274	5.56
298.731	5.56
299.187	5.55
299.643	5.54
300.099	5.53
300.555	5.53
301.011	5.53
301.467	5.52
301.923	5.52
302.379	5.52
302.835	5.52
303.291	5.51
303.746	5.5
304.202	5.5
304.658	5.51
305.113	5.51
305.569	5.51
306.024	5.51
306.479	5.51
306.935	5.51
307.39	5.51
307.845	5.52
308.301	5.53
308.756	5.53
309.211	5.54
309.666	5.56
310.121	5.56
310.576	5.56
311.031	5.56
311.486	5.58
311.94	5.58
312.395	5.58
312.85	5.58
313.305	5.58
313.759	5.59
314.214	5.59
314.668	5.58
315.123	5.58
315.577	5.58
316.032	5.58
316.486	5.57
316.94	5.56
317.394	5.56
317.849	5.55
318.303	5.54
318.757	5.52
319.211	5.51
319.665	5.5
320.119	5.49
320.572	5.48
321.026	5.47
321.48	5.47
321.934	5.46
322.387	5.46
322.841	5.45
323.295	5.45
323.748	5.45
324.202	5.45
324.655	5.45
325.108	5.45
325.562	5.45
326.015	5.45
326.468	5.45
326.921	5.45
327.374	5.45
327.827	5.45
328.28	5.45
328.733	5.45
329.186	5.45
329.639	5.45
330.092	5.44
330.545	5.44
330.997	5.45
331.45	5.45
331.903	5.46
332.355	5.48
332.808	5.48
333.26	5.48
333.713	5.49
334.165	5.48
334.617	5.49
335.069	5.49
335.522	5.51
335.974	5.51
336.426	5.51
336.878	5.51
337.33	5.51
337.782	5.51
338.234	5.51
338.686	5.51
339.137	5.53
339.589	5.51
340.041	5.51
340.493	5.5
340.944	5.48
341.396	5.48
341.847	5.46
342.299	5.44
342.75	5.43
343.201	5.41
343.653	5.4
344.104	5.37
344.555	5.36
345.006	5.35
345.457	5.33
345.908	5.33
346.359	5.32
346.81	5.31
347.261	5.31
347.712	5.3
348.163	5.29
348.613	5.3
349.064	5.3
349.515	5.3
349.965	5.3
350.416	5.3
350.866	5.3
351.317	5.29
351.767	5.28
352.217	5.29
352.668	5.29
353.118	5.29
353.568	5.28
354.018	5.28
354.468	5.29
354.918	5.28
355.368	5.29
355.818	5.3
356.268	5.3
356.718	5.31
357.168	5.31
357.617	5.3
358.067	5.31
358.517	5.34
358.966	5.34
359.416	5.35
359.865	5.36
360.315	5.37
360.764	5.37
361.213	5.37
361.663	5.37
362.112	5.39
362.561	5.4
363.01	5.41
363.459	5.41
363.908	5.42
364.357	5.43
364.806	5.43
365.255	5.44
365.703	5.47
366.152	5.49
366.601	5.52
367.05	5.55
367.498	5.56
367.947	5.59
368.395	5.61
368.844	5.63
369.292	5.66
369.74	5.7
370.189	5.73
370.637	5.76
371.085	5.8
371.533	5.83
371.981	5.87
372.429	5.92
372.877	5.97
373.325	6.03
373.773	6.09
374.221	6.14
374.669	6.2
375.116	6.26
375.564	6.33
376.012	6.39
376.459	6.47
376.907	6.53
377.354	6.6
377.801	6.68
378.249	6.76
378.696	6.83
379.143	6.91
379.591	7
380.038	7.09
380.485	7.18
380.932	7.27
381.379	7.36
381.826	7.46
382.273	7.56
382.72	7.65
383.166	7.75
383.613	7.85
384.06	7.94
384.506	8.03
384.953	8.13
385.4	8.22
385.846	8.32
386.292	8.41
386.739	8.49
387.185	8.57
387.631	8.67
388.078	8.75
388.524	8.83
388.97	8.92
389.416	9
389.862	9.08
390.308	9.16
390.754	9.25
391.2	9.32
391.645	9.4
392.091	9.49
392.537	9.57
392.983	9.64
393.428	9.73
393.874	9.8
394.319	9.87
394.765	9.92
395.21	9.96
395.655	10
396.101	10.05
396.546	10.09
396.991	10.13
397.436	10.17
397.881	10.21
398.326	10.24
398.771	10.28
399.216	10.32
399.661	10.37
400.106	10.4
400.551	10.42
400.995	10.41
401.44	10.41
401.885	10.43
402.329	10.42
402.774	10.44
403.218	10.47
403.663	10.47
404.107	10.48
404.551	10.47
404.995	10.47
405.44	10.47
405.884	10.49
406.328	10.51
406.772	10.5
407.216	10.51
407.66	10.49
408.104	10.47
408.547	10.47
408.991	10.46
409.435	10.45
409.879	10.45
410.322	10.45
410.766	10.45
411.209	10.45
411.653	10.45
412.096	10.44
412.54	10.44
412.983	10.44
413.426	10.45
413.869	10.46
414.312	10.47
414.756	10.49
415.199	10.5
415.642	10.5
416.085	10.51
416.527	10.5
416.97	10.49
417.413	10.48
417.856	10.46
418.298	10.42
418.741	10.4
419.184	10.37
419.626	10.36
420.069	10.34
420.511	10.32
420.953	10.29
421.396	10.28
421.838	10.28
422.28	10.28
422.722	10.29
423.164	10.3
423.606	10.31
424.048	10.31
424.49	10.3
424.932	10.31
425.374	10.28
425.816	10.26
426.258	10.24
426.699	10.19
427.141	10.16
427.582	10.14
428.024	10.14
428.465	10.12
428.907	10.11
429.348	10.09
429.789	10.06
430.231	10.07
430.672	10.08
431.113	10.1
431.554	10.12
431.995	10.12
432.436	10.12
432.877	10.12
433.318	10.13
433.759	10.13
434.2	10.15
434.64	10.18
435.081	10.19
435.522	10.21
435.962	10.23
436.403	10.27
436.843	10.31
437.284	10.32
437.724	10.34
438.164	10.35
438.604	10.4
439.045	10.43
439.485	10.44
439.925	10.45
440.365	10.46
440.805	10.49
441.245	10.5
441.685	10.55
442.125	10.59
442.564	10.63
443.004	10.67
443.444	10.71
443.883	10.75
444.323	10.79
444.762	10.85
445.202	10.91
445.641	10.98
446.081	11.04
446.52	11.06
446.959	11.14
447.398	11.2
447.837	11.25
448.276	11.29
448.716	11.34
449.154	11.4
449.593	11.43
450.032	11.45
450.471	11.46
450.91	11.46
451.349	11.5
451.787	11.48
452.226	11.47
452.664	11.46
453.103	11.47
453.541	11.46
453.98	11.47
454.418	11.46
454.856	11.46
455.295	11.45
455.733	11.44
456.171	11.42
456.609	11.42
457.047	11.42
457.485	11.41
457.923	11.41
458.361	11.39
458.798	11.38
459.236	11.36
459.674	11.34
460.111	11.33
460.549	11.33
460.987	11.34
461.424	11.34
461.862	11.33
462.299	11.32
462.736	11.3
463.173	11.3
463.611	11.3
464.048	11.3
464.485	11.3
464.922	11.29
465.359	11.3
465.796	11.31
466.233	11.3
466.67	11.3
467.106	11.32
467.543	11.32
467.98	11.32
468.416	11.33
468.853	11.34
469.29	11.35
469.726	11.37
470.162	11.38
470.599	11.37
471.035	11.37
471.471	11.39
471.907	11.39
472.344	11.4
472.78	11.43
473.216	11.42
473.652	11.44
474.088	11.45
474.523	11.45
474.959	11.45
475.395	11.45
475.831	11.46
476.266	11.48
476.702	11.48
477.138	11.47
477.573	11.48
478.008	11.49
478.444	11.46
478.879	11.47
479.314	11.47
479.75	11.47
480.185	11.47
480.62	11.47
481.055	11.46
481.49	11.46
481.925	11.46
482.36	11.46
482.795	11.45
483.229	11.46
483.664	11.47
484.099	11.47
484.534	11.47
484.968	11.5
485.403	11.51
485.837	11.55
486.271	11.58
486.706	11.6
487.14	11.63
487.574	11.67
488.009	11.72
488.443	11.75
488.877	11.81
489.311	11.88
489.745	11.93
490.179	11.99
490.613	12.05
491.046	12.12
491.48	12.2
491.914	12.28
492.348	12.36
492.781	12.45
493.215	12.55
493.648	12.65
494.082	12.74
494.515	12.83
494.948	12.95
495.382	13.06
495.815	13.17
496.248	13.3
496.681	13.43
497.114	13.57
497.547	13.7
497.98	13.84
498.413	13.97
498.846	14.13
499.279	14.27
499.711	14.43
500.144	14.6
500.577	14.77
501.009	14.93
501.442	15.09
501.874	15.27
502.306	15.45
502.739	15.63
503.171	15.82
503.603	16
504.036	16.22
504.468	16.42
504.9	16.61
505.332	16.81
505.764	17.02
506.196	17.24
506.627	17.46
507.059	17.7
507.491	17.92
507.923	18.16
508.354	18.43
508.786	18.67
509.217	18.92
509.649	19.18
510.08	19.44
510.512	19.7
510.943	19.98
511.374	20.25
511.805	20.51
512.237	20.79
512.668	21.05
513.099	21.31
513.53	21.57
513.961	21.82
514.391	22.1
514.822	22.36
515.253	22.63
515.684	22.89
516.114	23.16
516.545	23.41
516.975	23.65
517.406	23.9
517.836	24.15
518.267	24.41
518.697	24.63
519.127	24.87
519.558	25.11
519.988	25.34
520.418	25.56
520.848	25.76
521.278	25.98
521.708	26.28
522.138	26.49
522.567	26.7
522.997	26.89
523.427	27.1
523.857	27.28
524.286	27.44
524.716	27.62
525.145	27.78
525.575	27.94
526.004	28.1
526.433	28.15
526.863	28.3
527.292	28.43
527.721	28.57
528.15	28.7
528.579	28.82
529.008	28.95
529.437	29.04
529.866	29.15
530.295	29.24
530.724	29.33
531.152	29.43
531.581	29.51
532.01	29.6
532.438	29.68
532.867	29.75
533.295	29.83
533.723	29.89
534.152	29.96
534.58	30.04
535.008	30.08
535.436	30.14
535.865	30.19
536.293	30.23
536.721	30.27
537.149	30.3
537.576	30.33
538.004	30.37
538.432	30.39
538.86	30.39
539.287	30.39
539.715	30.42
540.143	30.43
540.57	30.46
540.998	30.47
541.425	30.49
541.852	30.49
542.28	30.51
542.707	30.52
543.134	30.54
543.561	30.58
543.988	30.62
544.415	30.64
544.842	30.66
545.269	30.67
545.696	30.7
546.123	30.73
546.549	30.76
546.976	30.79
547.403	30.82
547.829	30.84
548.256	30.87
548.682	30.9
549.108	30.94
549.535	30.98
549.961	31
550.387	31
550.813	31.02
551.24	31.04
551.666	31.05
552.092	31.07
552.518	31.1
552.943	31.1
553.369	31.1
553.795	31.09
554.221	31.08
554.646	31.08
555.072	31.07
555.498	31.04
555.923	31.02
556.349	30.98
556.774	30.95
557.199	30.89
557.625	30.86
558.05	30.84
558.475	30.8
558.9	30.77
559.325	30.73
559.75	30.69
560.175	30.64
560.6	30.56
561.025	30.52
561.449	30.45
561.874	30.38
562.299	30.3
562.723	30.21
563.148	30.12
563.572	30.02
563.997	29.92
564.421	29.82
564.846	29.72
565.27	29.61
565.694	29.51
566.118	29.4
566.542	29.3
566.966	29.18
567.39	29.05
567.814	28.92
568.238	28.79
568.662	28.68
569.086	28.56
569.509	28.44
569.933	28.33
570.357	28.2
570.78	28.08
571.204	27.96
571.627	27.86
572.05	27.75
572.474	27.67
572.897	27.59
573.32	27.49
573.743	27.41
574.166	27.32
574.589	27.23
575.012	27.16
575.435	27.1
575.858	27.02
576.281	26.93
576.704	26.87
577.126	26.79
577.549	26.7
577.972	26.63
578.394	26.56
578.817	26.48
579.239	26.42
579.661	26.35
580.084	26.28
580.506	26.23
580.928	26.17
581.35	26.11
581.772	26.06
582.194	25.99
582.616	25.94
583.038	25.89
583.46	25.84
583.882	25.79
584.303	25.74
584.725	25.69
585.147	25.63
585.568	25.6
585.99	25.54
586.411	25.49
586.833	25.46
587.254	25.42
587.675	25.39
588.096	25.34
588.518	25.3
588.939	25.26
589.36	25.21
589.781	25.2
590.202	25.15
590.623	25.11
591.043	25.07
591.464	25.04
591.885	25
592.305	24.96
592.726	24.94
593.147	24.9
593.567	24.85
593.987	24.83
594.408	24.78
594.828	24.76
595.248	24.73
595.669	24.71
596.089	24.67
596.509	24.64
596.929	24.6
597.349	24.56
597.769	24.53
598.189	24.5
598.608	24.47
599.028	24.44
599.448	24.39
599.867	24.34
600.287	24.3
600.706	24.25
601.126	24.2
601.545	24.16
601.965	24.12
602.384	24.07
602.803	24.01
603.222	23.95
603.641	23.89
604.061	23.85
604.48	23.79
604.898	23.74
605.317	23.68
605.736	23.64
606.155	23.57
606.574	23.51
606.992	23.44
607.411	23.38
607.829	23.3
608.248	23.23
608.666	23.16
609.085	23.11
609.503	23.04
609.921	22.96
610.339	22.89
610.758	22.83
611.176	22.77
611.594	22.71
612.012	22.66
612.43	22.61
612.847	22.57
613.265	22.51
613.683	22.45
614.101	22.39
614.518	22.32
614.936	22.26
615.353	22.18
615.771	22.12
616.188	22.05
616.606	22
617.023	21.95
617.44	21.9
617.857	21.85
618.274	21.78
618.691	21.72
619.108	21.68
619.525	21.64
619.942	21.6
620.359	21.56
620.776	21.52
621.192	21.48
621.609	21.46
622.026	21.42
622.442	21.4
622.859	21.37
623.275	21.35
623.691	21.33
624.108	21.31
624.524	21.3
624.94	21.29
625.356	21.28
625.772	21.26
626.188	21.25
626.604	21.23
627.02	21.22
627.436	21.21
627.852	21.2
628.268	21.2
628.683	21.19
629.099	21.18
629.514	21.15
629.93	21.13
630.345	21.12
630.761	21.07
631.176	21.04
631.591	20.99
632.007	20.94
632.422	20.89
632.837	20.81
633.252	20.74
633.667	20.66
634.082	20.58
634.497	20.48
634.911	20.36
635.326	20.27
635.741	20.17
636.155	20.06
636.57	19.95
636.984	19.83
637.399	19.71
637.813	19.57
638.228	19.42
638.642	19.26
639.056	19.12
639.47	18.99
639.884	18.83
640.298	18.67
640.712	18.52
641.126	18.35
641.54	18.19
641.954	18.04
642.368	17.89
642.781	17.73
643.195	17.61
643.609	17.46
644.022	17.32
644.436	17.19
644.849	17.05
645.262	16.93
645.676	16.8
646.089	16.69
646.502	16.57
646.915	16.49
647.328	16.41
647.741	16.31
648.154	16.24
648.567	16.16
648.98	16.09
649.393	16.03
649.805	15.98
650.218	15.92
650.631	15.88
651.043	15.83
651.456	15.77
651.868	15.72
652.28	15.68
652.693	15.62
653.105	15.58
653.517	15.52
653.929	15.46
654.341	15.39
654.753	15.32
655.165	15.25
655.577	15.16
655.989	15.08
656.401	14.99
656.813	14.89
657.224	14.78
657.636	14.66
658.047	14.55
658.459	14.43
658.87	14.3
659.282	14.18
659.693	14.05
660.104	13.91
660.515	13.78
660.926	13.65
661.338	13.52
661.749	13.4
662.159	13.28
662.57	13.17
662.981	13.05
663.392	12.93
663.803	12.82
664.213	12.71
664.624	12.61
665.035	12.5
665.445	12.39
665.855	12.3
666.266	12.22
666.676	12.14
667.086	12.05
667.497	11.99
667.907	11.93
668.317	11.87
668.727	11.81
669.137	11.76
669.547	11.73
669.956	11.68
670.366	11.63
670.776	11.61
671.186	11.58
671.595	11.56
672.005	11.53
672.414	11.52
672.824	11.5
673.233	11.49
673.642	11.48
674.052	11.48
674.461	11.49
674.87	11.5
675.279	11.52
675.688	11.55
676.097	11.58
676.506	11.62
676.915	11.66
677.323	11.72
677.732	11.77
678.141	11.86
678.549	11.94
678.958	12.04
679.366	12.16
679.775	12.26
680.183	12.4
680.592	12.56
681	12.73
681.408	12.92
681.816	13.13
682.224	13.38
682.632	13.63
683.04	13.91
683.448	14.2
683.856	14.51
684.264	14.86
684.671	15.21
685.079	15.59
685.487	15.98
685.894	16.41
686.302	16.84
686.709	17.29
687.116	17.76
687.524	18.25
687.931	18.75
688.338	19.28
688.745	19.8
689.152	20.32
689.559	20.87
689.966	21.42
690.373	21.97
690.78	22.52
691.187	23.06
691.593	23.6
692	24.13
692.407	24.66
692.813	25.17
693.22	25.68
693.626	26.2
694.032	26.69
694.439	27.18
694.845	27.66
695.251	28.12
695.657	28.57
696.063	29.04
696.469	29.48
696.875	29.91
697.281	30.32
697.687	30.72
698.093	31.13
698.498	31.51
698.904	31.88
699.31	32.22
699.715	32.58
700.12	32.91
700.526	33.24
700.931	33.56
701.337	33.86
701.742	34.15
702.147	34.44
702.552	34.71
702.957	34.95
703.362	35.22
703.767	35.48
704.172	35.74
704.577	35.99
704.981	36.2
705.386	36.44
705.791	36.67
706.195	36.91
706.6	37.13
707.004	37.32
707.408	37.54
707.813	37.74
708.217	37.94
708.621	38.11
709.025	38.29
709.43	38.46
709.834	38.61
710.237	38.76
710.641	38.9
711.045	39.05
711.449	39.22
711.853	39.4
712.256	39.52
712.66	39.66
713.064	39.83
713.467	39.96
713.87	40.11
714.274	40.24
714.677	40.4
715.08	40.53
715.484	40.67
715.887	40.81
716.29	40.91
716.693	41.04
717.096	41.17
717.499	41.26
717.901	41.39
718.304	41.52
718.707	41.64
719.109	41.73
719.512	41.88
719.915	41.97
720.317	42.05
720.719	42.16
721.122	42.27
721.524	42.35
721.926	42.43
722.328	42.51
722.731	42.56
723.133	42.65
723.535	42.71
723.937	42.76
724.338	42.81
724.74	42.89
725.142	42.96
725.544	43.01
725.945	43.08
726.347	43.14
726.748	43.19
727.15	43.27
727.551	43.3
727.952	43.35
728.354	43.39
728.755	43.43
729.156	43.46
729.557	43.47
729.958	43.5
730.359	43.52
730.76	43.57
731.161	43.6
731.562	43.61
731.962	43.63
732.363	43.68
732.763	43.73
733.164	43.75
733.564	43.78
733.965	43.82
734.365	43.89
734.766	43.92
735.166	43.93
735.566	43.93
735.966	43.97
736.366	43.98
736.766	43.99
737.166	44
737.566	44.03
737.966	44.03
738.365	44.05
738.765	44.05
739.165	44.07
739.564	44.12
739.964	44.16
740.363	44.14
740.763	44.16
741.162	44.17
741.561	44.17
741.96	44.17
742.36	44.2
742.759	44.19
743.158	44.19
743.557	44.18
743.955	44.17
744.354	44.18
744.753	44.22
745.152	44.25
745.55	44.29
745.949	44.34
746.348	44.4
746.746	44.41
747.144	44.44
747.543	44.46
747.941	44.5
748.339	44.49
748.737	44.49
749.136	44.5
749.534	44.5
749.932	44.48
750.33	44.46
750.727	44.46
751.125	44.46
751.523	44.45
751.921	44.43
752.318	44.43
752.716	44.45
753.113	44.46
753.511	44.45
753.908	44.46
754.305	44.47
754.703	44.43
755.1	44.39
755.497	44.37
755.894	44.36
756.291	44.33
756.688	44.32
757.085	44.32
757.482	44.31
757.878	44.3
758.275	44.27
758.672	44.26
759.068	44.29
759.465	44.3
759.861	44.29
760.258	44.32
760.654	44.35
761.05	44.37
761.447	44.35
761.843	44.34
762.239	44.32
762.635	44.33
763.031	44.33
763.427	44.31
763.822	44.34
764.218	44.34
764.614	44.33
765.01	44.28
765.405	44.26
765.801	44.25
766.196	44.24
766.592	44.25
766.987	44.25
767.382	44.23
767.778	44.25
768.173	44.23
768.568	44.22
768.963	44.22
769.358	44.23
769.753	44.23
770.148	44.24
770.542	44.24
770.937	44.24
771.332	44.24
771.726	44.25
772.121	44.24
772.515	44.23
772.91	44.25
773.304	44.28
773.699	44.31
774.093	44.3
774.487	44.3
774.881	44.31
775.275	44.31
775.669	44.3
776.063	44.31
776.457	44.32
776.851	44.31
777.245	44.29
777.638	44.24
778.032	44.25
778.425	44.31
778.819	44.3
779.212	44.31
779.606	44.34
779.999	44.32
780.392	44.34
780.786	44.37
781.179	44.38
781.572	44.41
781.965	44.45
782.358	44.47
782.751	44.44
783.143	44.47
783.536	44.48
783.929	44.48
784.322	44.52
784.714	44.55
785.107	44.54
785.499	44.56
785.891	44.57
786.284	44.59
786.676	44.57
787.068	44.59
787.46	44.6
787.852	44.63
788.245	44.63
788.636	44.63
789.028	44.6
789.42	44.61
789.812	44.63
790.204	44.63
790.595	44.64
790.987	44.64
791.378	44.68
791.77	44.68
792.161	44.68
792.553	44.7
792.944	44.69
793.335	44.71
793.726	44.71
794.117	44.7
794.508	44.69
794.899	44.67
795.29	44.7
795.681	44.65
796.072	44.64
796.463	44.64
796.853	44.63
797.244	44.65
797.634	44.66
798.025	44.68
798.415	44.69
798.806	44.68
799.196	44.72
799.586	44.72
799.976	44.76
800.366	44.78
800.756	44.81
801.146	44.82
801.536	44.84
801.926	44.85
802.316	44.86
802.706	44.89
803.095	44.92
803.485	44.91
803.874	44.91
804.264	44.91
804.653	44.9
805.043	44.88
805.432	44.9
805.821	44.91
806.21	44.91
806.599	44.93
806.988	44.94
807.377	44.94
807.766	44.97
808.155	44.99
808.544	45.03
808.933	45.05
809.321	45.06
809.71	45.07
810.098	45.07
810.487	45.06
810.875	45.08
811.264	45.07
811.652	45.08
812.04	45.08
812.428	45.1
812.816	45.08
813.204	45.09
813.592	45.1
813.98	45.13
814.368	45.16
814.756	45.21
815.144	45.19
815.531	45.21
815.919	45.23
816.306	45.25
816.694	45.25
817.081	45.28
817.469	45.29
817.856	45.3
818.243	45.27
818.63	45.28
819.017	45.27
819.404	45.28
819.791	45.3
820.178	45.31
820.565	45.29
820.952	45.27
821.339	45.25
821.725	45.27
822.112	45.28
822.498	45.28
822.885	45.27
823.271	45.26
823.657	45.21
824.044	45.2
824.43	45.19
824.816	45.16
825.202	45.15
825.588	45.14
825.974	45.11
826.36	45.07
826.746	45.06
827.132	45.05
827.517	45.04
827.903	45.07
828.289	45.07
828.674	45.05
829.06	45.06
829.445	45.04
829.83	45.04
830.216	45.02
830.601	45.01
830.986	45
831.371	44.99
831.756	44.98
832.141	44.96
832.526	44.92
832.911	44.9
833.295	44.89
833.68	44.89
834.065	44.85
834.449	44.84
834.834	44.83
835.218	44.83
835.603	44.78
835.987	44.77
836.371	44.75
836.755	44.74
837.139	44.72
837.524	44.7
837.908	44.71
838.291	44.74
838.675	44.74
839.059	44.73
839.443	44.69
839.827	44.68
840.21	44.68
840.594	44.67
840.977	44.68
841.361	44.69
841.744	44.66
842.127	44.62
842.511	44.6
842.894	44.58
843.277	44.56
843.66	44.57
844.043	44.58
844.426	44.57
844.809	44.58
845.191	44.59
845.574	44.58
845.957	44.59
846.339	44.59
846.722	44.58
847.104	44.59
847.487	44.58
847.869	44.58
848.252	44.58
848.634	44.58
849.016	44.57
849.398	44.56
849.78	44.57
850.162	44.57
850.544	44.6
850.926	44.58
851.307	44.58
851.689	44.62
852.071	44.63
852.452	44.65
852.834	44.65
853.215	44.66
853.597	44.67
853.978	44.67
854.359	44.7
854.741	44.69
855.122	44.69
855.503	44.69
855.884	44.68
856.265	44.67
856.646	44.67
857.026	44.72
857.407	44.71
857.788	44.69
858.169	44.7
858.549	44.67
858.93	44.69
859.31	44.71
859.69	44.72
860.071	44.75
860.451	44.73
860.831	44.75
861.211	44.72
861.591	44.71
861.971	44.72
862.351	44.74
862.731	44.75
863.111	44.73
863.491	44.73
863.87	44.72
864.25	44.69
864.629	44.7
865.009	44.69
865.388	44.69
865.768	44.68
866.147	44.68
866.526	44.65
866.905	44.64
867.284	44.65
867.663	44.64
868.042	44.65
868.421	44.66
868.8	44.67
869.179	44.66
869.558	44.67
869.936	44.67
870.315	44.68
870.693	44.69
871.072	44.71
871.45	44.72
871.828	44.7
872.207	44.69
872.585	44.68
872.963	44.68
873.341	44.66
873.719	44.66
874.097	44.66
874.475	44.68
874.853	44.67
875.23	44.67
875.608	44.66
875.986	44.68
876.363	44.69
876.741	44.71
877.118	44.7
877.495	44.72
877.873	44.73
878.25	44.76
878.627	44.76
879.004	44.78
879.381	44.8
879.758	44.8
880.135	44.81
880.512	44.81
880.889	44.81
881.265	44.79
881.642	44.77
882.019	44.76
882.395	44.76
882.772	44.75
883.148	44.72
883.524	44.7
883.901	44.69
884.277	44.68
884.653	44.64
885.029	44.62
885.405	44.63
885.781	44.64
886.157	44.64
886.532	44.62
886.908	44.6
887.284	44.6
887.659	44.58
888.035	44.55
888.411	44.53
888.786	44.54
889.161	44.53
889.537	44.53
889.912	44.51
890.287	44.49
890.662	44.47
891.037	44.49
891.412	44.46
891.787	44.45
892.162	44.44
892.536	44.42
892.911	44.41
893.286	44.39
893.66	44.37
894.035	44.36
894.409	44.35
894.784	44.36
895.158	44.32
895.532	44.34
895.906	44.35
896.281	44.35
896.655	44.35
897.029	44.38
897.402	44.38
897.776	44.39
898.15	44.38
898.524	44.41
898.898	44.38
899.271	44.39
899.645	44.4
900.018	44.39
900.392	44.37
900.765	44.4
901.138	44.38
901.511	44.4
901.884	44.41
902.258	44.44
902.631	44.43
903.003	44.46
903.376	44.47
903.749	44.45
904.122	44.5
904.495	44.55
904.867	44.55
905.24	44.57
905.612	44.59
905.985	44.58
906.357	44.58
906.729	44.59
907.102	44.59
907.474	44.59
907.846	44.61
908.218	44.59
908.59	44.58
908.962	44.58
909.334	44.57
909.705	44.57
910.077	44.58
910.449	44.59
910.82	44.56
911.192	44.56
911.563	44.57
911.935	44.57
912.306	44.57
912.677	44.59
913.048	44.64
913.419	44.63
913.79	44.63
914.161	44.63
914.532	44.64
914.903	44.69
915.274	44.71
915.645	44.73
916.015	44.74
916.386	44.73
916.756	44.71
917.127	44.71
917.497	44.72
917.868	44.71
918.238	44.73
918.608	44.74
918.978	44.73
919.348	44.7
919.718	44.68
920.088	44.7
920.458	44.71
920.828	44.73
921.198	44.69
921.567	44.71
921.937	44.75
922.306	44.72
922.676	44.71
923.045	44.72
923.415	44.72
923.784	44.73
924.153	44.7
924.522	44.73
924.891	44.72
925.26	44.74
925.629	44.73
925.998	44.73
926.367	44.75
926.736	44.75
927.104	44.75
927.473	44.74
927.842	44.74
928.21	44.77
928.578	44.73
928.947	44.74
929.315	44.73
929.683	44.73
930.051	44.68
930.42	44.63
930.788	44.63
931.156	44.59
931.523	44.59
931.891	44.58
932.259	44.55
932.627	44.56
932.994	44.55
933.362	44.55
933.729	44.51
934.097	44.55
934.464	44.59
934.831	44.6
935.199	44.63
935.566	44.62
935.933	44.65
936.3	44.66
936.667	44.67
937.034	44.69
937.401	44.73
937.767	44.77
938.134	44.79
938.501	44.83
938.867	44.88
939.234	44.91
939.6	45.01
939.967	45.01
940.333	45.07
940.699	45.15
941.065	45.18
941.431	45.19
941.798	45.21
942.163	45.23
942.529	45.26
942.895	45.26
943.261	45.26
943.627	45.28
943.992	45.33
944.358	45.37
944.723	45.37
945.089	45.3
945.454	45.3
945.82	45.29
946.185	45.3
946.55	45.25
946.915	45.23
947.28	45.25
947.645	45.25
948.01	45.26
948.375	45.22
948.74	45.2
949.104	45.27
949.469	45.23
949.834	45.17
950.198	45.15
950.562	45.1
950.927	45.11
951.291	45.02
951.655	44.93
952.02	44.91
952.384	44.85
952.748	44.77
953.112	44.7
953.476	44.73
953.839	44.64
954.203	44.59
954.567	44.59
954.931	44.51
955.294	44.46
955.658	44.49
956.021	44.41
956.385	44.35
956.748	44.32
957.111	44.31
957.474	44.29
957.837	44.29
958.2	44.26
958.563	44.22
958.926	44.25
959.289	44.29
959.652	44.22
960.015	44.23
960.377	44.26
960.74	44.29
961.102	44.28
961.465	44.25
961.827	44.3
962.189	44.35
962.552	44.35
962.914	44.34
963.276	44.34
963.638	44.34
964	44.33
964.362	44.31
964.724	44.23
965.085	44.21
965.447	44.2
965.809	44.2
966.17	44.18
966.532	44.2
966.893	44.17
967.255	44.14
967.616	44.15
967.977	44.14
968.338	44.08
968.699	44.13
969.061	44.13
969.421	44.11
969.782	44.11
970.143	44.06
970.504	44.05
970.865	44.08
971.225	44.06
971.586	44.06
971.946	44.08
972.307	44.19
972.667	44.11
973.027	44.14
973.388	44.13
973.748	44.16
974.108	44.23
974.468	44.2
974.828	44.23
975.188	44.26
975.548	44.19
975.907	44.21
976.267	44.11
976.627	44.21
976.986	44.18
977.346	44.24
977.705	44.17
978.064	44.18
978.424	44.23
978.783	44.17
979.142	44.19
979.501	44.24
979.86	44.27
980.219	44.31
980.578	44.31
980.937	44.33
981.296	44.3
981.654	44.33
982.013	44.3
982.371	44.3
982.73	44.33
983.088	44.28
983.447	44.26
983.805	44.19
984.163	44.23
984.521	44.24
984.879	44.25
985.237	44.26
985.595	44.39
985.953	44.36
986.311	44.27
986.669	44.29
987.026	44.34
987.384	44.4
987.741	44.49
988.099	44.6
988.456	44.6
988.814	44.58
989.171	44.63
989.528	44.51
989.885	44.62
990.242	44.72
990.599	44.82
990.956	44.86
991.313	44.95
991.67	44.98
992.027	44.94
992.383	45.05
992.74	45.18
993.096	45.17
993.453	45.23
993.809	45.19
994.165	45.25
994.522	45.23
994.878	45.27
995.234	45.31
995.59	45.31
995.946	45.33
996.302	45.33
996.658	45.39
997.013	45.44
997.369	45.44
997.725	45.48
998.08	45.56
998.436	45.63
998.791	45.72
999.147	45.67
999.502	45.76
999.857	45.84
1000.212	45.87
1000.567	45.85
1000.922	45.9
1001.277	46.07
1001.632	46.18
1001.987	46.21
1002.342	46.13
1002.696	46.11
1003.051	46.28
1003.406	46.38
1003.76	46.34
1004.114	46.28
1004.469	46.38
1004.823	46.6
1005.177	46.53
1005.531	46.56
1005.885	46.6
1006.239	46.79
1006.593	46.81
1006.947	46.7
1007.301	46.53
1007.655	46.55
1008.008	46.74
1008.362	46.86
1008.715	46.76
1009.069	46.97
1009.422	47.13
1009.776	47.18
1010.129	47.18
1010.482	47.31
1010.835	47.45
1011.188	47.67
1011.541	47.92
1011.894	47.9
1012.247	47.75
1012.6	47.84
1012.952	47.72
1013.305	47.68
1013.657	47.76
1014.01	47.97
1014.362	47.99
1014.715	48.02
1015.067	48
1015.419	48.21
1015.771	48.27
1016.123	48.41
1016.475	48.52
1016.827	48.74
1017.179	48.82
1017.531	48.94
1017.883	48.84
1018.234	48.97
1018.586	49.09
1018.938	49.29
1019.289	49.04
1019.64	49.24
1019.992	49.41
1020.343	49.41
1020.694	49.41
1021.045	49.6
1021.396	49.67
1021.747	49.98
1022.098	50.25
1022.449	50.39
1022.8	50.43
1023.151	50.64
1023.501	50.58
1023.852	50.77
1024.202	50.96
1024.553	51.01
1024.903	51.16
1025.253	51.44
1025.604	51.34
1025.954	51.18
1026.304	51.39
1026.654	51.44
1027.004	51.37
1027.354	51.53
1027.703	51.47
1028.053	51.47
1028.403	51.74
1028.753	51.53
1029.102	51.68
1029.452	52.01
1029.801	52.5
1030.15	52.41
1030.499	52.52
897.758	959.26
901.051	967.28
904.343	968.09
907.636	983.58
910.928	956.27
914.22	955.34
917.511	941.23
920.803	900.35
924.094	900.04
927.384	879.8
930.675	844.75
933.965	841.08
937.255	789.87
940.544	757.24
943.834	725.59
947.123	719.33
950.411	678.52
953.7	666.83
956.988	628.8
960.276	605.06
963.563	596.22
966.851	572.12
970.138	568.26
973.424	552.53
976.711	553.41
979.997	523.8
983.283	520.99
986.568	509.61
989.853	493.98
993.138	487.64
996.423	467.09
999.708	453.81
1002.992	449.21
1006.275	430.35
1009.559	426.95
1012.842	412
1016.125	402.3
1019.408	394.55
1022.69	391.39
1025.972	383.06
1029.254	372.31
1032.536	365.97
1035.817	361.04
1039.098	356.06
1042.379	349.27
1045.659	344.66
1048.939	336.89
1052.219	329.71
1055.498	326.67
1058.778	317.77
1062.057	312.31
1065.335	309.79
1068.614	305.48
1071.892	301.02
1075.17	293.69
1078.447	287.15
1081.724	285.24
1085.001	282.98
1088.278	278.37
1091.554	272.17
1094.83	273.85
1098.106	270.53
1101.382	267.3
1104.657	266.06
1107.932	261.6
1111.206	263.3
1114.481	256.64
1117.755	255.13
1121.029	252.86
1124.302	251.51
1127.575	247.98
1130.848	243.68
1134.121	242.49
1137.393	241.71
1140.665	237.41
1143.937	235.25
1147.208	233.31
1150.48	233.77
1153.75	230.01
1157.021	226.44
1160.291	227.26
1163.561	224.01
1166.831	223.9
1170.101	221.61
1173.37	221.78
1176.639	221.89
1179.907	220.54
1183.176	217.49
1186.444	216.89
1189.711	216.77
1192.979	216.9
1196.246	215.09
1199.513	216.18
1202.78	214.77
1206.046	214.58
1209.312	211.98
1212.578	212.13
1215.843	213.45
1219.108	212.69
1222.373	217.02
1225.638	217.58
1228.902	220.61
1232.166	221.37
1235.43	221.96
1238.693	225.99
1241.956	227.4
1245.219	230.8
1248.482	231.53
1251.744	231.53
1255.006	232.27
1258.268	227.15
1261.529	225.89
1264.79	224.97
1268.051	222.31
1271.312	220.36
1274.572	217.3
1277.832	215.73
1281.092	212.28
1284.351	210.2
1287.61	210.68
1290.869	207.25
1294.128	205.97
1297.386	205.21
1300.644	203.26
1303.902	204.67
1307.159	204
1310.416	203.47
1313.673	202.7
1316.93	204.67
1320.186	203.9
1323.442	204.33
1326.697	207.44
1329.953	208.6
1333.208	209.47
1336.463	211.53
1339.717	211.49
1342.972	214.22
1346.226	215.62
1349.479	216.41
1352.733	216.95
1355.986	219.15
1359.238	218.58
1362.491	219.68
1365.743	220.5
1368.995	222.03
1372.247	221.4
1375.498	221.46
1378.749	221.22
1382	220.01
1385.251	220.79
1388.501	219.87
1391.751	219.32
1395	218.37
1398.25	216.32
1401.499	215.34
1404.748	213.77
1407.996	210.83
1411.244	210.04
1414.492	208.9
1417.74	205.82
1420.987	202.58
1424.234	201.73
1427.481	200.25
1430.728	200.04
1433.974	198.24
1437.22	196.04
1440.465	195.66
1443.711	193.91
1446.956	191.98
1450.201	190.92
1453.445	189.66
1456.689	188.67
1459.933	185.32
1463.177	183.72
1466.42	181.51
1469.663	179.29
1472.906	178.21
1476.148	173.32
1479.391	172.02
1482.633	171
1485.874	168.51
1489.115	166.99
1492.356	164.86
1495.597	164.96
1498.838	162.21
1502.078	160.77
1505.318	160.35
1508.557	159.97
1511.797	160.3
1515.036	158.4
1518.274	158.27
1521.513	157.08
1524.751	157.23
1527.989	157.26
1531.227	156.44
1534.464	156.74
1537.701	156.88
1540.938	156.37
1544.174	154.81
1547.41	155.11
1550.646	154.57
1553.882	154.15
1557.117	152.49
1560.352	151.5
1563.587	151.32
1566.821	150.25
1570.055	149.63
1573.289	147.62
1576.523	148.11
1579.756	146.57
1582.989	145.75
1586.222	145.93
1589.454	145.38
1592.686	145.72
1595.918	145.34
1599.15	144.69
1602.381	145.46
1605.612	145.08
1608.843	145.09
1612.073	144.72
1615.303	146.26
1618.533	146.07
1621.762	145.64
1624.992	146.43
1628.221	146.42
1631.449	145.72
1634.678	146.02
1637.906	146.49
1641.134	145.74
1644.361	146.19
1647.588	146.57
1650.815	146.17
1654.042	145.68
1657.269	146.66
1660.495	146.22
1663.72	146.12
1666.946	147.05
1670.171	147.19
1673.396	147.02
1676.621	146.98
1679.845	147.46
1683.069	147.35
1686.293	148.08
1689.517	149.15
1692.74	149.01
1695.963	148.84
1699.185	150.28
1702.408	150.27
1705.63	150.34
1708.852	150.93
1712.073	151.72
1715.294	151.73
1718.515	152.81
1721.736	152.41
1724.956	152.53
1728.176	152.54
1731.396	154.08
1734.616	153.14
1737.835	153.8
1741.054	153.37
1744.272	153.49
1747.491	155.29
1750.709	155.55
1753.927	155.13
1757.144	154.66
1760.361	154.95
1763.578	155.35
1766.795	154.73
1770.011	156.53
1773.227	156.15
1776.443	157.65
1779.658	158.09
1782.874	157.75
1786.089	157.24
1789.303	157.84
1792.518	160.47
1795.732	159.87
1798.945	160.91
1802.159	161.29
1805.372	160.72
1808.585	163.79
1811.797	163.94
1815.01	164.12
1818.222	165.11
1821.434	168.41
1824.645	168.2
1827.856	170.15
1831.067	171.63
1834.278	172.25
1837.488	173.45
1840.698	174.71
1843.908	173.01
1847.117	173.85
1850.326	175.17
1853.535	173.57
1856.744	174.77
1859.952	175.02
1863.16	173.32
1866.368	172.33
1869.575	173.02
1872.782	170.44
1875.989	169.61
1879.196	169.04
1882.402	167.55
1885.608	166.96
1888.814	167.28
1892.019	166.68
1895.224	165.91
1898.429	165.47
1901.634	165.79
1904.838	166.24
1908.042	167.21
1911.246	167.38
1914.449	167.85
1917.652	168.07
1920.855	168.24
1924.058	168.76
1927.26	167.28
1930.462	167.94
1933.664	168.8
1936.865	168.01
1940.066	167.29
1943.267	166.58
1946.467	166.99
1949.668	167.2
1952.868	169.76
1956.067	170.18
1959.267	169.8
1962.466	170.41
1965.665	169.57
1968.863	170.79
1972.061	174.03
1975.259	175.25
1978.457	176.83
1981.654	178.82
1984.852	179.5
1988.048	178.33
1991.245	180.92
1994.441	182.4
1997.637	184.37
2000.833	188.06
2004.028	190.17
2007.223	190.74
2010.418	192.16
2013.613	196.48
2016.807	197.77
2020.001	199.38
2023.194	203.54
2026.388	206.9
2029.581	212.42
2032.774	213.78
2035.966	216.98
2039.158	218.04
2042.35	221.85
2045.542	223.29
2048.733	225.97
2051.924	229.35
2055.115	233.98
2058.306	233.78
2061.496	235.2
2064.686	236.06
2067.875	240.65
2071.065	242.12
2074.254	239.94
2077.442	244.41
2080.631	245.92
2083.819	247.86
2087.007	248.41
2090.195	250.93
2093.382	254.05
2096.569	252.89
2099.756	256.79
2102.942	256.94
2106.128	259.12
2109.314	266.49
2112.5	263.71
2115.685	269.88
2118.87	270.94
2122.055	275.04
2125.239	276.83
2128.424	279.56
2131.608	281.61
2134.791	286.31
2137.974	286.37
2141.157	288.08
2144.34	288.18
2147.523	294.14
2150.705	291.84
2153.887	294.18
2157.068	295.65
2160.25	293.68
2163.431	295.02
2166.611	298.98
2169.792	302.05
2172.972	306.19
2176.152	309.44
2179.331	312.6
2182.511	316.19
2185.69	319.22
2188.868	325.83
2192.047	326.02
2195.225	335.46
2198.403	342.83
2201.58	349.83
2204.758	357.31
2207.935	364.34
2211.111	370.91
2214.288	375.57
2217.464	376.62
2220.64	384.6
2223.815	388.28
2226.991	404.69
2230.166	404.66
2233.34	411.03
2236.515	418.91
2239.689	419.24
2242.863	420.83
2246.036	430.64
2249.209	428.28
2252.382	437.02
2255.555	447.91
2258.727	450.97
2261.9	453.72
2265.071	458.49
2268.243	467.77
2271.414	471.98
2274.585	481.08
2277.756	487.63
2280.926	490.74
2284.096	503.1
2287.266	511.93
2290.436	516.54
2293.605	528.19
2296.774	541.72
2299.942	558.88
2303.111	560.33
2306.279	571.41
2309.447	579.87
2312.614	596.61
2315.781	611.64
2318.948	638.66
2322.115	629.29
2325.281	665.51
2328.447	652.56
2331.613	679.09
2334.779	670.94
2337.944	703.52
2341.109	710.23
2344.274	729.16
2347.438	753.95
2350.602	756.73
2353.766	779.33
2356.929	792.52
2360.092	784.4
2363.255	839.01
2366.418	839.1
2369.58	852.87
2372.742	905.69
2375.904	929.1
2379.066	924.14
2382.227	899.23
2385.388	973.93
2388.548	979.54
2391.709	988.77
2394.869	1100.45
2398.029	1060.4
2401.188	1091.29
2404.347	1084.13
2407.506	1061.51
2410.665	1089.75
2413.823	1155.81
2416.981	1228.63
2420.139	1190.12
2423.296	1166.49
2426.453	1224.08
2429.61	1181.62
2432.767	1229.9
2435.923	1216.23
2439.079	1344.7
2442.235	1364.74
2445.391	1357.72
2448.546	1343.86
2451.701	1304.28
2454.855	1301.35
2458.009	1393.06
2461.163	1446.51
2464.317	1488.46
2467.471	1527.29
2470.624	1528.19
2473.777	1479.85
2476.929	1437.04
2480.082	1387.68
2483.234	1377.12
2486.385	1454.48
2489.537	1463.23
2492.688	1508.14
2495.839	1472.68
2498.989	1440.91
2502.14	1442.18
2505.29	1456
2508.439	1471.32
2511.589	1468.76
2514.738	1609.52
2517.887	1575.26
2521.035	1655.08
2524.183	1672.11
2527.331	1682.74
2530.479	1662.09
2533.627	1680.15
