Data from N_3_HIR_IL_4N_Splice17_14-29-31-762.txt Node
Date: Sat Mar 07 14:29:31 EST 2020
User: sa697716
Spectrometer: NQ5500242
Trigger mode: 0
Integration Time (sec): 1.450000E-1
Scans to average: 20
Nonlinearity correction enabled: false
Boxcar width: 5
Storing dark spectrum: false
XAxis mode: Wavelengths
Number of Pixels in Spectrum: 512
>>>>>Begin Spectral Data<<<<<
187.83	202.77
188.298	218.25
188.766	188.91
189.233	161.87
189.701	167.83
190.169	190.69
190.636	228.66
191.104	331.47
191.571	471.45
192.039	276.58
192.506	356.39
192.974	200.81
193.441	402.97
193.908	135.74
194.375	108.65
194.842	74.86
195.31	98.73
195.777	42.77
196.244	60.16
196.711	67.66
197.177	69.9
197.644	69.44
198.111	69.42
198.578	68.99
199.045	69.92
199.511	70.08
199.978	70.24
200.445	70.27
200.911	70.61
201.378	70.53
201.844	70.41
202.31	69.84
202.777	70.02
203.243	69.75
203.709	69.4
204.176	68.37
204.642	67.66
205.108	67.13
205.574	66.62
206.04	65.74
206.506	65.22
206.972	65.07
207.438	64.41
207.903	63.57
208.369	61.9
208.835	60.69
209.301	59.35
209.766	57.63
210.232	55.88
210.697	54.17
211.163	52.76
211.628	51.27
212.094	49.67
212.559	48.34
213.024	46.96
213.49	45.98
213.955	44.77
214.42	43.84
214.885	42.64
215.35	41.11
215.815	38.95
216.28	36.2
216.745	33.02
217.21	29.83
217.675	26.99
218.14	24.43
218.604	22.18
219.069	20.27
219.534	18.61
219.998	17.29
220.463	16.2
220.927	15.22
221.392	14.45
221.856	13.86
222.32	13.33
222.785	12.85
223.249	12.44
223.713	12.05
224.177	11.77
224.642	11.51
225.106	11.22
225.57	10.94
226.034	10.73
226.497	10.5
226.961	10.26
227.425	10.05
227.889	9.87
228.353	9.69
228.816	9.53
229.28	9.35
229.744	9.19
230.207	9.05
230.671	8.9
231.134	8.76
231.597	8.65
232.061	8.54
232.524	8.43
232.987	8.31
233.45	8.21
233.914	8.09
234.377	8
234.84	7.9
235.303	7.82
235.766	7.75
236.229	7.68
236.691	7.59
237.154	7.52
237.617	7.44
238.08	7.37
238.542	7.31
239.005	7.28
239.468	7.22
239.93	7.16
240.393	7.1
240.855	7.03
241.317	6.97
241.78	6.92
242.242	6.86
242.704	6.82
243.166	6.76
243.629	6.71
244.091	6.64
244.553	6.59
245.015	6.54
245.477	6.48
245.939	6.44
246.4	6.38
246.862	6.33
247.324	6.29
247.786	6.24
248.247	6.19
248.709	6.14
249.17	6.09
249.632	6.06
250.093	6.01
250.555	5.97
251.016	5.94
251.477	5.9
251.939	5.86
252.4	5.83
252.861	5.79
253.322	5.77
253.783	5.74
254.244	5.73
254.705	5.69
255.166	5.66
255.627	5.64
256.088	5.61
256.549	5.59
257.009	5.55
257.47	5.52
257.931	5.49
258.391	5.44
258.852	5.4
259.312	5.35
259.773	5.32
260.233	5.29
260.694	5.25
261.154	5.21
261.614	5.17
262.074	5.13
262.534	5.09
262.994	5.06
263.455	5.03
263.915	5
264.374	4.98
264.834	4.96
265.294	4.93
265.754	4.91
266.214	4.89
266.673	4.88
267.133	4.86
267.593	4.85
268.052	4.83
268.512	4.82
268.971	4.8
269.431	4.79
269.89	4.77
270.349	4.76
270.809	4.74
271.268	4.72
271.727	4.71
272.186	4.7
272.645	4.69
273.104	4.68
273.563	4.67
274.022	4.66
274.481	4.65
274.94	4.64
275.399	4.63
275.857	4.62
276.316	4.61
276.775	4.6
277.233	4.59
277.692	4.58
278.15	4.57
278.609	4.57
279.067	4.56
279.525	4.56
279.984	4.55
280.442	4.55
280.9	4.54
281.358	4.55
281.816	4.55
282.274	4.55
282.732	4.54
283.19	4.53
283.648	4.53
284.106	4.53
284.564	4.52
285.021	4.53
285.479	4.52
285.937	4.52
286.394	4.52
286.852	4.51
287.309	4.5
287.767	4.49
288.224	4.48
288.682	4.46
289.139	4.44
289.596	4.42
290.053	4.4
290.511	4.38
290.968	4.36
291.425	4.34
291.882	4.32
292.339	4.3
292.796	4.29
293.252	4.28
293.709	4.26
294.166	4.26
294.623	4.25
295.079	4.24
295.536	4.24
295.992	4.24
296.449	4.23
296.905	4.23
297.362	4.22
297.818	4.21
298.274	4.21
298.731	4.2
299.187	4.19
299.643	4.18
300.099	4.18
300.555	4.17
301.011	4.17
301.467	4.17
301.923	4.16
302.379	4.16
302.835	4.16
303.291	4.16
303.746	4.16
304.202	4.16
304.658	4.16
305.113	4.15
305.569	4.15
306.024	4.15
306.479	4.15
306.935	4.15
307.39	4.16
307.845	4.16
308.301	4.16
308.756	4.16
309.211	4.17
309.666	4.18
310.121	4.19
310.576	4.2
311.031	4.2
311.486	4.21
311.94	4.22
312.395	4.22
312.85	4.23
313.305	4.23
313.759	4.24
314.214	4.24
314.668	4.23
315.123	4.23
315.577	4.23
316.032	4.22
316.486	4.22
316.94	4.21
317.394	4.21
317.849	4.19
318.303	4.19
318.757	4.17
319.211	4.16
319.665	4.15
320.119	4.14
320.572	4.12
321.026	4.11
321.48	4.1
321.934	4.09
322.387	4.08
322.841	4.08
323.295	4.08
323.748	4.08
324.202	4.08
324.655	4.08
325.108	4.09
325.562	4.1
326.015	4.1
326.468	4.11
326.921	4.11
327.374	4.11
327.827	4.12
328.28	4.11
328.733	4.11
329.186	4.12
329.639	4.13
330.092	4.13
330.545	4.13
330.997	4.13
331.45	4.15
331.903	4.14
332.355	4.16
332.808	4.16
333.26	4.18
333.713	4.19
334.165	4.19
334.617	4.21
335.069	4.21
335.522	4.22
335.974	4.23
336.426	4.23
336.878	4.24
337.33	4.24
337.782	4.25
338.234	4.26
338.686	4.26
339.137	4.27
339.589	4.27
340.041	4.27
340.493	4.26
340.944	4.24
341.396	4.24
341.847	4.23
342.299	4.21
342.75	4.2
343.201	4.18
343.653	4.17
344.104	4.14
344.555	4.13
345.006	4.12
345.457	4.11
345.908	4.1
346.359	4.11
346.81	4.1
347.261	4.1
347.712	4.1
348.163	4.1
348.613	4.1
349.064	4.11
349.515	4.11
349.965	4.12
350.416	4.12
350.866	4.12
351.317	4.11
351.767	4.12
352.217	4.12
352.668	4.12
353.118	4.13
353.568	4.13
354.018	4.14
354.468	4.14
354.918	4.14
355.368	4.15
355.818	4.17
356.268	4.17
356.718	4.18
357.168	4.19
357.617	4.2
358.067	4.2
358.517	4.22
358.966	4.22
359.416	4.22
359.865	4.23
360.315	4.24
360.764	4.24
361.213	4.24
361.663	4.24
362.112	4.24
362.561	4.24
363.01	4.24
363.459	4.23
363.908	4.23
364.357	4.23
364.806	4.23
365.255	4.23
365.703	4.24
366.152	4.24
366.601	4.25
367.05	4.26
367.498	4.27
367.947	4.27
368.395	4.29
368.844	4.29
369.292	4.3
369.74	4.3
370.189	4.3
370.637	4.3
371.085	4.29
371.533	4.3
371.981	4.3
372.429	4.3
372.877	4.31
373.325	4.32
373.773	4.32
374.221	4.33
374.669	4.32
375.116	4.32
375.564	4.32
376.012	4.34
376.459	4.34
376.907	4.35
377.354	4.36
377.801	4.37
378.249	4.36
378.696	4.37
379.143	4.38
379.591	4.4
380.038	4.41
380.485	4.43
380.932	4.44
381.379	4.45
381.826	4.46
382.273	4.48
382.72	4.48
383.166	4.49
383.613	4.5
384.06	4.51
384.506	4.53
384.953	4.54
385.4	4.55
385.846	4.57
386.292	4.58
386.739	4.6
387.185	4.61
387.631	4.63
388.078	4.64
388.524	4.66
388.97	4.69
389.416	4.71
389.862	4.72
390.308	4.75
390.754	4.77
391.2	4.8
391.645	4.82
392.091	4.85
392.537	4.88
392.983	4.9
393.428	4.93
393.874	4.96
394.319	4.98
394.765	5
395.21	5.02
395.655	5.06
396.101	5.09
396.546	5.12
396.991	5.15
397.436	5.18
397.881	5.23
398.326	5.27
398.771	5.31
399.216	5.34
399.661	5.39
400.106	5.43
400.551	5.46
400.995	5.47
401.44	5.5
401.885	5.53
402.329	5.56
402.774	5.58
403.218	5.61
403.663	5.65
404.107	5.68
404.551	5.7
404.995	5.73
405.44	5.74
405.884	5.78
406.328	5.82
406.772	5.84
407.216	5.88
407.66	5.91
408.104	5.93
408.547	5.96
408.991	5.99
409.435	6.01
409.879	6.05
410.322	6.08
410.766	6.12
411.209	6.15
411.653	6.19
412.096	6.21
412.54	6.25
412.983	6.27
413.426	6.32
413.869	6.35
414.312	6.41
414.756	6.45
415.199	6.48
415.642	6.51
416.085	6.55
416.527	6.56
416.97	6.59
417.413	6.6
417.856	6.63
418.298	6.62
418.741	6.64
419.184	6.64
419.626	6.65
420.069	6.67
420.511	6.68
420.953	6.69
421.396	6.71
421.838	6.72
422.28	6.74
422.722	6.78
423.164	6.81
423.606	6.83
424.048	6.85
424.49	6.88
424.932	6.89
425.374	6.9
425.816	6.9
426.258	6.9
426.699	6.9
427.141	6.9
427.582	6.89
428.024	6.91
428.465	6.94
428.907	6.95
429.348	6.94
429.789	6.95
430.231	6.99
430.672	7.01
431.113	7.05
431.554	7.08
431.995	7.11
432.436	7.13
432.877	7.15
433.318	7.17
433.759	7.21
434.2	7.25
434.64	7.29
435.081	7.29
435.522	7.32
435.962	7.35
436.403	7.4
436.843	7.44
437.284	7.47
437.724	7.49
438.164	7.48
438.604	7.5
439.045	7.52
439.485	7.53
439.925	7.55
440.365	7.57
440.805	7.59
441.245	7.6
441.685	7.62
442.125	7.65
442.564	7.67
443.004	7.7
443.444	7.72
443.883	7.74
444.323	7.76
444.762	7.8
445.202	7.82
445.641	7.86
446.081	7.88
446.52	7.89
446.959	7.92
447.398	7.96
447.837	7.98
448.276	7.99
448.716	8.03
449.154	8.06
449.593	8.07
450.032	8.08
450.471	8.06
450.91	8.07
451.349	8.09
451.787	8.1
452.226	8.08
452.664	8.08
453.103	8.08
453.541	8.07
453.98	8.07
454.418	8.05
454.856	8.06
455.295	8.05
455.733	8.03
456.171	8.01
456.609	7.99
457.047	7.96
457.485	7.96
457.923	7.95
458.361	7.95
458.798	7.95
459.236	7.95
459.674	7.94
460.111	7.94
460.549	7.95
460.987	7.94
461.424	7.94
461.862	7.96
462.299	7.98
462.736	7.97
463.173	7.95
463.611	7.95
464.048	7.96
464.485	7.96
464.922	7.97
465.359	7.98
465.796	8
466.233	8.03
466.67	8.04
467.106	8.05
467.543	8.05
467.98	8.06
468.416	8.06
468.853	8.07
469.29	8.07
469.726	8.07
470.162	8.07
470.599	8.07
471.035	8.06
471.471	8.05
471.907	8.05
472.344	8.07
472.78	8.08
473.216	8.08
473.652	8.09
474.088	8.08
474.523	8.09
474.959	8.08
475.395	8.08
475.831	8.08
476.266	8.08
476.702	8.08
477.138	8.07
477.573	8.07
478.008	8.07
478.444	8.07
478.879	8.08
479.314	8.07
479.75	8.07
480.185	8.06
480.62	8.06
481.055	8.05
481.49	8.04
481.925	8.05
482.36	8.04
482.795	8.04
483.229	8.05
483.664	8.06
484.099	8.05
484.534	8.05
484.968	8.06
485.403	8.07
485.837	8.08
486.271	8.09
486.706	8.09
487.14	8.11
487.574	8.11
488.009	8.12
488.443	8.12
488.877	8.14
489.311	8.16
489.745	8.17
490.179	8.21
490.613	8.24
491.046	8.27
491.48	8.3
491.914	8.33
492.348	8.36
492.781	8.41
493.215	8.45
493.648	8.5
494.082	8.55
494.515	8.6
494.948	8.64
495.382	8.68
495.815	8.74
496.248	8.79
496.681	8.85
497.114	8.9
497.547	8.97
497.98	9.03
498.413	9.09
498.846	9.17
499.279	9.23
499.711	9.32
500.144	9.41
500.577	9.49
501.009	9.58
501.442	9.67
501.874	9.78
502.306	9.88
502.739	10
503.171	10.1
503.603	10.2
504.036	10.33
504.468	10.45
504.9	10.57
505.332	10.7
505.764	10.84
506.196	10.98
506.627	11.11
507.059	11.26
507.491	11.4
507.923	11.56
508.354	11.73
508.786	11.9
509.217	12.07
509.649	12.24
510.08	12.41
510.512	12.6
510.943	12.79
511.374	12.97
511.805	13.18
512.237	13.37
512.668	13.59
513.099	13.79
513.53	13.99
513.961	14.19
514.391	14.4
514.822	14.62
515.253	14.84
515.684	15.05
516.114	15.28
516.545	15.49
516.975	15.72
517.406	15.93
517.836	16.15
518.267	16.37
518.697	16.59
519.127	16.79
519.558	17
519.988	17.2
520.418	17.41
520.848	17.6
521.278	17.81
521.708	18.12
522.138	18.32
522.567	18.5
522.997	18.68
523.427	18.87
523.857	19.05
524.286	19.22
524.716	19.39
525.145	19.56
525.575	19.72
526.004	19.88
526.433	19.93
526.863	20.07
527.292	20.21
527.721	20.36
528.15	20.48
528.579	20.62
529.008	20.75
529.437	20.86
529.866	20.97
530.295	21.1
530.724	21.2
531.152	21.3
531.581	21.39
532.01	21.48
532.438	21.57
532.867	21.67
533.295	21.75
533.723	21.82
534.152	21.9
534.58	21.97
535.008	22.01
535.436	22.06
535.865	22.11
536.293	22.16
536.721	22.21
537.149	22.26
537.576	22.3
538.004	22.35
538.432	22.38
538.86	22.42
539.287	22.45
539.715	22.49
540.143	22.53
540.57	22.56
540.998	22.6
541.425	22.62
541.852	22.66
542.28	22.69
542.707	22.71
543.134	22.75
543.561	22.79
543.988	22.83
544.415	22.85
544.842	22.87
545.269	22.91
545.696	22.94
546.123	22.98
546.549	23
546.976	23.02
547.403	23.05
547.829	23.07
548.256	23.09
548.682	23.13
549.108	23.17
549.535	23.2
549.961	23.23
550.387	23.23
550.813	23.27
551.24	23.29
551.666	23.31
552.092	23.33
552.518	23.34
552.943	23.34
553.369	23.33
553.795	23.34
554.221	23.34
554.646	23.33
555.072	23.34
555.498	23.3
555.923	23.28
556.349	23.23
556.774	23.21
557.199	23.18
557.625	23.14
558.05	23.1
558.475	23.06
558.9	23.01
559.325	22.98
559.75	22.93
560.175	22.89
560.6	22.83
561.025	22.79
561.449	22.72
561.874	22.64
562.299	22.59
562.723	22.51
563.148	22.42
563.572	22.33
563.997	22.23
564.421	22.14
564.846	22.03
565.27	21.95
565.694	21.84
566.118	21.73
566.542	21.63
566.966	21.52
567.39	21.41
567.814	21.3
568.238	21.19
568.662	21.08
569.086	20.97
569.509	20.86
569.933	20.73
570.357	20.62
570.78	20.54
571.204	20.43
571.627	20.32
572.05	20.22
572.474	20.13
572.897	20.05
573.32	19.94
573.743	19.85
574.166	19.75
574.589	19.68
575.012	19.61
575.435	19.53
575.858	19.45
576.281	19.38
576.704	19.31
577.126	19.24
577.549	19.17
577.972	19.12
578.394	19.05
578.817	19
579.239	18.94
579.661	18.88
580.084	18.82
580.506	18.77
580.928	18.72
581.35	18.67
581.772	18.62
582.194	18.56
582.616	18.51
583.038	18.47
583.46	18.41
583.882	18.36
584.303	18.3
584.725	18.25
585.147	18.21
585.568	18.16
585.99	18.11
586.411	18.07
586.833	18.04
587.254	18.01
587.675	17.98
588.096	17.94
588.518	17.91
588.939	17.9
589.36	17.86
589.781	17.83
590.202	17.8
590.623	17.76
591.043	17.72
591.464	17.69
591.885	17.65
592.305	17.64
592.726	17.61
593.147	17.57
593.567	17.53
593.987	17.51
594.408	17.48
594.828	17.46
595.248	17.45
595.669	17.44
596.089	17.4
596.509	17.38
596.929	17.35
597.349	17.32
597.769	17.31
598.189	17.29
598.608	17.26
599.028	17.25
599.448	17.21
599.867	17.17
600.287	17.13
600.706	17.1
601.126	17.08
601.545	17.04
601.965	17.01
602.384	16.96
602.803	16.92
603.222	16.88
603.641	16.85
604.061	16.82
604.48	16.77
604.898	16.73
605.317	16.68
605.736	16.63
606.155	16.59
606.574	16.53
606.992	16.47
607.411	16.41
607.829	16.33
608.248	16.25
608.666	16.18
609.085	16.13
609.503	16.07
609.921	16.03
610.339	15.97
610.758	15.91
611.176	15.85
611.594	15.8
612.012	15.75
612.43	15.72
612.847	15.67
613.265	15.61
613.683	15.55
614.101	15.49
614.518	15.43
614.936	15.38
615.353	15.32
615.771	15.28
616.188	15.24
616.606	15.2
617.023	15.16
617.44	15.12
617.857	15.09
618.274	15.05
618.691	15
619.108	14.96
619.525	14.92
619.942	14.89
620.359	14.85
620.776	14.82
621.192	14.78
621.609	14.76
622.026	14.73
622.442	14.71
622.859	14.69
623.275	14.68
623.691	14.66
624.108	14.65
624.524	14.63
624.94	14.63
625.356	14.61
625.772	14.62
626.188	14.6
626.604	14.59
627.02	14.58
627.436	14.57
627.852	14.56
628.268	14.56
628.683	14.55
629.099	14.55
629.514	14.53
629.93	14.52
630.345	14.49
630.761	14.47
631.176	14.44
631.591	14.42
632.007	14.39
632.422	14.35
632.837	14.3
633.252	14.26
633.667	14.21
634.082	14.15
634.497	14.09
634.911	14.03
635.326	13.97
635.741	13.9
636.155	13.81
636.57	13.74
636.984	13.66
637.399	13.57
637.813	13.49
638.228	13.39
638.642	13.3
639.056	13.19
639.47	13.09
639.884	12.99
640.298	12.88
640.712	12.78
641.126	12.69
641.54	12.58
641.954	12.47
642.368	12.37
642.781	12.28
643.195	12.19
643.609	12.08
644.022	11.99
644.436	11.9
644.849	11.83
645.262	11.75
645.676	11.66
646.089	11.59
646.502	11.53
646.915	11.46
647.328	11.4
647.741	11.34
648.154	11.31
648.567	11.27
648.98	11.21
649.393	11.17
649.805	11.14
650.218	11.1
650.631	11.07
651.043	11.03
651.456	11.01
651.868	10.98
652.28	10.94
652.693	10.91
653.105	10.87
653.517	10.84
653.929	10.79
654.341	10.73
654.753	10.68
655.165	10.64
655.577	10.59
655.989	10.53
656.401	10.47
656.813	10.42
657.224	10.34
657.636	10.27
658.047	10.21
658.459	10.14
658.87	10.07
659.282	10
659.693	9.92
660.104	9.84
660.515	9.76
660.926	9.68
661.338	9.6
661.749	9.54
662.159	9.46
662.57	9.41
662.981	9.34
663.392	9.28
663.803	9.22
664.213	9.16
664.624	9.1
665.035	9.05
665.445	9.01
665.855	8.97
666.266	8.93
666.676	8.91
667.086	8.85
667.497	8.82
667.907	8.79
668.317	8.76
668.727	8.74
669.137	8.72
669.547	8.71
669.956	8.68
670.366	8.68
670.776	8.66
671.186	8.64
671.595	8.64
672.005	8.63
672.414	8.63
672.824	8.63
673.233	8.62
673.642	8.64
674.052	8.64
674.461	8.65
674.87	8.66
675.279	8.68
675.688	8.7
676.097	8.73
676.506	8.75
676.915	8.78
677.323	8.82
677.732	8.85
678.141	8.88
678.549	8.91
678.958	8.96
679.366	9.02
679.775	9.07
680.183	9.13
680.592	9.23
681	9.32
681.408	9.41
681.816	9.52
682.224	9.64
682.632	9.77
683.04	9.91
683.448	10.08
683.856	10.22
684.264	10.4
684.671	10.58
685.079	10.76
685.487	10.99
685.894	11.24
686.302	11.5
686.709	11.78
687.116	12.08
687.524	12.38
687.931	12.7
688.338	13.06
688.745	13.42
689.152	13.8
689.559	14.21
689.966	14.63
690.373	15.04
690.78	15.45
691.187	15.88
691.593	16.32
692	16.77
692.407	17.22
692.813	17.68
693.22	18.13
693.626	18.59
694.032	19.05
694.439	19.51
694.845	19.96
695.251	20.43
695.657	20.88
696.063	21.32
696.469	21.75
696.875	22.19
697.281	22.62
697.687	23.07
698.093	23.49
698.498	23.88
698.904	24.28
699.31	24.67
699.715	25.06
700.12	25.44
700.526	25.82
700.931	26.2
701.337	26.57
701.742	26.91
702.147	27.24
702.552	27.59
702.957	27.94
703.362	28.27
703.767	28.58
704.172	28.87
704.577	29.17
704.981	29.46
705.386	29.74
705.791	30.03
706.195	30.32
706.6	30.61
707.004	30.86
707.408	31.11
707.813	31.37
708.217	31.64
708.621	31.91
709.025	32.14
709.43	32.39
709.834	32.65
710.237	32.87
710.641	33.08
711.045	33.28
711.449	33.51
711.853	33.73
712.256	33.94
712.66	34.15
713.064	34.33
713.467	34.55
713.87	34.74
714.274	34.91
714.677	35.12
715.08	35.32
715.484	35.52
715.887	35.7
716.29	35.89
716.693	36.06
717.096	36.21
717.499	36.4
717.901	36.57
718.304	36.72
718.707	36.89
719.109	37.05
719.512	37.19
719.915	37.34
720.317	37.46
720.719	37.57
721.122	37.71
721.524	37.86
721.926	37.99
722.328	38.11
722.731	38.23
723.133	38.36
723.535	38.46
723.937	38.58
724.338	38.69
724.74	38.8
725.142	38.98
725.544	39.07
725.945	39.16
726.347	39.23
726.748	39.32
727.15	39.4
727.551	39.48
727.952	39.53
728.354	39.62
728.755	39.69
729.156	39.78
729.557	39.8
729.958	39.86
730.359	39.91
730.76	40
731.161	40.07
731.562	40.16
731.962	40.2
732.363	40.28
732.763	40.33
733.164	40.35
733.564	40.38
733.965	40.4
734.365	40.46
734.766	40.51
735.166	40.55
735.566	40.59
735.966	40.6
736.366	40.63
736.766	40.66
737.166	40.71
737.566	40.76
737.966	40.82
738.365	40.85
738.765	40.9
739.165	40.91
739.564	40.92
739.964	40.94
740.363	40.95
740.763	40.99
741.162	41.02
741.561	41.04
741.96	41.04
742.36	41.07
742.759	41.11
743.158	41.13
743.557	41.16
743.955	41.19
744.354	41.23
744.753	41.28
745.152	41.31
745.55	41.37
745.949	41.38
746.348	41.44
746.746	41.47
747.144	41.49
747.543	41.51
747.941	41.53
748.339	41.54
748.737	41.54
749.136	41.55
749.534	41.54
749.932	41.54
750.33	41.55
750.727	41.56
751.125	41.57
751.523	41.58
751.921	41.58
752.318	41.61
752.716	41.63
753.113	41.64
753.511	41.65
753.908	41.66
754.305	41.66
754.703	41.63
755.1	41.62
755.497	41.62
755.894	41.59
756.291	41.57
756.688	41.55
757.085	41.55
757.482	41.57
757.878	41.58
758.275	41.59
758.672	41.61
759.068	41.66
759.465	41.65
759.861	41.66
760.258	41.67
760.654	41.7
761.05	41.7
761.447	41.7
761.843	41.67
762.239	41.66
762.635	41.64
763.031	41.63
763.427	41.61
763.822	41.63
764.218	41.63
764.614	41.64
765.01	41.63
765.405	41.65
765.801	41.63
766.196	41.65
766.592	41.67
766.987	41.67
767.382	41.69
767.778	41.68
768.173	41.69
768.568	41.68
768.963	41.7
769.358	41.71
769.753	41.71
770.148	41.74
770.542	41.74
770.937	41.75
771.332	41.77
771.726	41.78
772.121	41.81
772.515	41.82
772.91	41.82
773.304	41.82
773.699	41.84
774.093	41.84
774.487	41.84
774.881	41.86
775.275	41.86
775.669	41.86
776.063	41.86
776.457	41.86
776.851	41.85
777.245	41.87
777.638	41.89
778.032	41.89
778.425	41.93
778.819	41.95
779.212	41.99
779.606	42
779.999	42
780.392	42.01
780.786	42.03
781.179	42.05
781.572	42.09
781.965	42.11
782.358	42.14
782.751	42.13
783.143	42.14
783.536	42.12
783.929	42.13
784.322	42.18
784.714	42.2
785.107	42.22
785.499	42.25
785.891	42.25
786.284	42.23
786.676	42.24
787.068	42.27
787.46	42.28
787.852	42.28
788.245	42.29
788.636	42.27
789.028	42.29
789.42	42.3
789.812	42.29
790.204	42.32
790.595	42.36
790.987	42.34
791.378	42.34
791.77	42.35
792.161	42.37
792.553	42.38
792.944	42.42
793.335	42.46
793.726	42.45
794.117	42.45
794.508	42.42
794.899	42.43
795.29	42.46
795.681	42.46
796.072	42.47
796.463	42.47
796.853	42.48
797.244	42.48
797.634	42.47
798.025	42.49
798.415	42.52
798.806	42.55
799.196	42.53
799.586	42.54
799.976	42.55
800.366	42.57
800.756	42.63
801.146	42.65
801.536	42.66
801.926	42.66
802.316	42.68
802.706	42.71
803.095	42.74
803.485	42.77
803.874	42.78
804.264	42.77
804.653	42.79
805.043	42.78
805.432	42.77
805.821	42.8
806.21	42.83
806.599	42.84
806.988	42.85
807.377	42.84
807.766	42.88
808.155	42.9
808.544	42.94
808.933	42.94
809.321	42.95
809.71	42.98
810.098	42.97
810.487	42.98
810.875	42.99
811.264	43.02
811.652	43.04
812.04	43.03
812.428	43.07
812.816	43.06
813.204	43.08
813.592	43.11
813.98	43.14
814.368	43.16
814.756	43.16
815.144	43.16
815.531	43.16
815.919	43.17
816.306	43.17
816.694	43.15
817.081	43.17
817.469	43.19
817.856	43.19
818.243	43.17
818.63	43.19
819.017	43.19
819.404	43.19
819.791	43.2
820.178	43.21
820.565	43.22
820.952	43.22
821.339	43.23
821.725	43.23
822.112	43.23
822.498	43.25
822.885	43.25
823.271	43.23
823.657	43.2
824.044	43.18
824.43	43.2
824.816	43.19
825.202	43.18
825.588	43.18
825.974	43.15
826.36	43.14
826.746	43.13
827.132	43.11
827.517	43.13
827.903	43.16
828.289	43.15
828.674	43.12
829.06	43.11
829.445	43.11
829.83	43.09
830.216	43.08
830.601	43.08
830.986	43.08
831.371	43.05
831.756	43.04
832.141	43.02
832.526	43.03
832.911	43.02
833.295	43.01
833.68	43.01
834.065	42.98
834.449	42.98
834.834	42.94
835.218	42.94
835.603	42.94
835.987	42.9
836.371	42.89
836.755	42.87
837.139	42.85
837.524	42.83
837.908	42.84
838.291	42.86
838.675	42.85
839.059	42.87
839.443	42.85
839.827	42.84
840.21	42.86
840.594	42.87
840.977	42.84
841.361	42.85
841.744	42.83
842.127	42.79
842.511	42.77
842.894	42.75
843.277	42.75
843.66	42.74
844.043	42.74
844.426	42.72
844.809	42.73
845.191	42.74
845.574	42.72
845.957	42.77
846.339	42.79
846.722	42.81
847.104	42.84
847.487	42.84
847.869	42.85
848.252	42.87
848.634	42.9
849.016	42.9
849.398	42.92
849.78	42.97
850.162	42.97
850.544	42.97
850.926	42.98
851.307	42.97
851.689	42.98
852.071	42.98
852.452	42.98
852.834	42.99
853.215	42.99
853.597	43.02
853.978	43.01
854.359	43
854.741	43
855.122	42.99
855.503	42.99
855.884	42.99
856.265	42.99
856.646	42.98
857.026	43
857.407	43.01
857.788	42.99
858.169	43.01
858.549	43.01
858.93	43.03
859.31	43.06
859.69	43.11
860.071	43.14
860.451	43.16
860.831	43.17
861.211	43.14
861.591	43.16
861.971	43.17
862.351	43.16
862.731	43.2
863.111	43.19
863.491	43.18
863.87	43.16
864.25	43.15
864.629	43.13
865.009	43.13
865.388	43.14
865.768	43.16
866.147	43.15
866.526	43.15
866.905	43.17
867.284	43.2
867.663	43.21
868.042	43.21
868.421	43.23
868.8	43.25
869.179	43.28
869.558	43.29
869.936	43.3
870.315	43.32
870.693	43.34
871.072	43.34
871.45	43.33
871.828	43.35
872.207	43.36
872.585	43.36
872.963	43.38
873.341	43.37
873.719	43.38
874.097	43.4
874.475	43.41
874.853	43.41
875.23	43.4
875.608	43.4
875.986	43.4
876.363	43.42
876.741	43.43
877.118	43.44
877.495	43.45
877.873	43.46
878.25	43.46
878.627	43.47
879.004	43.47
879.381	43.5
879.758	43.52
880.135	43.53
880.512	43.54
880.889	43.54
881.265	43.52
881.642	43.52
882.019	43.51
882.395	43.51
882.772	43.51
883.148	43.49
883.524	43.46
883.901	43.47
884.277	43.45
884.653	43.44
885.029	43.44
885.405	43.46
885.781	43.45
886.157	43.46
886.532	43.46
886.908	43.45
887.284	43.46
887.659	43.45
888.035	43.44
888.411	43.45
888.786	43.45
889.161	43.45
889.537	43.45
889.912	43.46
890.287	43.46
890.662	43.43
891.037	43.43
891.412	43.41
891.787	43.4
892.162	43.42
892.536	43.41
892.911	43.42
893.286	43.42
893.66	43.41
894.035	43.41
894.409	43.4
894.784	43.42
895.158	43.43
895.532	43.44
895.906	43.44
896.281	43.43
896.655	43.42
897.029	43.42
897.402	43.43
897.776	43.42
898.15	43.41
898.524	43.43
898.898	43.44
899.271	43.46
899.645	43.51
900.018	43.54
900.392	43.55
900.765	43.59
901.138	43.59
901.511	43.6
901.884	43.63
902.258	43.66
902.631	43.66
903.003	43.68
903.376	43.67
903.749	43.65
904.122	43.67
904.495	43.72
904.867	43.74
905.24	43.78
905.612	43.8
905.985	43.82
906.357	43.84
906.729	43.86
907.102	43.86
907.474	43.89
907.846	43.91
908.218	43.91
908.59	43.91
908.962	43.91
909.334	43.92
909.705	43.91
910.077	43.92
910.449	43.91
910.82	43.92
911.192	43.92
911.563	43.92
911.935	43.94
912.306	43.97
912.677	44.01
913.048	44.03
913.419	44.02
913.79	44.04
914.161	44.05
914.532	44.09
914.903	44.1
915.274	44.11
915.645	44.14
916.015	44.15
916.386	44.15
916.756	44.12
917.127	44.13
917.497	44.17
917.868	44.16
918.238	44.18
918.608	44.19
918.978	44.2
919.348	44.25
919.718	44.27
920.088	44.29
920.458	44.28
920.828	44.26
921.198	44.24
921.567	44.25
921.937	44.29
922.306	44.25
922.676	44.26
923.045	44.28
923.415	44.25
923.784	44.24
924.153	44.27
924.522	44.27
924.891	44.27
925.26	44.27
925.629	44.27
925.998	44.27
926.367	44.31
926.736	44.3
927.104	44.27
927.473	44.26
927.842	44.29
928.21	44.32
928.578	44.31
928.947	44.36
929.315	44.36
929.683	44.36
930.051	44.33
930.42	44.29
930.788	44.28
931.156	44.27
931.523	44.27
931.891	44.27
932.259	44.23
932.627	44.25
932.994	44.23
933.362	44.22
933.729	44.22
934.097	44.23
934.464	44.23
934.831	44.24
935.199	44.25
935.566	44.27
935.933	44.24
936.3	44.22
936.667	44.2
937.034	44.22
937.401	44.25
937.767	44.29
938.134	44.3
938.501	44.36
938.867	44.41
939.234	44.41
939.6	44.44
939.967	44.49
940.333	44.55
940.699	44.64
941.065	44.67
941.431	44.73
941.798	44.7
942.163	44.75
942.529	44.82
942.895	44.88
943.261	44.96
943.627	45.04
943.992	45.1
944.358	45.12
944.723	45.09
945.089	45.05
945.454	45.03
945.82	45.06
946.185	45.09
946.55	45.01
946.915	44.99
947.28	44.94
947.645	44.9
948.01	44.83
948.375	44.76
948.74	44.74
949.104	44.74
949.469	44.72
949.834	44.67
950.198	44.63
950.562	44.57
950.927	44.51
951.291	44.47
951.655	44.41
952.02	44.43
952.384	44.4
952.748	44.37
953.112	44.38
953.476	44.32
953.839	44.3
954.203	44.26
954.567	44.24
954.931	44.23
955.294	44.22
955.658	44.24
956.021	44.18
956.385	44.19
956.748	44.12
957.111	44.04
957.474	44.06
957.837	44.02
958.2	44.06
958.563	44.1
958.926	44.07
959.289	44.08
959.652	44.05
960.015	44.04
960.377	44.03
960.74	44.08
961.102	44.1
961.465	44.13
961.827	44.18
962.189	44.18
962.552	44.12
962.914	44.13
963.276	44.12
963.638	44.1
964	44.06
964.362	44.08
964.724	44.08
965.085	44.09
965.447	44.01
965.809	43.97
966.17	43.9
966.532	43.93
966.893	43.94
967.255	43.94
967.616	43.92
967.977	43.95
968.338	43.9
968.699	43.89
969.061	43.87
969.421	43.91
969.782	43.91
970.143	43.91
970.504	43.91
970.865	43.88
971.225	43.87
971.586	43.87
971.946	43.89
972.307	43.88
972.667	43.87
973.027	43.91
973.388	43.93
973.748	43.92
974.108	43.98
974.468	43.97
974.828	44.04
975.188	44.07
975.548	44.12
975.907	44.13
976.267	44.18
976.627	44.21
976.986	44.13
977.346	44.07
977.705	44.11
978.064	44.09
978.424	44.08
978.783	43.98
979.142	43.92
979.501	43.93
979.86	44
980.219	44.02
980.578	44.03
980.937	44.11
981.296	44.15
981.654	44.11
982.013	44.15
982.371	44.19
982.73	44.28
983.088	44.36
983.447	44.32
983.805	44.28
984.163	44.28
984.521	44.28
984.879	44.28
985.237	44.32
985.595	44.43
985.953	44.37
986.311	44.32
986.669	44.27
987.026	44.21
987.384	44.22
987.741	44.18
988.099	44.13
988.456	44.09
988.814	44.11
989.171	44.12
989.528	44.05
989.885	44.07
990.242	44.14
990.599	44.23
990.956	44.33
991.313	44.46
991.67	44.49
992.027	44.62
992.383	44.75
992.74	44.87
993.096	44.86
993.453	44.91
993.809	44.99
994.165	45.02
994.522	45.09
994.878	45.12
995.234	45.1
995.59	45.15
995.946	45.21
996.302	45.22
996.658	45.17
997.013	45.23
997.369	45.29
997.725	45.37
998.08	45.51
998.436	45.49
998.791	45.51
999.147	45.51
999.502	45.59
999.857	45.45
1000.212	45.39
1000.567	45.43
1000.922	45.48
1001.277	45.51
1001.632	45.47
1001.987	45.37
1002.342	45.31
1002.696	45.24
1003.051	45.31
1003.406	45.4
1003.76	45.56
1004.114	45.65
1004.469	45.7
1004.823	45.96
1005.177	45.91
1005.531	46.05
1005.885	46.05
1006.239	46.21
1006.593	46.32
1006.947	46.36
1007.301	46.27
1007.655	46.38
1008.008	46.48
1008.362	46.61
1008.715	46.45
1009.069	46.64
1009.422	46.67
1009.776	46.84
1010.129	46.83
1010.482	46.93
1010.835	47.01
1011.188	47.16
1011.541	47.24
1011.894	47.28
1012.247	47.2
1012.6	47.33
1012.952	47.35
1013.305	47.34
1013.657	47.47
1014.01	47.64
1014.362	47.7
1014.715	47.83
1015.067	47.87
1015.419	47.93
1015.771	47.87
1016.123	48.02
1016.475	48.09
1016.827	48.04
1017.179	48.18
1017.531	48.15
1017.883	48.09
1018.234	48.32
1018.586	48.28
1018.938	48.55
1019.289	48.47
1019.64	48.56
1019.992	48.52
1020.343	48.6
1020.694	48.75
1021.045	48.93
1021.396	49.05
1021.747	49.24
1022.098	49.11
1022.449	49.25
1022.8	49.25
1023.151	49.21
1023.501	49.45
1023.852	49.61
1024.202	49.65
1024.553	49.77
1024.903	49.74
1025.253	50.05
1025.604	50.11
1025.954	50.16
1026.304	50.26
1026.654	50.34
1027.004	50.65
1027.354	50.63
1027.703	50.54
1028.053	50.76
1028.403	50.84
1028.753	50.92
1029.102	51.09
1029.452	51.55
1029.801	52.05
1030.15	52.14
1030.499	52.22
897.758	1072.95
901.051	1075.45
904.343	1072.78
907.636	1091.01
910.928	1059.56
914.22	1057.49
917.511	1043.36
920.803	997.36
924.094	992.58
927.384	969.49
930.675	933.25
933.965	927.5
937.255	870.97
940.544	837.37
943.834	797.97
947.123	792.47
950.411	746.65
953.7	732.02
956.988	691.55
960.276	666.19
963.563	653.87
966.851	629.62
970.138	624.65
973.424	608.44
976.711	609.43
979.997	579.71
983.283	576.53
986.568	565.54
989.853	546.9
993.138	538.3
996.423	517.95
999.708	504.68
1002.992	498.2
1006.275	475.05
1009.559	471.85
1012.842	455.67
1016.125	444.04
1019.408	434.91
1022.69	430.49
1025.972	421.95
1029.254	411.87
1032.536	403.95
1035.817	397.5
1039.098	392.78
1042.379	384.92
1045.659	379.91
1048.939	371.34
1052.219	363.31
1055.498	358.81
1058.778	349.79
1062.057	342.58
1065.335	339.24
1068.614	335.21
1071.892	331.35
1075.17	320.53
1078.447	315.92
1081.724	312.5
1085.001	310.13
1088.278	304.26
1091.554	298.11
1094.83	299.09
1098.106	296.69
1101.382	293.62
1104.657	291.99
1107.932	286.95
1111.206	289.58
1114.481	281.69
1117.755	280.55
1121.029	277.53
1124.302	277.84
1127.575	273.69
1130.848	269.76
1134.121	267.21
1137.393	265.82
1140.665	261.05
1143.937	258.64
1147.208	256.68
1150.48	256.55
1153.75	252.72
1157.021	248.85
1160.291	249.11
1163.561	245.32
1166.831	245.39
1170.101	243.55
1173.37	243.2
1176.639	243.19
1179.907	241.38
1183.176	238.5
1186.444	238.41
1189.711	237.6
1192.979	238
1196.246	236.28
1199.513	237.32
1202.78	236.13
1206.046	235.56
1209.312	233.74
1212.578	234.23
1215.843	235.55
1219.108	234.88
1222.373	239.21
1225.638	240.97
1228.902	244.31
1232.166	243.38
1235.43	245.53
1238.693	248.22
1241.956	250.32
1245.219	253.79
1248.482	253.87
1251.744	254.93
1255.006	254.68
1258.268	249.45
1261.529	247.46
1264.79	245.81
1268.051	244.71
1271.312	241.29
1274.572	238.95
1277.832	236.35
1281.092	232.41
1284.351	230.5
1287.61	230.17
1290.869	227.19
1294.128	225.26
1297.386	224.52
1300.644	223.04
1303.902	224.08
1307.159	223.26
1310.416	222.46
1313.673	222.04
1316.93	224.39
1320.186	223.93
1323.442	224.57
1326.697	227.77
1329.953	228.95
1333.208	230.11
1336.463	232.02
1339.717	232.28
1342.972	236
1346.226	238.34
1349.479	239.12
1352.733	240.24
1355.986	241.48
1359.238	241.35
1362.491	242.5
1365.743	244.76
1368.995	246.05
1372.247	245.21
1375.498	245.28
1378.749	245.96
1382	243.37
1385.251	243.77
1388.501	242.34
1391.751	243.24
1395	242.09
1398.25	240.2
1401.499	238.49
1404.748	236.94
1407.996	234.52
1411.244	233.6
1414.492	232.36
1417.74	230.08
1420.987	226.82
1424.234	227.12
1427.481	223.63
1430.728	223.94
1433.974	221.54
1437.22	219.86
1440.465	219.31
1443.711	217.41
1446.956	215.69
1450.201	213.76
1453.445	211.46
1456.689	211.24
1459.933	207
1463.177	205.75
1466.42	202.69
1469.663	200.8
1472.906	199.27
1476.148	194.36
1479.391	192.06
1482.633	190.69
1485.874	187.95
1489.115	187.07
1492.356	184.8
1495.597	184.28
1498.838	182.16
1502.078	180.76
1505.318	180.23
1508.557	180.08
1511.797	180.32
1515.036	178.94
1518.274	178.5
1521.513	176.93
1524.751	176.8
1527.989	176.38
1531.227	175.89
1534.464	176.06
1537.701	175.15
1540.938	174.61
1544.174	172.08
1547.41	172.57
1550.646	172
1553.882	171.68
1557.117	169.85
1560.352	168.33
1563.587	168.35
1566.821	167.37
1570.055	165.83
1573.289	164.47
1576.523	164.49
1579.756	163.87
1582.989	162.05
1586.222	162.25
1589.454	161.86
1592.686	163.42
1595.918	162.81
1599.15	161.78
1602.381	162.47
1605.612	162.28
1608.843	162.45
1612.073	162.51
1615.303	163.06
1618.533	163.48
1621.762	163.14
1624.992	162.82
1628.221	162.03
1631.449	161.96
1634.678	162.22
1637.906	162.38
1641.134	162.18
1644.361	162.23
1647.588	162.7
1650.815	162.41
1654.042	161.68
1657.269	162.6
1660.495	162.61
1663.72	161.94
1666.946	163.1
1670.171	163.25
1673.396	163.18
1676.621	162.98
1679.845	163.72
1683.069	163.19
1686.293	164.05
1689.517	164.82
1692.74	164.58
1695.963	165.1
1699.185	166.91
1702.408	166.69
1705.63	166.95
1708.852	167.78
1712.073	168.54
1715.294	168.35
1718.515	169.9
1721.736	169.69
1724.956	169.94
1728.176	170.04
1731.396	171.57
1734.616	170.42
1737.835	171.39
1741.054	170.3
1744.272	169.94
1747.491	171.71
1750.709	171.94
1753.927	171.22
1757.144	170.74
1760.361	171.35
1763.578	172.18
1766.795	171.25
1770.011	173.55
1773.227	172.71
1776.443	175.25
1779.658	176.17
1782.874	175.45
1786.089	175.85
1789.303	176.44
1792.518	179.28
1795.732	179
1798.945	180.47
1802.159	180.54
1805.372	180.2
1808.585	183.59
1811.797	183.56
1815.01	183.28
1818.222	184.94
1821.434	186.73
1824.645	187.07
1827.856	189.47
1831.067	191.39
1834.278	190.39
1837.488	191.92
1840.698	193.22
1843.908	191.53
1847.117	192.53
1850.326	194.17
1853.535	193.62
1856.744	195.47
1859.952	195.84
1863.16	193.88
1866.368	192.48
1869.575	194.32
1872.782	191.37
1875.989	191.24
1879.196	190.72
1882.402	189.33
1885.608	189.32
1888.814	189.3
1892.019	188.83
1895.224	187.79
1898.429	186.78
1901.634	187.4
1904.838	187.8
1908.042	189.68
1911.246	188.94
1914.449	189.5
1917.652	190.22
1920.855	189.86
1924.058	190.01
1927.26	189.26
1930.462	189.88
1933.664	191.59
1936.865	190.27
1940.066	189.18
1943.267	188.27
1946.467	188.97
1949.668	189.44
1952.868	191.65
1956.067	191.84
1959.267	191.78
1962.466	192.37
1965.665	191.57
1968.863	192.44
1972.061	195.47
1975.259	197.88
1978.457	198.91
1981.654	200.41
1984.852	201.41
1988.048	200.13
1991.245	202.52
1994.441	204.88
1997.637	206.51
2000.833	210.5
2004.028	213.07
2007.223	214.24
2010.418	215.46
2013.613	220.43
2016.807	222.79
2020.001	224.55
2023.194	228.7
2026.388	233.84
2029.581	238.29
2032.774	240.33
2035.966	244.12
2039.158	245.51
2042.35	249.54
2045.542	250.48
2048.733	254.71
2051.924	258.26
2055.115	262.49
2058.306	262.64
2061.496	264.7
2064.686	265.33
2067.875	269.41
2071.065	271.09
2074.254	269.18
2077.442	273.78
2080.631	275.88
2083.819	277.19
2087.007	277.05
2090.195	280.64
2093.382	282.64
2096.569	280.91
2099.756	285.32
2102.942	286.59
2106.128	288.82
2109.314	295.54
2112.5	293.32
2115.685	300.54
2118.87	301.8
2122.055	306.83
2125.239	308.75
2128.424	313.47
2131.608	316.3
2134.791	319.84
2137.974	321.77
2141.157	323.26
2144.34	323.83
2147.523	329.99
2150.705	327.24
2153.887	330.17
2157.068	332.21
2160.25	329.14
2163.431	329.07
2166.611	333.33
2169.792	339.8
2172.972	341.78
2176.152	344.91
2179.331	349.57
2182.511	353.7
2185.69	357.46
2188.868	363.85
2192.047	363.84
2195.225	374.14
2198.403	383.51
2201.58	388.84
2204.758	398
2207.935	405.97
2211.111	413.63
2214.288	418.42
2217.464	419.4
2220.64	426.49
2223.815	430.54
2226.991	449.23
2230.166	450.26
2233.34	458.72
2236.515	466.62
2239.689	465.13
2242.863	468.55
2246.036	478.67
2249.209	475.52
2252.382	485.96
2255.555	497.41
2258.727	501.99
2261.9	503.9
2265.071	508.91
2268.243	518.25
2271.414	523.83
2274.585	535.48
2277.756	539.93
2280.926	545.2
2284.096	557.25
2287.266	567.31
2290.436	575.01
2293.605	586.62
2296.774	603.01
2299.942	623.3
2303.111	626.14
2306.279	640.36
2309.447	649.55
2312.614	668.09
2315.781	686.88
2318.948	715.92
2322.115	704.54
2325.281	744.63
2328.447	730.4
2331.613	759.3
2334.779	748.89
2337.944	783.22
2341.109	790.49
2344.274	809.21
2347.438	837.44
2350.602	836.09
2353.766	867.29
2356.929	880.45
2360.092	871.64
2363.255	932.18
2366.418	932.65
2369.58	951.23
2372.742	1009.36
2375.904	1034.66
2379.066	1029.91
2382.227	1008.82
2385.388	1096.03
2388.548	1091.59
2391.709	1106.4
2394.869	1230.74
2398.029	1181.74
2401.188	1215.14
2404.347	1206.21
2407.506	1184.35
2410.665	1218.87
2413.823	1287.5
2416.981	1362.76
2420.139	1320.95
2423.296	1303.9
2426.453	1366.61
2429.61	1310.71
2432.767	1368.28
2435.923	1351.73
2439.079	1485.8
2442.235	1508.42
2445.391	1493.06
2448.546	1486.06
2451.701	1449.32
2454.855	1442.07
2458.009	1539.69
2461.163	1594.82
2464.317	1658.16
2467.471	1701.93
2470.624	1704.33
2473.777	1657.86
2476.929	1603.56
2480.082	1561.99
2483.234	1547.34
2486.385	1620.81
2489.537	1633.09
2492.688	1687.81
2495.839	1637.55
2498.989	1604.03
2502.14	1606.69
2505.29	1624.02
2508.439	1640.84
2511.589	1643
2514.738	1794.37
2517.887	1753.91
2521.035	1845.08
2524.183	1859.76
2527.331	1873.52
2530.479	1866.33
2533.627	1878.16
