Data from N_3_DIV_IL_4N_Splice17_14-16-32-128.txt Node
Date: Sat Mar 07 14:16:32 EST 2020
User: sa697716
Spectrometer: NQ5500242
Trigger mode: 0
Integration Time (sec): 1.450000E-1
Scans to average: 20
Nonlinearity correction enabled: false
Boxcar width: 5
Storing dark spectrum: false
XAxis mode: Wavelengths
Number of Pixels in Spectrum: 512
>>>>>Begin Spectral Data<<<<<
187.83	115.04
188.298	126.21
188.766	112.25
189.233	102.68
189.701	93.53
190.169	94.05
190.636	66.2
191.104	-57.69
191.571	-364.31
192.039	-363.75
192.506	-600.16
192.974	155.82
193.441	172.71
193.908	35.73
194.375	54.52
194.842	-7.76
195.31	-12.61
195.777	-109.37
196.244	51.89
196.711	71.09
197.177	74.75
197.644	75.88
198.111	76.64
198.578	76.69
199.045	77.32
199.511	77.2
199.978	77.33
200.445	77.64
200.911	77.52
201.378	77.72
201.844	77.85
202.31	77.33
202.777	76.77
203.243	76.45
203.709	76.19
204.176	75.6
204.642	75.32
205.108	74.79
205.574	74.1
206.04	73.57
206.506	73.11
206.972	72.59
207.438	71.97
207.903	71.51
208.369	70.14
208.835	68.87
209.301	67.28
209.766	65.35
210.232	63.98
210.697	62.4
211.163	60.79
211.628	59.32
212.094	57.86
212.559	56.82
213.024	55.61
213.49	54.53
213.955	53.54
214.42	52.7
214.885	51.63
215.35	49.79
215.815	47.49
216.28	44.83
216.745	41.82
217.21	38.68
217.675	35.87
218.14	33.27
218.604	31.06
219.069	29.13
219.534	27.54
219.998	26.2
220.463	25.12
220.927	24.15
221.392	23.38
221.856	22.7
222.32	22.14
222.785	21.6
223.249	21.17
223.713	20.74
224.177	20.37
224.642	19.99
225.106	19.62
225.57	19.23
226.034	18.92
226.497	18.62
226.961	18.33
227.425	18.04
227.889	17.78
228.353	17.5
228.816	17.22
229.28	16.97
229.744	16.73
230.207	16.49
230.671	16.29
231.134	16.07
231.597	15.88
232.061	15.66
232.524	15.48
232.987	15.27
233.45	15.09
233.914	14.92
234.377	14.73
234.84	14.55
235.303	14.4
235.766	14.24
236.229	14.08
236.691	13.92
237.154	13.78
237.617	13.63
238.08	13.48
238.542	13.33
239.005	13.22
239.468	13.1
239.93	12.99
240.393	12.87
240.855	12.73
241.317	12.61
241.78	12.48
242.242	12.35
242.704	12.25
243.166	12.14
243.629	12.04
244.091	11.92
244.553	11.8
245.015	11.68
245.477	11.57
245.939	11.48
246.4	11.38
246.862	11.29
247.324	11.19
247.786	11.09
248.247	10.98
248.709	10.87
249.17	10.77
249.632	10.69
250.093	10.59
250.555	10.5
251.016	10.42
251.477	10.32
251.939	10.25
252.4	10.17
252.861	10.1
253.322	10.04
253.783	9.97
254.244	9.91
254.705	9.84
255.166	9.78
255.627	9.73
256.088	9.67
256.549	9.63
257.009	9.57
257.47	9.5
257.931	9.44
258.391	9.37
258.852	9.3
259.312	9.24
259.773	9.18
260.233	9.12
260.694	9.06
261.154	9
261.614	8.94
262.074	8.88
262.534	8.83
262.994	8.78
263.455	8.73
263.915	8.7
264.374	8.65
264.834	8.62
265.294	8.58
265.754	8.54
266.214	8.51
266.673	8.49
267.133	8.47
267.593	8.44
268.052	8.42
268.512	8.4
268.971	8.36
269.431	8.35
269.89	8.32
270.349	8.3
270.809	8.27
271.268	8.25
271.727	8.22
272.186	8.2
272.645	8.18
273.104	8.16
273.563	8.12
274.022	8.11
274.481	8.08
274.94	8.06
275.399	8.04
275.857	8.03
276.316	8.01
276.775	7.99
277.233	7.97
277.692	7.95
278.15	7.93
278.609	7.91
279.067	7.9
279.525	7.88
279.984	7.85
280.442	7.83
280.9	7.82
281.358	7.8
281.816	7.78
282.274	7.76
282.732	7.74
283.19	7.71
283.648	7.7
284.106	7.68
284.564	7.67
285.021	7.66
285.479	7.65
285.937	7.63
286.394	7.62
286.852	7.6
287.309	7.58
287.767	7.57
288.224	7.55
288.682	7.52
289.139	7.5
289.596	7.47
290.053	7.43
290.511	7.39
290.968	7.36
291.425	7.33
291.882	7.3
292.339	7.27
292.796	7.24
293.252	7.22
293.709	7.18
294.166	7.17
294.623	7.15
295.079	7.13
295.536	7.13
295.992	7.1
296.449	7.07
296.905	7.06
297.362	7.03
297.818	7.02
298.274	7
298.731	6.99
299.187	6.96
299.643	6.93
300.099	6.92
300.555	6.89
301.011	6.87
301.467	6.86
301.923	6.83
302.379	6.83
302.835	6.82
303.291	6.8
303.746	6.79
304.202	6.78
304.658	6.78
305.113	6.76
305.569	6.76
306.024	6.76
306.479	6.76
306.935	6.75
307.39	6.75
307.845	6.74
308.301	6.74
308.756	6.73
309.211	6.73
309.666	6.73
310.121	6.72
310.576	6.73
311.031	6.72
311.486	6.72
311.94	6.72
312.395	6.72
312.85	6.71
313.305	6.71
313.759	6.71
314.214	6.7
314.668	6.69
315.123	6.68
315.577	6.65
316.032	6.64
316.486	6.62
316.94	6.6
317.394	6.58
317.849	6.55
318.303	6.53
318.757	6.51
319.211	6.49
319.665	6.47
320.119	6.46
320.572	6.45
321.026	6.44
321.48	6.42
321.934	6.4
322.387	6.38
322.841	6.37
323.295	6.36
323.748	6.34
324.202	6.32
324.655	6.31
325.108	6.29
325.562	6.27
326.015	6.25
326.468	6.24
326.921	6.24
327.374	6.24
327.827	6.23
328.28	6.22
328.733	6.22
329.186	6.21
329.639	6.2
330.092	6.19
330.545	6.19
330.997	6.19
331.45	6.19
331.903	6.18
332.355	6.17
332.808	6.17
333.26	6.16
333.713	6.16
334.165	6.17
334.617	6.18
335.069	6.18
335.522	6.2
335.974	6.2
336.426	6.2
336.878	6.2
337.33	6.2
337.782	6.2
338.234	6.2
338.686	6.2
339.137	6.19
339.589	6.17
340.041	6.16
340.493	6.14
340.944	6.12
341.396	6.1
341.847	6.08
342.299	6.05
342.75	6.03
343.201	6.01
343.653	5.99
344.104	5.95
344.555	5.93
345.006	5.91
345.457	5.9
345.908	5.88
346.359	5.88
346.81	5.87
347.261	5.86
347.712	5.85
348.163	5.83
348.613	5.82
349.064	5.83
349.515	5.83
349.965	5.83
350.416	5.81
350.866	5.81
351.317	5.81
351.767	5.81
352.217	5.81
352.668	5.81
353.118	5.82
353.568	5.81
354.018	5.81
354.468	5.81
354.918	5.81
355.368	5.82
355.818	5.82
356.268	5.83
356.718	5.83
357.168	5.83
357.617	5.83
358.067	5.83
358.517	5.84
358.966	5.85
359.416	5.85
359.865	5.85
360.315	5.87
360.764	5.87
361.213	5.87
361.663	5.87
362.112	5.89
362.561	5.9
363.01	5.91
363.459	5.92
363.908	5.92
364.357	5.93
364.806	5.94
365.255	5.96
365.703	5.98
366.152	6
366.601	6.02
367.05	6.04
367.498	6.07
367.947	6.1
368.395	6.14
368.844	6.17
369.292	6.21
369.74	6.25
370.189	6.28
370.637	6.31
371.085	6.33
371.533	6.37
371.981	6.4
372.429	6.44
372.877	6.49
373.325	6.52
373.773	6.56
374.221	6.6
374.669	6.63
375.116	6.67
375.564	6.71
376.012	6.77
376.459	6.82
376.907	6.87
377.354	6.92
377.801	6.97
378.249	7.03
378.696	7.08
379.143	7.13
379.591	7.19
380.038	7.25
380.485	7.3
380.932	7.35
381.379	7.41
381.826	7.47
382.273	7.53
382.72	7.55
383.166	7.6
383.613	7.64
384.06	7.69
384.506	7.73
384.953	7.78
385.4	7.82
385.846	7.87
386.292	7.9
386.739	7.94
387.185	7.98
387.631	8.04
388.078	8.07
388.524	8.11
388.97	8.15
389.416	8.19
389.862	8.22
390.308	8.26
390.754	8.28
391.2	8.31
391.645	8.34
392.091	8.38
392.537	8.41
392.983	8.45
393.428	8.49
393.874	8.51
394.319	8.53
394.765	8.54
395.21	8.55
395.655	8.55
396.101	8.59
396.546	8.59
396.991	8.6
397.436	8.62
397.881	8.63
398.326	8.64
398.771	8.67
399.216	8.68
399.661	8.72
400.106	8.73
400.551	8.74
400.995	8.73
401.44	8.72
401.885	8.71
402.329	8.7
402.774	8.7
403.218	8.7
403.663	8.69
404.107	8.7
404.551	8.68
404.995	8.67
405.44	8.67
405.884	8.66
406.328	8.66
406.772	8.66
407.216	8.66
407.66	8.65
408.104	8.62
408.547	8.61
408.991	8.6
409.435	8.58
409.879	8.58
410.322	8.59
410.766	8.61
411.209	8.61
411.653	8.62
412.096	8.62
412.54	8.63
412.983	8.64
413.426	8.65
413.869	8.66
414.312	8.68
414.756	8.71
415.199	8.71
415.642	8.7
416.085	8.71
416.527	8.7
416.97	8.67
417.413	8.66
417.856	8.63
418.298	8.6
418.741	8.58
419.184	8.57
419.626	8.55
420.069	8.53
420.511	8.52
420.953	8.51
421.396	8.51
421.838	8.51
422.28	8.53
422.722	8.56
423.164	8.57
423.606	8.58
424.048	8.58
424.49	8.59
424.932	8.6
425.374	8.59
425.816	8.55
426.258	8.52
426.699	8.49
427.141	8.46
427.582	8.44
428.024	8.45
428.465	8.44
428.907	8.42
429.348	8.4
429.789	8.39
430.231	8.39
430.672	8.41
431.113	8.45
431.554	8.47
431.995	8.49
432.436	8.49
432.877	8.5
433.318	8.51
433.759	8.54
434.2	8.56
434.64	8.58
435.081	8.59
435.522	8.62
435.962	8.64
436.403	8.68
436.843	8.7
437.284	8.7
437.724	8.7
438.164	8.7
438.604	8.71
439.045	8.71
439.485	8.72
439.925	8.73
440.365	8.73
440.805	8.72
441.245	8.74
441.685	8.77
442.125	8.82
442.564	8.85
443.004	8.86
443.444	8.89
443.883	8.91
444.323	8.92
444.762	8.95
445.202	9
445.641	9.03
446.081	9.06
446.52	9.07
446.959	9.1
447.398	9.12
447.837	9.15
448.276	9.16
448.716	9.18
449.154	9.21
449.593	9.24
450.032	9.23
450.471	9.23
450.91	9.23
451.349	9.24
451.787	9.21
452.226	9.21
452.664	9.22
453.103	9.21
453.541	9.19
453.98	9.19
454.418	9.15
454.856	9.14
455.295	9.13
455.733	9.1
456.171	9.08
456.609	9.07
457.047	9.05
457.485	9.01
457.923	9
458.361	8.99
458.798	8.97
459.236	8.96
459.674	8.95
460.111	8.93
460.549	8.93
460.987	8.94
461.424	8.94
461.862	8.94
462.299	8.95
462.736	8.94
463.173	8.95
463.611	8.95
464.048	8.95
464.485	8.95
464.922	8.96
465.359	8.96
465.796	8.94
466.233	8.93
466.67	8.94
467.106	8.94
467.543	8.93
467.98	8.93
468.416	8.94
468.853	8.94
469.29	8.93
469.726	8.92
470.162	8.92
470.599	8.94
471.035	8.93
471.471	8.91
471.907	8.92
472.344	8.93
472.78	8.93
473.216	8.9
473.652	8.91
474.088	8.91
474.523	8.91
474.959	8.91
475.395	8.89
475.831	8.89
476.266	8.89
476.702	8.87
477.138	8.85
477.573	8.85
478.008	8.85
478.444	8.85
478.879	8.85
479.314	8.84
479.75	8.84
480.185	8.83
480.62	8.82
481.055	8.81
481.49	8.81
481.925	8.8
482.36	8.8
482.795	8.78
483.229	8.77
483.664	8.77
484.099	8.76
484.534	8.75
484.968	8.76
485.403	8.76
485.837	8.77
486.271	8.79
486.706	8.8
487.14	8.8
487.574	8.83
488.009	8.85
488.443	8.86
488.877	8.9
489.311	8.92
489.745	8.95
490.179	8.99
490.613	9.02
491.046	9.05
491.48	9.1
491.914	9.15
492.348	9.21
492.781	9.26
493.215	9.32
493.648	9.38
494.082	9.44
494.515	9.51
494.948	9.58
495.382	9.65
495.815	9.74
496.248	9.82
496.681	9.91
497.114	9.99
497.547	10.08
497.98	10.18
498.413	10.28
498.846	10.39
499.279	10.5
499.711	10.63
500.144	10.75
500.577	10.87
501.009	11
501.442	11.13
501.874	11.29
502.306	11.44
502.739	11.6
503.171	11.76
503.603	11.94
504.036	12.12
504.468	12.29
504.9	12.48
505.332	12.67
505.764	12.87
506.196	13.08
506.627	13.29
507.059	13.52
507.491	13.75
507.923	13.99
508.354	14.24
508.786	14.5
509.217	14.76
509.649	15.04
510.08	15.32
510.512	15.6
510.943	15.89
511.374	16.19
511.805	16.47
512.237	16.78
512.668	17.09
513.099	17.39
513.53	17.7
513.961	18.04
514.391	18.36
514.822	18.7
515.253	19.03
515.684	19.36
516.114	19.7
516.545	20.05
516.975	20.39
517.406	20.73
517.836	21.08
518.267	21.44
518.697	21.76
519.127	22.08
519.558	22.41
519.988	22.74
520.418	23.07
520.848	23.39
521.278	23.71
521.708	24.11
522.138	24.42
522.567	24.71
522.997	24.98
523.427	25.27
523.857	25.55
524.286	25.81
524.716	26.08
525.145	26.32
525.575	26.58
526.004	26.82
526.433	26.97
526.863	27.19
527.292	27.42
527.721	27.62
528.15	27.82
528.579	28.02
529.008	28.23
529.437	28.4
529.866	28.57
530.295	28.73
530.724	28.88
531.152	29.02
531.581	29.16
532.01	29.28
532.438	29.43
532.867	29.55
533.295	29.65
533.723	29.74
534.152	29.82
534.58	29.92
535.008	29.98
535.436	30.06
535.865	30.13
536.293	30.19
536.721	30.24
537.149	30.29
537.576	30.33
538.004	30.38
538.432	30.43
538.86	30.48
539.287	30.5
539.715	30.54
540.143	30.57
540.57	30.61
540.998	30.64
541.425	30.69
541.852	30.72
542.28	30.76
542.707	30.8
543.134	30.84
543.561	30.87
543.988	30.91
544.415	30.93
544.842	30.96
545.269	30.99
545.696	31.03
546.123	31.06
546.549	31.1
546.976	31.15
547.403	31.18
547.829	31.21
548.256	31.25
548.682	31.28
549.108	31.32
549.535	31.35
549.961	31.37
550.387	31.38
550.813	31.4
551.24	31.38
551.666	31.36
552.092	31.36
552.518	31.36
552.943	31.34
553.369	31.33
553.795	31.31
554.221	31.3
554.646	31.26
555.072	31.21
555.498	31.16
555.923	31.11
556.349	31.06
556.774	31
557.199	30.94
557.625	30.86
558.05	30.79
558.475	30.72
558.9	30.63
559.325	30.56
559.75	30.47
560.175	30.39
560.6	30.28
561.025	30.18
561.449	30.06
561.874	29.94
562.299	29.81
562.723	29.68
563.148	29.51
563.572	29.34
563.997	29.16
564.421	29.01
564.846	28.84
565.27	28.68
565.694	28.5
566.118	28.32
566.542	28.15
566.966	27.96
567.39	27.77
567.814	27.59
568.238	27.41
568.662	27.24
569.086	27.06
569.509	26.88
569.933	26.68
570.357	26.49
570.78	26.31
571.204	26.13
571.627	25.96
572.05	25.78
572.474	25.64
572.897	25.49
573.32	25.33
573.743	25.17
574.166	25.02
574.589	24.88
575.012	24.75
575.435	24.64
575.858	24.51
576.281	24.38
576.704	24.27
577.126	24.15
577.549	24.03
577.972	23.93
578.394	23.81
578.817	23.71
579.239	23.61
579.661	23.51
580.084	23.4
580.506	23.3
580.928	23.22
581.35	23.11
581.772	23.02
582.194	22.93
582.616	22.84
583.038	22.76
583.46	22.66
583.882	22.58
584.303	22.5
584.725	22.41
585.147	22.33
585.568	22.26
585.99	22.19
586.411	22.09
586.833	22.02
587.254	21.94
587.675	21.88
588.096	21.81
588.518	21.74
588.939	21.69
589.36	21.63
589.781	21.58
590.202	21.51
590.623	21.47
591.043	21.43
591.464	21.39
591.885	21.34
592.305	21.29
592.726	21.26
593.147	21.22
593.567	21.17
593.987	21.12
594.408	21.09
594.828	21.06
595.248	21.04
595.669	21
596.089	20.96
596.509	20.93
596.929	20.89
597.349	20.84
597.769	20.81
598.189	20.77
598.608	20.74
599.028	20.69
599.448	20.63
599.867	20.57
600.287	20.51
600.706	20.46
601.126	20.4
601.545	20.35
601.965	20.3
602.384	20.24
602.803	20.16
603.222	20.1
603.641	20.03
604.061	19.97
604.48	19.89
604.898	19.82
605.317	19.74
605.736	19.68
606.155	19.59
606.574	19.5
606.992	19.42
607.411	19.33
607.829	19.22
608.248	19.13
608.666	19.03
609.085	18.94
609.503	18.86
609.921	18.76
610.339	18.66
610.758	18.57
611.176	18.47
611.594	18.39
612.012	18.32
612.43	18.25
612.847	18.17
613.265	18.09
613.683	18.01
614.101	17.93
614.518	17.86
614.936	17.78
615.353	17.69
615.771	17.63
616.188	17.56
616.606	17.48
617.023	17.41
617.44	17.36
617.857	17.3
618.274	17.24
618.691	17.17
619.108	17.1
619.525	17.05
619.942	17.01
620.359	16.96
620.776	16.92
621.192	16.88
621.609	16.86
622.026	16.8
622.442	16.76
622.859	16.73
623.275	16.71
623.691	16.68
624.108	16.66
624.524	16.64
624.94	16.62
625.356	16.6
625.772	16.58
626.188	16.57
626.604	16.55
627.02	16.55
627.436	16.53
627.852	16.51
628.268	16.49
628.683	16.47
629.099	16.45
629.514	16.42
629.93	16.4
630.345	16.37
630.761	16.32
631.176	16.27
631.591	16.22
632.007	16.17
632.422	16.11
632.837	16.05
633.252	15.98
633.667	15.9
634.082	15.82
634.497	15.73
634.911	15.64
635.326	15.54
635.741	15.45
636.155	15.35
636.57	15.24
636.984	15.13
637.399	14.99
637.813	14.86
638.228	14.73
638.642	14.59
639.056	14.44
639.47	14.3
639.884	14.15
640.298	14
640.712	13.85
641.126	13.71
641.54	13.56
641.954	13.42
642.368	13.28
642.781	13.14
643.195	13.02
643.609	12.89
644.022	12.76
644.436	12.66
644.849	12.54
645.262	12.43
645.676	12.32
646.089	12.23
646.502	12.15
646.915	12.08
647.328	12
647.741	11.92
648.154	11.85
648.567	11.79
648.98	11.73
649.393	11.68
649.805	11.63
650.218	11.59
650.631	11.54
651.043	11.49
651.456	11.44
651.868	11.39
652.28	11.34
652.693	11.31
653.105	11.26
653.517	11.2
653.929	11.16
654.341	11.1
654.753	11.04
655.165	10.97
655.577	10.9
655.989	10.84
656.401	10.76
656.813	10.68
657.224	10.59
657.636	10.49
658.047	10.41
658.459	10.31
658.87	10.22
659.282	10.12
659.693	10.03
660.104	9.93
660.515	9.83
660.926	9.75
661.338	9.66
661.749	9.58
662.159	9.5
662.57	9.42
662.981	9.34
663.392	9.26
663.803	9.21
664.213	9.15
664.624	9.09
665.035	9.04
665.445	8.99
665.855	8.95
666.266	8.92
666.676	8.89
667.086	8.85
667.497	8.82
667.907	8.8
668.317	8.78
668.727	8.76
669.137	8.75
669.547	8.74
669.956	8.73
670.366	8.73
670.776	8.71
671.186	8.71
671.595	8.71
672.005	8.72
672.414	8.73
672.824	8.72
673.233	8.73
673.642	8.74
674.052	8.76
674.461	8.78
674.87	8.8
675.279	8.84
675.688	8.88
676.097	8.91
676.506	8.94
676.915	8.99
677.323	9.04
677.732	9.1
678.141	9.16
678.549	9.22
678.958	9.29
679.366	9.36
679.775	9.43
680.183	9.51
680.592	9.62
681	9.74
681.408	9.85
681.816	9.98
682.224	10.12
682.632	10.28
683.04	10.45
683.448	10.63
683.856	10.82
684.264	11.04
684.671	11.28
685.079	11.54
685.487	11.83
685.894	12.15
686.302	12.49
686.709	12.85
687.116	13.22
687.524	13.64
687.931	14.08
688.338	14.57
688.745	15.07
689.152	15.59
689.559	16.15
689.966	16.72
690.373	17.31
690.78	17.92
691.187	18.55
691.593	19.2
692	19.86
692.407	20.52
692.813	21.21
693.22	21.88
693.626	22.59
694.032	23.28
694.439	23.97
694.845	24.68
695.251	25.38
695.657	26.06
696.063	26.75
696.469	27.45
696.875	28.14
697.281	28.81
697.687	29.49
698.093	30.15
698.498	30.8
698.904	31.45
699.31	32.07
699.715	32.69
700.12	33.31
700.526	33.91
700.931	34.5
701.337	35.08
701.742	35.65
702.147	36.21
702.552	36.75
702.957	37.27
703.362	37.79
703.767	38.3
704.172	38.82
704.577	39.31
704.981	39.8
705.386	40.27
705.791	40.74
706.195	41.21
706.6	41.66
707.004	42.09
707.408	42.54
707.813	43
708.217	43.41
708.621	43.83
709.025	44.24
709.43	44.63
709.834	45.05
710.237	45.44
710.641	45.83
711.045	46.21
711.449	46.61
711.853	46.99
712.256	47.31
712.66	47.69
713.064	48.02
713.467	48.36
713.87	48.7
714.274	49.01
714.677	49.33
715.08	49.62
715.484	49.93
715.887	50.24
716.29	50.52
716.693	50.82
717.096	51.08
717.499	51.37
717.901	51.65
718.304	51.92
718.707	52.2
719.109	52.45
719.512	52.71
719.915	52.94
720.317	53.15
720.719	53.4
721.122	53.64
721.524	53.87
721.926	54.08
722.328	54.31
722.731	54.52
723.133	54.72
723.535	54.9
723.937	55.11
724.338	55.27
724.74	55.44
725.142	55.62
725.544	55.78
725.945	55.97
726.347	56.11
726.748	56.21
727.15	56.33
727.551	56.46
727.952	56.6
728.354	56.72
728.755	56.83
729.156	56.97
729.557	57.08
729.958	57.19
730.359	57.29
730.76	57.41
731.161	57.52
731.562	57.67
731.962	57.73
732.363	57.83
732.763	57.94
733.164	58.04
733.564	58.12
733.965	58.18
734.365	58.28
734.766	58.33
735.166	58.42
735.566	58.5
735.966	58.54
736.366	58.62
736.766	58.65
737.166	58.72
737.566	58.77
737.966	58.82
738.365	58.87
738.765	58.89
739.165	58.94
739.564	58.97
739.964	59.01
740.363	59.03
740.763	59.08
741.162	59.14
741.561	59.14
741.96	59.17
742.36	59.2
742.759	59.24
743.158	59.3
743.557	59.32
743.955	59.35
744.354	59.41
744.753	59.45
745.152	59.52
745.55	59.56
745.949	59.6
746.348	59.67
746.746	59.73
747.144	59.77
747.543	59.79
747.941	59.84
748.339	59.84
748.737	59.86
749.136	59.87
749.534	59.86
749.932	59.84
750.33	59.83
750.727	59.85
751.125	59.83
751.523	59.81
751.921	59.81
752.318	59.82
752.716	59.84
753.113	59.84
753.511	59.85
753.908	59.87
754.305	59.89
754.703	59.88
755.1	59.84
755.497	59.83
755.894	59.83
756.291	59.84
756.688	59.81
757.085	59.81
757.482	59.78
757.878	59.77
758.275	59.73
758.672	59.72
759.068	59.75
759.465	59.74
759.861	59.75
760.258	59.78
760.654	59.75
761.05	59.76
761.447	59.76
761.843	59.75
762.239	59.76
762.635	59.76
763.031	59.79
763.427	59.77
763.822	59.76
764.218	59.78
764.614	59.78
765.01	59.78
765.405	59.76
765.801	59.72
766.196	59.73
766.592	59.71
766.987	59.72
767.382	59.7
767.778	59.71
768.173	59.74
768.568	59.72
768.963	59.68
769.358	59.68
769.753	59.67
770.148	59.68
770.542	59.7
770.937	59.69
771.332	59.67
771.726	59.67
772.121	59.68
772.515	59.66
772.91	59.65
773.304	59.68
773.699	59.68
774.093	59.7
774.487	59.74
774.881	59.75
775.275	59.76
775.669	59.78
776.063	59.8
776.457	59.8
776.851	59.76
777.245	59.72
777.638	59.7
778.032	59.71
778.425	59.74
778.819	59.7
779.212	59.72
779.606	59.74
779.999	59.73
780.392	59.72
780.786	59.74
781.179	59.8
781.572	59.88
781.965	59.91
782.358	59.9
782.751	59.89
783.143	59.94
783.536	59.91
783.929	59.92
784.322	59.94
784.714	59.97
785.107	59.96
785.499	59.93
785.891	59.9
786.284	59.91
786.676	59.94
787.068	59.94
787.46	59.95
787.852	59.95
788.245	59.96
788.636	59.97
789.028	59.98
789.42	59.96
789.812	60.01
790.204	60.03
790.595	60.04
790.987	60.05
791.378	60.1
791.77	60.12
792.161	60.11
792.553	60.13
792.944	60.14
793.335	60.15
793.726	60.2
794.117	60.18
794.508	60.17
794.899	60.15
795.29	60.17
795.681	60.13
796.072	60.11
796.463	60.15
796.853	60.12
797.244	60.12
797.634	60.11
798.025	60.14
798.415	60.17
798.806	60.19
799.196	60.23
799.586	60.26
799.976	60.3
800.366	60.32
800.756	60.38
801.146	60.42
801.536	60.46
801.926	60.48
802.316	60.49
802.706	60.49
803.095	60.52
803.485	60.54
803.874	60.55
804.264	60.55
804.653	60.59
805.043	60.56
805.432	60.56
805.821	60.57
806.21	60.6
806.599	60.64
806.988	60.68
807.377	60.69
807.766	60.7
808.155	60.68
808.544	60.72
808.933	60.72
809.321	60.75
809.71	60.78
810.098	60.8
810.487	60.81
810.875	60.81
811.264	60.82
811.652	60.84
812.04	60.86
812.428	60.94
812.816	60.95
813.204	60.96
813.592	60.96
813.98	60.97
814.368	60.99
814.756	60.98
815.144	60.99
815.531	60.98
815.919	61.01
816.306	61.02
816.694	60.99
817.081	60.99
817.469	61.01
817.856	61.03
818.243	61.03
818.63	61.02
819.017	61.06
819.404	61.05
819.791	61.07
820.178	61.08
820.565	61.08
820.952	61.1
821.339	61.1
821.725	61.11
822.112	61.11
822.498	61.16
822.885	61.18
823.271	61.15
823.657	61.14
824.044	61.13
824.43	61.12
824.816	61.11
825.202	61.08
825.588	61.09
825.974	61.09
826.36	61.07
826.746	61.03
827.132	61
827.517	61
827.903	61.02
828.289	61.03
828.674	61.02
829.06	61.01
829.445	60.98
829.83	60.96
830.216	60.93
830.601	60.93
830.986	60.91
831.371	60.89
831.756	60.89
832.141	60.85
832.526	60.81
832.911	60.79
833.295	60.76
833.68	60.78
834.065	60.75
834.449	60.73
834.834	60.71
835.218	60.7
835.603	60.71
835.987	60.67
836.371	60.66
836.755	60.66
837.139	60.6
837.524	60.61
837.908	60.61
838.291	60.63
838.675	60.61
839.059	60.6
839.443	60.57
839.827	60.55
840.21	60.55
840.594	60.55
840.977	60.55
841.361	60.6
841.744	60.57
842.127	60.53
842.511	60.52
842.894	60.52
843.277	60.53
843.66	60.53
844.043	60.52
844.426	60.51
844.809	60.52
845.191	60.53
845.574	60.51
845.957	60.53
846.339	60.54
846.722	60.54
847.104	60.57
847.487	60.58
847.869	60.58
848.252	60.58
848.634	60.6
849.016	60.59
849.398	60.58
849.78	60.57
850.162	60.58
850.544	60.55
850.926	60.56
851.307	60.55
851.689	60.56
852.071	60.58
852.452	60.57
852.834	60.6
853.215	60.59
853.597	60.62
853.978	60.63
854.359	60.6
854.741	60.63
855.122	60.62
855.503	60.62
855.884	60.61
856.265	60.61
856.646	60.6
857.026	60.61
857.407	60.64
857.788	60.61
858.169	60.68
858.549	60.69
858.93	60.73
859.31	60.76
859.69	60.8
860.071	60.85
860.451	60.84
860.831	60.87
861.211	60.85
861.591	60.83
861.971	60.84
862.351	60.82
862.731	60.83
863.111	60.79
863.491	60.77
863.87	60.75
864.25	60.69
864.629	60.73
865.009	60.73
865.388	60.73
865.768	60.74
866.147	60.77
866.526	60.76
866.905	60.76
867.284	60.79
867.663	60.8
868.042	60.8
868.421	60.83
868.8	60.82
869.179	60.81
869.558	60.81
869.936	60.78
870.315	60.77
870.693	60.78
871.072	60.82
871.45	60.83
871.828	60.82
872.207	60.82
872.585	60.84
872.963	60.84
873.341	60.85
873.719	60.87
874.097	60.89
874.475	60.92
874.853	60.91
875.23	60.91
875.608	60.92
875.986	60.93
876.363	60.96
876.741	60.93
877.118	60.97
877.495	60.97
877.873	61
878.25	61.03
878.627	61.04
879.004	61.04
879.381	61.03
879.758	61.02
880.135	61.03
880.512	60.99
880.889	60.98
881.265	60.94
881.642	60.95
882.019	60.92
882.395	60.88
882.772	60.85
883.148	60.83
883.524	60.8
883.901	60.8
884.277	60.76
884.653	60.75
885.029	60.77
885.405	60.77
885.781	60.76
886.157	60.76
886.532	60.78
886.908	60.77
887.284	60.75
887.659	60.75
888.035	60.72
888.411	60.72
888.786	60.72
889.161	60.7
889.537	60.7
889.912	60.69
890.287	60.67
890.662	60.65
891.037	60.64
891.412	60.64
891.787	60.62
892.162	60.62
892.536	60.62
892.911	60.61
893.286	60.61
893.66	60.58
894.035	60.56
894.409	60.53
894.784	60.51
895.158	60.5
895.532	60.5
895.906	60.48
896.281	60.47
896.655	60.43
897.029	60.42
897.402	60.4
897.776	60.4
898.15	60.42
898.524	60.45
898.898	60.47
899.271	60.46
899.645	60.45
900.018	60.51
900.392	60.52
900.765	60.58
901.138	60.6
901.511	60.63
901.884	60.68
902.258	60.69
902.631	60.7
903.003	60.73
903.376	60.73
903.749	60.75
904.122	60.76
904.495	60.8
904.867	60.79
905.24	60.82
905.612	60.84
905.985	60.82
906.357	60.84
906.729	60.87
907.102	60.86
907.474	60.89
907.846	60.91
908.218	60.89
908.59	60.88
908.962	60.89
909.334	60.88
909.705	60.86
910.077	60.89
910.449	60.89
910.82	60.87
911.192	60.89
911.563	60.87
911.935	60.85
912.306	60.87
912.677	60.88
913.048	60.9
913.419	60.86
913.79	60.89
914.161	60.86
914.532	60.88
914.903	60.9
915.274	60.9
915.645	60.89
916.015	60.91
916.386	60.92
916.756	60.92
917.127	60.92
917.497	60.94
917.868	60.94
918.238	60.95
918.608	60.97
918.978	60.98
919.348	61.03
919.718	61.04
920.088	61.09
920.458	61.05
920.828	61.05
921.198	61.04
921.567	61.1
921.937	61.13
922.306	61.1
922.676	61.08
923.045	61.05
923.415	60.99
923.784	61.01
924.153	61
924.522	61.01
924.891	60.99
925.26	61.01
925.629	60.98
925.998	60.96
926.367	60.97
926.736	60.97
927.104	60.96
927.473	60.95
927.842	60.91
928.21	60.9
928.578	60.9
928.947	60.92
929.315	60.88
929.683	60.87
930.051	60.82
930.42	60.8
930.788	60.74
931.156	60.69
931.523	60.65
931.891	60.65
932.259	60.59
932.627	60.54
932.994	60.5
933.362	60.44
933.729	60.36
934.097	60.29
934.464	60.27
934.831	60.22
935.199	60.23
935.566	60.2
935.933	60.18
936.3	60.13
936.667	60.11
937.034	60.08
937.401	60.11
937.767	60.13
938.134	60.17
938.501	60.19
938.867	60.3
939.234	60.34
939.6	60.43
939.967	60.45
940.333	60.56
940.699	60.66
941.065	60.71
941.431	60.8
941.798	60.87
942.163	60.98
942.529	60.99
942.895	61.04
943.261	61.01
943.627	61
943.992	61.09
944.358	61.13
944.723	61.15
945.089	61.11
945.454	61.09
945.82	61.07
946.185	61.06
946.55	61.04
946.915	61.01
947.28	61
947.645	61.04
948.01	60.96
948.375	60.88
948.74	60.87
949.104	60.94
949.469	60.91
949.834	60.85
950.198	60.8
950.562	60.8
950.927	60.71
951.291	60.68
951.655	60.58
952.02	60.51
952.384	60.47
952.748	60.36
953.112	60.27
953.476	60.17
953.839	60.17
954.203	60.14
954.567	60.04
954.931	60.02
955.294	60.04
955.658	60.07
956.021	60.08
956.385	60.04
956.748	59.99
957.111	60.01
957.474	60.02
957.837	59.92
958.2	59.87
958.563	59.86
958.926	59.83
959.289	59.73
959.652	59.65
960.015	59.58
960.377	59.54
960.74	59.59
961.102	59.51
961.465	59.5
961.827	59.57
962.189	59.59
962.552	59.59
962.914	59.62
963.276	59.69
963.638	59.75
964	59.82
964.362	59.89
964.724	59.88
965.085	59.91
965.447	59.92
965.809	59.86
966.17	59.79
966.532	59.77
966.893	59.71
967.255	59.67
967.616	59.63
967.977	59.58
968.338	59.5
968.699	59.47
969.061	59.41
969.421	59.38
969.782	59.4
970.143	59.36
970.504	59.36
970.865	59.44
971.225	59.4
971.586	59.36
971.946	59.28
972.307	59.3
972.667	59.25
973.027	59.31
973.388	59.37
973.748	59.43
974.108	59.55
974.468	59.57
974.828	59.54
975.188	59.5
975.548	59.47
975.907	59.55
976.267	59.54
976.627	59.61
976.986	59.6
977.346	59.47
977.705	59.34
978.064	59.35
978.424	59.36
978.783	59.25
979.142	59.3
979.501	59.32
979.86	59.34
980.219	59.37
980.578	59.39
980.937	59.38
981.296	59.45
981.654	59.5
982.013	59.42
982.371	59.38
982.73	59.55
983.088	59.59
983.447	59.54
983.805	59.52
984.163	59.48
984.521	59.43
984.879	59.35
985.237	59.32
985.595	59.34
985.953	59.34
986.311	59.33
986.669	59.24
987.026	59.19
987.384	59.24
987.741	59.24
988.099	59.35
988.456	59.36
988.814	59.41
989.171	59.45
989.528	59.48
989.885	59.58
990.242	59.6
990.599	59.69
990.956	59.75
991.313	59.8
991.67	59.82
992.027	59.8
992.383	59.79
992.74	59.93
993.096	59.91
993.453	59.88
993.809	59.8
994.165	59.9
994.522	59.81
994.878	59.86
995.234	59.78
995.59	59.79
995.946	59.79
996.302	59.92
996.658	59.98
997.013	60.03
997.369	60.12
997.725	60.21
998.08	60.16
998.436	60.24
998.791	60.24
999.147	60.22
999.502	60.24
999.857	60.33
1000.212	60.21
1000.567	60.2
1000.922	60.15
1001.277	60.15
1001.632	60.1
1001.987	60.17
1002.342	60.18
1002.696	60.16
1003.051	60.41
1003.406	60.6
1003.76	60.61
1004.114	60.65
1004.469	60.73
1004.823	61.12
1005.177	61.15
1005.531	61.24
1005.885	61.22
1006.239	61.18
1006.593	61.39
1006.947	61.38
1007.301	61.34
1007.655	61.38
1008.008	61.55
1008.362	61.49
1008.715	61.36
1009.069	61.5
1009.422	61.57
1009.776	61.72
1010.129	61.85
1010.482	61.91
1010.835	61.93
1011.188	61.99
1011.541	61.97
1011.894	61.94
1012.247	62.01
1012.6	61.99
1012.952	61.9
1013.305	62
1013.657	61.93
1014.01	62.05
1014.362	61.97
1014.715	62
1015.067	62.05
1015.419	62.26
1015.771	62.25
1016.123	62.32
1016.475	62.36
1016.827	62.61
1017.179	62.61
1017.531	62.79
1017.883	62.84
1018.234	63
1018.586	63.17
1018.938	63.22
1019.289	63.19
1019.64	63.17
1019.992	63.33
1020.343	63.36
1020.694	63.31
1021.045	63.48
1021.396	63.62
1021.747	63.74
1022.098	63.77
1022.449	63.8
1022.8	63.86
1023.151	64.03
1023.501	64.43
1023.852	64.47
1024.202	64.36
1024.553	64.41
1024.903	64.43
1025.253	64.59
1025.604	64.53
1025.954	64.38
1026.304	64.6
1026.654	64.83
1027.004	64.65
1027.354	64.58
1027.703	64.62
1028.053	64.82
1028.403	65.27
1028.753	65.13
1029.102	65.23
1029.452	65.53
1029.801	65.87
1030.15	65.81
1030.499	65.73
897.758	971.98
901.051	976.26
904.343	977.2
907.636	991.89
910.928	966.81
914.22	963.19
917.511	950.51
920.803	910.65
924.094	907.53
927.384	886.94
930.675	852.43
933.965	850.08
937.255	801.68
940.544	769.3
943.834	738.38
947.123	730.84
950.411	693.64
953.7	679.08
956.988	641.89
960.276	616.81
963.563	609.96
966.851	585.89
970.138	580.32
973.424	563.68
976.711	566.22
979.997	537.99
983.283	535.68
986.568	523.07
989.853	510.1
993.138	501.15
996.423	484.11
999.708	470.22
1002.992	465.82
1006.275	447.87
1009.559	444.21
1012.842	428.77
1016.125	416.28
1019.408	408.75
1022.69	404.92
1025.972	396.07
1029.254	387.25
1032.536	380.49
1035.817	373.06
1039.098	370.05
1042.379	363.03
1045.659	358.88
1048.939	351.83
1052.219	345.48
1055.498	342
1058.778	333.69
1062.057	327.2
1065.335	324.35
1068.614	321.17
1071.892	318.51
1075.17	307.55
1078.447	302.7
1081.724	300.29
1085.001	295.67
1088.278	293.15
1091.554	286.27
1094.83	286.85
1098.106	284.38
1101.382	281.62
1104.657	279.41
1107.932	275
1111.206	277.72
1114.481	269.9
1117.755	268.29
1121.029	267.5
1124.302	265
1127.575	261.7
1130.848	258.19
1134.121	255.9
1137.393	255
1140.665	250.1
1143.937	247.98
1147.208	246.07
1150.48	245.89
1153.75	241.87
1157.021	239.5
1160.291	239.56
1163.561	236.82
1166.831	236.76
1170.101	234.94
1173.37	234.86
1176.639	235.19
1179.907	233.43
1183.176	231.14
1186.444	231.31
1189.711	231.56
1192.979	230.68
1196.246	228.81
1199.513	229.68
1202.78	228.45
1206.046	228.48
1209.312	225.83
1212.578	226.01
1215.843	227.47
1219.108	226.39
1222.373	230.09
1225.638	231.12
1228.902	233.85
1232.166	233.97
1235.43	235.24
1238.693	238.56
1241.956	240.37
1245.219	244.14
1248.482	244.48
1251.744	244.64
1255.006	245.54
1258.268	239.63
1261.529	238.04
1264.79	237.55
1268.051	235.84
1271.312	233.25
1274.572	230.12
1277.832	228.3
1281.092	224.4
1284.351	223.01
1287.61	223.38
1290.869	219.64
1294.128	218.8
1297.386	218.36
1300.644	215.09
1303.902	217.48
1307.159	216.13
1310.416	216.28
1313.673	214.99
1316.93	217.58
1320.186	217.18
1323.442	217.41
1326.697	220.38
1329.953	221.9
1333.208	222.29
1336.463	225.53
1339.717	224.74
1342.972	228.27
1346.226	229.27
1349.479	230.22
1352.733	230.46
1355.986	231.62
1359.238	230.92
1362.491	232.68
1365.743	233.93
1368.995	234.5
1372.247	231.99
1375.498	231.84
1378.749	231.89
1382	229.67
1385.251	229.79
1388.501	228.18
1391.751	227.69
1395	226.53
1398.25	224.09
1401.499	220.89
1404.748	220.53
1407.996	218.68
1411.244	217.47
1414.492	215.76
1417.74	212.99
1420.987	210.59
1424.234	209.93
1427.481	207.25
1430.728	207.12
1433.974	205.11
1437.22	204.31
1440.465	202.86
1443.711	200.99
1446.956	199.5
1450.201	197.33
1453.445	195.94
1456.689	194.26
1459.933	191.53
1463.177	189.77
1466.42	187.7
1469.663	185.5
1472.906	184
1476.148	179.58
1479.391	178.78
1482.633	177.56
1485.874	175.23
1489.115	174.45
1492.356	172.82
1495.597	172.31
1498.838	170.95
1502.078	169.64
1505.318	169.39
1508.557	169.68
1511.797	170.36
1515.036	168.26
1518.274	168.07
1521.513	167.16
1524.751	167.1
1527.989	167.14
1531.227	166.33
1534.464	166.57
1537.701	166.51
1540.938	166
1544.174	164.64
1547.41	164.52
1550.646	164.39
1553.882	164.08
1557.117	162.93
1560.352	161.79
1563.587	161.64
1566.821	160.87
1570.055	159.86
1573.289	157.87
1576.523	158.09
1579.756	156.79
1582.989	156.01
1586.222	156.25
1589.454	156.02
1592.686	157.26
1595.918	156.86
1599.15	156.25
1602.381	156.62
1605.612	156.35
1608.843	157.2
1612.073	156.97
1615.303	157.37
1618.533	157.81
1621.762	157.56
1624.992	157.85
1628.221	157.09
1631.449	156.84
1634.678	156.6
1637.906	157.92
1641.134	157.8
1644.361	157.57
1647.588	157.64
1650.815	157.64
1654.042	157.17
1657.269	157.6
1660.495	157.32
1663.72	157.48
1666.946	158.38
1670.171	159.18
1673.396	158.03
1676.621	157.98
1679.845	158.72
1683.069	158.9
1686.293	159.75
1689.517	160.21
1692.74	160.36
1695.963	160.74
1699.185	161.61
1702.408	161.46
1705.63	161.51
1708.852	162.24
1712.073	162.81
1715.294	162.72
1718.515	163.61
1721.736	163.09
1724.956	163.82
1728.176	163.88
1731.396	164.88
1734.616	163.8
1737.835	164.49
1741.054	163.75
1744.272	163.93
1747.491	165.2
1750.709	165.48
1753.927	165.27
1757.144	164.85
1760.361	164.75
1763.578	165.24
1766.795	164.66
1770.011	166.63
1773.227	166.34
1776.443	167.9
1779.658	168.18
1782.874	167.75
1786.089	167.71
1789.303	168.23
1792.518	170.11
1795.732	169.97
1798.945	171
1802.159	171.63
1805.372	171.27
1808.585	174.04
1811.797	174.92
1815.01	175.71
1818.222	176.81
1821.434	179
1824.645	179.13
1827.856	181.34
1831.067	182.86
1834.278	182.82
1837.488	184.02
1840.698	184.89
1843.908	183.21
1847.117	183.58
1850.326	184.53
1853.535	182.98
1856.744	184.49
1859.952	184.57
1863.16	183.13
1866.368	181.76
1869.575	181.7
1872.782	178.53
1875.989	177.17
1879.196	176.49
1882.402	174.47
1885.608	173.82
1888.814	173.59
1892.019	172.47
1895.224	170.95
1898.429	170.25
1901.634	170.05
1904.838	170.52
1908.042	171.51
1911.246	172.23
1914.449	172.11
1917.652	172.81
1920.855	172.05
1924.058	172.79
1927.26	171.53
1930.462	171.99
1933.664	173.96
1936.865	172.23
1940.066	171.4
1943.267	170.46
1946.467	170.53
1949.668	171.32
1952.868	172.83
1956.067	173.76
1959.267	172.92
1962.466	173.65
1965.665	172.62
1968.863	172.79
1972.061	176.7
1975.259	178.42
1978.457	179.6
1981.654	181.38
1984.852	182.25
1988.048	181.88
1991.245	183.59
1994.441	186.23
1997.637	187.54
2000.833	191.85
2004.028	194.53
2007.223	194.9
2010.418	196.74
2013.613	200.36
2016.807	201.96
2020.001	204.53
2023.194	207.25
2026.388	211.64
2029.581	216.45
2032.774	218.28
2035.966	222.41
2039.158	222.68
2042.35	226.72
2045.542	228.67
2048.733	232.52
2051.924	235.79
2055.115	238.92
2058.306	239.71
2061.496	241.97
2064.686	242.65
2067.875	247.24
2071.065	248.16
2074.254	245.99
2077.442	250.65
2080.631	251.27
2083.819	253.18
2087.007	254.14
2090.195	257.57
2093.382	260.17
2096.569	258.75
2099.756	262.65
2102.942	262.91
2106.128	264.87
2109.314	272.63
2112.5	270.59
2115.685	276.44
2118.87	277.15
2122.055	281.98
2125.239	282.19
2128.424	286.33
2131.608	288.72
2134.791	293.29
2137.974	293.85
2141.157	295.73
2144.34	295.77
2147.523	300.62
2150.705	299.2
2153.887	302.05
2157.068	302.64
2160.25	301.55
2163.431	302.88
2166.611	307.34
2169.792	310.55
2172.972	314.57
2176.152	316.28
2179.331	319.78
2182.511	323.24
2185.69	327.42
2188.868	333.97
2192.047	334.81
2195.225	344.28
2198.403	351.48
2201.58	356.57
2204.758	365.27
2207.935	371.21
2211.111	380.28
2214.288	384.04
2217.464	385.44
2220.64	391.21
2223.815	395.48
2226.991	411.44
2230.166	411.54
2233.34	417.12
2236.515	424.16
2239.689	423.13
2242.863	429.35
2246.036	436.73
2249.209	432.57
2252.382	442.09
2255.555	453.41
2258.727	455.77
2261.9	458.87
2265.071	462.94
2268.243	472.29
2271.414	478.19
2274.585	487.27
2277.756	488.44
2280.926	494.98
2284.096	508.78
2287.266	518.27
2290.436	523.13
2293.605	532.91
2296.774	548.96
2299.942	565.17
2303.111	567.1
2306.279	580.01
2309.447	590.12
2312.614	606.18
2315.781	619.64
2318.948	648.9
2322.115	636.8
2325.281	672.4
2328.447	663.78
2331.613	686.86
2334.779	682.34
2337.944	711.15
2341.109	716.29
2344.274	733.82
2347.438	758.83
2350.602	761.94
2353.766	782.41
2356.929	797.05
2360.092	790.61
2363.255	843.17
2366.418	843.12
2369.58	858.76
2372.742	914.06
2375.904	937.67
2379.066	934.25
2382.227	917.06
2385.388	989.73
2388.548	990.54
2391.709	1002.29
2394.869	1115.31
2398.029	1074.54
2401.188	1100.11
2404.347	1092.08
2407.506	1070.36
2410.665	1099.33
2413.823	1165.19
2416.981	1231.05
2420.139	1198.93
2423.296	1184.84
2426.453	1243.54
2429.61	1197.44
2432.767	1242.67
2435.923	1233.52
2439.079	1356.54
2442.235	1379.9
2445.391	1371.3
2448.546	1355.54
2451.701	1320.62
2454.855	1313.9
2458.009	1404.39
2461.163	1453.39
2464.317	1499.67
2467.471	1538.72
2470.624	1537.45
2473.777	1494.24
2476.929	1447.86
2480.082	1400.46
2483.234	1391.27
2486.385	1466
2489.537	1474.15
2492.688	1514.05
2495.839	1476.62
2498.989	1444.68
2502.14	1450.39
2505.29	1467.78
2508.439	1488.34
2511.589	1489.67
2514.738	1625.55
2517.887	1585.73
2521.035	1669.88
2524.183	1683.22
2527.331	1697.93
2530.479	1682.03
2533.627	1698.63
