Data from N_3_HIR_IL_4N_Splice17_14-29-25-825.txt Node
Date: Sat Mar 07 14:29:25 EST 2020
User: sa697716
Spectrometer: NQ5500242
Trigger mode: 0
Integration Time (sec): 1.450000E-1
Scans to average: 20
Nonlinearity correction enabled: false
Boxcar width: 5
Storing dark spectrum: false
XAxis mode: Wavelengths
Number of Pixels in Spectrum: 512
>>>>>Begin Spectral Data<<<<<
187.83	155.66
188.298	156.14
188.766	118.87
189.233	102.74
189.701	111.44
190.169	130.74
190.636	123.83
191.104	136.53
191.571	49.13
192.039	-31.33
192.506	-102.95
192.974	166.91
193.441	143.4
193.908	21.48
194.375	52.12
194.842	6.5
195.31	50.16
195.777	-1.78
196.244	50.21
196.711	62.37
197.177	64.98
197.644	65.07
198.111	64.97
198.578	65.37
199.045	66.02
199.511	65.99
199.978	66.53
200.445	66.23
200.911	66.21
201.378	66.49
201.844	66.56
202.31	66.42
202.777	66.39
203.243	66.52
203.709	66.24
204.176	65.39
204.642	65.02
205.108	64.28
205.574	63.98
206.04	63.67
206.506	63.26
206.972	62.98
207.438	62.18
207.903	61.22
208.369	59.78
208.835	58.57
209.301	57.22
209.766	55.45
210.232	54.14
210.697	52.64
211.163	51.38
211.628	49.98
212.094	48.46
212.559	47.36
213.024	46.35
213.49	45.29
213.955	44.25
214.42	43.34
214.885	42.18
215.35	40.43
215.815	38.27
216.28	35.27
216.745	32.19
217.21	29.25
217.675	26.38
218.14	23.92
218.604	21.82
219.069	20.06
219.534	18.56
219.998	17.34
220.463	16.36
220.927	15.44
221.392	14.77
221.856	14.23
222.32	13.75
222.785	13.36
223.249	12.95
223.713	12.62
224.177	12.33
224.642	12.05
225.106	11.76
225.57	11.49
226.034	11.28
226.497	11.07
226.961	10.85
227.425	10.63
227.889	10.46
228.353	10.31
228.816	10.13
229.28	9.94
229.744	9.77
230.207	9.63
230.671	9.49
231.134	9.34
231.597	9.22
232.061	9.1
232.524	8.98
232.987	8.86
233.45	8.76
233.914	8.66
234.377	8.55
234.84	8.46
235.303	8.37
235.766	8.3
236.229	8.22
236.691	8.13
237.154	8.07
237.617	8.01
238.08	7.91
238.542	7.82
239.005	7.76
239.468	7.7
239.93	7.64
240.393	7.58
240.855	7.49
241.317	7.42
241.78	7.36
242.242	7.27
242.704	7.21
243.166	7.15
243.629	7.09
244.091	7.01
244.553	6.94
245.015	6.88
245.477	6.81
245.939	6.75
246.4	6.69
246.862	6.63
247.324	6.58
247.786	6.51
248.247	6.45
248.709	6.39
249.17	6.34
249.632	6.29
250.093	6.24
250.555	6.19
251.016	6.14
251.477	6.09
251.939	6.05
252.4	6.01
252.861	5.96
253.322	5.92
253.783	5.88
254.244	5.84
254.705	5.8
255.166	5.77
255.627	5.73
256.088	5.69
256.549	5.65
257.009	5.61
257.47	5.57
257.931	5.53
258.391	5.49
258.852	5.44
259.312	5.41
259.773	5.37
260.233	5.34
260.694	5.3
261.154	5.26
261.614	5.23
262.074	5.19
262.534	5.15
262.994	5.12
263.455	5.08
263.915	5.06
264.374	5.03
264.834	5
265.294	4.97
265.754	4.95
266.214	4.93
266.673	4.91
267.133	4.9
267.593	4.88
268.052	4.87
268.512	4.86
268.971	4.84
269.431	4.82
269.89	4.81
270.349	4.8
270.809	4.78
271.268	4.77
271.727	4.75
272.186	4.74
272.645	4.73
273.104	4.71
273.563	4.69
274.022	4.69
274.481	4.68
274.94	4.67
275.399	4.65
275.857	4.63
276.316	4.62
276.775	4.6
277.233	4.6
277.692	4.59
278.15	4.58
278.609	4.57
279.067	4.56
279.525	4.54
279.984	4.53
280.442	4.53
280.9	4.52
281.358	4.52
281.816	4.51
282.274	4.5
282.732	4.49
283.19	4.48
283.648	4.47
284.106	4.46
284.564	4.46
285.021	4.46
285.479	4.45
285.937	4.45
286.394	4.44
286.852	4.43
287.309	4.42
287.767	4.41
288.224	4.4
288.682	4.38
289.139	4.36
289.596	4.34
290.053	4.32
290.511	4.29
290.968	4.27
291.425	4.25
291.882	4.24
292.339	4.21
292.796	4.2
293.252	4.18
293.709	4.17
294.166	4.16
294.623	4.14
295.079	4.13
295.536	4.12
295.992	4.11
296.449	4.1
296.905	4.1
297.362	4.09
297.818	4.07
298.274	4.06
298.731	4.06
299.187	4.04
299.643	4.03
300.099	4.02
300.555	4.01
301.011	4.01
301.467	4
301.923	3.98
302.379	3.98
302.835	3.98
303.291	3.97
303.746	3.97
304.202	3.97
304.658	3.97
305.113	3.96
305.569	3.96
306.024	3.96
306.479	3.95
306.935	3.95
307.39	3.95
307.845	3.95
308.301	3.95
308.756	3.96
309.211	3.96
309.666	3.96
310.121	3.97
310.576	3.97
311.031	3.97
311.486	3.97
311.94	3.98
312.395	3.98
312.85	3.98
313.305	3.98
313.759	3.98
314.214	3.98
314.668	3.97
315.123	3.97
315.577	3.97
316.032	3.97
316.486	3.96
316.94	3.96
317.394	3.94
317.849	3.93
318.303	3.92
318.757	3.9
319.211	3.89
319.665	3.87
320.119	3.86
320.572	3.85
321.026	3.84
321.48	3.83
321.934	3.82
322.387	3.81
322.841	3.81
323.295	3.81
323.748	3.81
324.202	3.81
324.655	3.8
325.108	3.8
325.562	3.8
326.015	3.8
326.468	3.8
326.921	3.8
327.374	3.8
327.827	3.8
328.28	3.79
328.733	3.79
329.186	3.79
329.639	3.79
330.092	3.79
330.545	3.8
330.997	3.8
331.45	3.8
331.903	3.81
332.355	3.81
332.808	3.81
333.26	3.81
333.713	3.81
334.165	3.82
334.617	3.83
335.069	3.83
335.522	3.83
335.974	3.84
336.426	3.85
336.878	3.84
337.33	3.84
337.782	3.85
338.234	3.86
338.686	3.87
339.137	3.88
339.589	3.86
340.041	3.87
340.493	3.86
340.944	3.85
341.396	3.84
341.847	3.82
342.299	3.8
342.75	3.79
343.201	3.78
343.653	3.75
344.104	3.73
344.555	3.72
345.006	3.7
345.457	3.69
345.908	3.69
346.359	3.68
346.81	3.68
347.261	3.68
347.712	3.67
348.163	3.66
348.613	3.67
349.064	3.67
349.515	3.67
349.965	3.67
350.416	3.66
350.866	3.66
351.317	3.65
351.767	3.65
352.217	3.65
352.668	3.65
353.118	3.65
353.568	3.65
354.018	3.65
354.468	3.65
354.918	3.65
355.368	3.65
355.818	3.65
356.268	3.65
356.718	3.66
357.168	3.66
357.617	3.64
358.067	3.65
358.517	3.66
358.966	3.66
359.416	3.66
359.865	3.66
360.315	3.67
360.764	3.68
361.213	3.68
361.663	3.67
362.112	3.68
362.561	3.7
363.01	3.7
363.459	3.69
363.908	3.68
364.357	3.69
364.806	3.68
365.255	3.68
365.703	3.68
366.152	3.69
366.601	3.7
367.05	3.7
367.498	3.7
367.947	3.7
368.395	3.71
368.844	3.71
369.292	3.7
369.74	3.72
370.189	3.72
370.637	3.71
371.085	3.71
371.533	3.71
371.981	3.71
372.429	3.71
372.877	3.72
373.325	3.72
373.773	3.72
374.221	3.72
374.669	3.71
375.116	3.71
375.564	3.71
376.012	3.72
376.459	3.72
376.907	3.73
377.354	3.74
377.801	3.74
378.249	3.75
378.696	3.76
379.143	3.77
379.591	3.78
380.038	3.79
380.485	3.81
380.932	3.82
381.379	3.83
381.826	3.85
382.273	3.86
382.72	3.86
383.166	3.87
383.613	3.88
384.06	3.88
384.506	3.89
384.953	3.91
385.4	3.92
385.846	3.94
386.292	3.94
386.739	3.95
387.185	3.97
387.631	4
388.078	4.02
388.524	4.03
388.97	4.06
389.416	4.08
389.862	4.1
390.308	4.13
390.754	4.16
391.2	4.18
391.645	4.2
392.091	4.23
392.537	4.25
392.983	4.27
393.428	4.3
393.874	4.33
394.319	4.36
394.765	4.39
395.21	4.4
395.655	4.42
396.101	4.45
396.546	4.48
396.991	4.52
397.436	4.56
397.881	4.6
398.326	4.63
398.771	4.66
399.216	4.7
399.661	4.73
400.106	4.77
400.551	4.8
400.995	4.82
401.44	4.85
401.885	4.86
402.329	4.88
402.774	4.91
403.218	4.95
403.663	4.98
404.107	5
404.551	5.02
404.995	5.05
405.44	5.07
405.884	5.1
406.328	5.14
406.772	5.16
407.216	5.18
407.66	5.19
408.104	5.2
408.547	5.23
408.991	5.26
409.435	5.28
409.879	5.3
410.322	5.33
410.766	5.35
411.209	5.39
411.653	5.43
412.096	5.46
412.54	5.48
412.983	5.49
413.426	5.54
413.869	5.56
414.312	5.6
414.756	5.63
415.199	5.65
415.642	5.68
416.085	5.69
416.527	5.7
416.97	5.7
417.413	5.72
417.856	5.73
418.298	5.74
418.741	5.75
419.184	5.76
419.626	5.76
420.069	5.78
420.511	5.78
420.953	5.78
421.396	5.8
421.838	5.82
422.28	5.84
422.722	5.87
423.164	5.87
423.606	5.88
424.048	5.89
424.49	5.92
424.932	5.92
425.374	5.91
425.816	5.89
426.258	5.89
426.699	5.88
427.141	5.87
427.582	5.87
428.024	5.89
428.465	5.91
428.907	5.9
429.348	5.89
429.789	5.89
430.231	5.93
430.672	5.96
431.113	6
431.554	6.02
431.995	6.05
432.436	6.05
432.877	6.07
433.318	6.08
433.759	6.1
434.2	6.13
434.64	6.16
435.081	6.18
435.522	6.19
435.962	6.2
436.403	6.24
436.843	6.26
437.284	6.28
437.724	6.29
438.164	6.31
438.604	6.32
439.045	6.33
439.485	6.33
439.925	6.34
440.365	6.36
440.805	6.38
441.245	6.39
441.685	6.4
442.125	6.44
442.564	6.45
443.004	6.46
443.444	6.49
443.883	6.52
444.323	6.53
444.762	6.57
445.202	6.58
445.641	6.59
446.081	6.61
446.52	6.63
446.959	6.66
447.398	6.69
447.837	6.71
448.276	6.72
448.716	6.75
449.154	6.8
449.593	6.81
450.032	6.84
450.471	6.85
450.91	6.87
451.349	6.88
451.787	6.88
452.226	6.88
452.664	6.88
453.103	6.88
453.541	6.86
453.98	6.85
454.418	6.83
454.856	6.81
455.295	6.8
455.733	6.77
456.171	6.75
456.609	6.74
457.047	6.72
457.485	6.71
457.923	6.68
458.361	6.68
458.798	6.67
459.236	6.67
459.674	6.65
460.111	6.64
460.549	6.65
460.987	6.66
461.424	6.67
461.862	6.68
462.299	6.69
462.736	6.7
463.173	6.7
463.611	6.71
464.048	6.72
464.485	6.72
464.922	6.72
465.359	6.72
465.796	6.73
466.233	6.72
466.67	6.72
467.106	6.73
467.543	6.74
467.98	6.74
468.416	6.73
468.853	6.74
469.29	6.75
469.726	6.77
470.162	6.78
470.599	6.78
471.035	6.78
471.471	6.78
471.907	6.78
472.344	6.78
472.78	6.78
473.216	6.78
473.652	6.78
474.088	6.78
474.523	6.78
474.959	6.77
475.395	6.75
475.831	6.75
476.266	6.76
476.702	6.74
477.138	6.74
477.573	6.74
478.008	6.76
478.444	6.74
478.879	6.75
479.314	6.75
479.75	6.75
480.185	6.74
480.62	6.74
481.055	6.73
481.49	6.73
481.925	6.73
482.36	6.73
482.795	6.71
483.229	6.71
483.664	6.72
484.099	6.71
484.534	6.7
484.968	6.71
485.403	6.7
485.837	6.72
486.271	6.73
486.706	6.73
487.14	6.74
487.574	6.75
488.009	6.77
488.443	6.78
488.877	6.8
489.311	6.83
489.745	6.87
490.179	6.91
490.613	6.93
491.046	6.96
491.48	6.99
491.914	7.03
492.348	7.07
492.781	7.12
493.215	7.17
493.648	7.21
494.082	7.25
494.515	7.29
494.948	7.34
495.382	7.39
495.815	7.45
496.248	7.52
496.681	7.59
497.114	7.65
497.547	7.71
497.98	7.78
498.413	7.84
498.846	7.93
499.279	8.01
499.711	8.09
500.144	8.19
500.577	8.28
501.009	8.36
501.442	8.46
501.874	8.57
502.306	8.68
502.739	8.8
503.171	8.93
503.603	9.04
504.036	9.17
504.468	9.3
504.9	9.43
505.332	9.56
505.764	9.72
506.196	9.88
506.627	10.02
507.059	10.18
507.491	10.33
507.923	10.5
508.354	10.69
508.786	10.87
509.217	11.05
509.649	11.24
510.08	11.43
510.512	11.62
510.943	11.81
511.374	12.01
511.805	12.22
512.237	12.41
512.668	12.62
513.099	12.82
513.53	13.03
513.961	13.24
514.391	13.46
514.822	13.68
515.253	13.88
515.684	14.1
516.114	14.32
516.545	14.53
516.975	14.76
517.406	14.98
517.836	15.21
518.267	15.45
518.697	15.65
519.127	15.86
519.558	16.08
519.988	16.3
520.418	16.51
520.848	16.73
521.278	16.93
521.708	17.24
522.138	17.43
522.567	17.61
522.997	17.79
523.427	17.99
523.857	18.17
524.286	18.33
524.716	18.51
525.145	18.69
525.575	18.84
526.004	19
526.433	19.05
526.863	19.2
527.292	19.35
527.721	19.48
528.15	19.6
528.579	19.73
529.008	19.85
529.437	19.96
529.866	20.06
530.295	20.18
530.724	20.29
531.152	20.38
531.581	20.47
532.01	20.56
532.438	20.64
532.867	20.73
533.295	20.81
533.723	20.87
534.152	20.94
534.58	21.01
535.008	21.03
535.436	21.09
535.865	21.13
536.293	21.17
536.721	21.21
537.149	21.27
537.576	21.3
538.004	21.33
538.432	21.35
538.86	21.37
539.287	21.38
539.715	21.43
540.143	21.44
540.57	21.46
540.998	21.48
541.425	21.51
541.852	21.53
542.28	21.54
542.707	21.55
543.134	21.59
543.561	21.63
543.988	21.67
544.415	21.69
544.842	21.7
545.269	21.74
545.696	21.77
546.123	21.79
546.549	21.81
546.976	21.84
547.403	21.88
547.829	21.91
548.256	21.93
548.682	21.94
549.108	21.99
549.535	22.01
549.961	22.03
550.387	22.04
550.813	22.05
551.24	22.07
551.666	22.07
552.092	22.08
552.518	22.1
552.943	22.1
553.369	22.11
553.795	22.09
554.221	22.09
554.646	22.07
555.072	22.06
555.498	22.03
555.923	22.01
556.349	21.98
556.774	21.95
557.199	21.91
557.625	21.87
558.05	21.83
558.475	21.78
558.9	21.74
559.325	21.7
559.75	21.64
560.175	21.6
560.6	21.55
561.025	21.49
561.449	21.42
561.874	21.33
562.299	21.26
562.723	21.18
563.148	21.1
563.572	20.99
563.997	20.89
564.421	20.8
564.846	20.7
565.27	20.6
565.694	20.49
566.118	20.38
566.542	20.27
566.966	20.16
567.39	20.04
567.814	19.93
568.238	19.83
568.662	19.72
569.086	19.6
569.509	19.48
569.933	19.36
570.357	19.25
570.78	19.13
571.204	19.02
571.627	18.92
572.05	18.83
572.474	18.74
572.897	18.65
573.32	18.56
573.743	18.48
574.166	18.4
574.589	18.3
575.012	18.23
575.435	18.15
575.858	18.08
576.281	18
576.704	17.93
577.126	17.86
577.549	17.78
577.972	17.71
578.394	17.62
578.817	17.56
579.239	17.51
579.661	17.45
580.084	17.41
580.506	17.36
580.928	17.3
581.35	17.24
581.772	17.19
582.194	17.16
582.616	17.12
583.038	17.08
583.46	17.02
583.882	16.98
584.303	16.92
584.725	16.86
585.147	16.81
585.568	16.76
585.99	16.71
586.411	16.66
586.833	16.61
587.254	16.56
587.675	16.51
588.096	16.48
588.518	16.44
588.939	16.42
589.36	16.39
589.781	16.35
590.202	16.32
590.623	16.3
591.043	16.26
591.464	16.22
591.885	16.19
592.305	16.16
592.726	16.13
593.147	16.09
593.567	16.06
593.987	16.04
594.408	16
594.828	15.98
595.248	15.96
595.669	15.93
596.089	15.9
596.509	15.88
596.929	15.86
597.349	15.83
597.769	15.79
598.189	15.74
598.608	15.72
599.028	15.7
599.448	15.66
599.867	15.62
600.287	15.58
600.706	15.55
601.126	15.51
601.545	15.49
601.965	15.45
602.384	15.42
602.803	15.39
603.222	15.34
603.641	15.29
604.061	15.26
604.48	15.2
604.898	15.15
605.317	15.11
605.736	15.06
606.155	15
606.574	14.94
606.992	14.88
607.411	14.83
607.829	14.75
608.248	14.69
608.666	14.63
609.085	14.58
609.503	14.54
609.921	14.48
610.339	14.42
610.758	14.36
611.176	14.3
611.594	14.24
612.012	14.18
612.43	14.14
612.847	14.08
613.265	14.02
613.683	13.96
614.101	13.9
614.518	13.83
614.936	13.77
615.353	13.71
615.771	13.65
616.188	13.59
616.606	13.54
617.023	13.5
617.44	13.46
617.857	13.42
618.274	13.37
618.691	13.32
619.108	13.29
619.525	13.26
619.942	13.23
620.359	13.2
620.776	13.18
621.192	13.15
621.609	13.13
622.026	13.1
622.442	13.08
622.859	13.07
623.275	13.05
623.691	13.05
624.108	13.03
624.524	13.02
624.94	13
625.356	12.99
625.772	12.97
626.188	12.96
626.604	12.94
627.02	12.93
627.436	12.92
627.852	12.91
628.268	12.89
628.683	12.87
629.099	12.86
629.514	12.85
629.93	12.83
630.345	12.81
630.761	12.78
631.176	12.76
631.591	12.72
632.007	12.69
632.422	12.64
632.837	12.61
633.252	12.57
633.667	12.52
634.082	12.46
634.497	12.42
634.911	12.36
635.326	12.3
635.741	12.23
636.155	12.17
636.57	12.09
636.984	12.02
637.399	11.93
637.813	11.83
638.228	11.74
638.642	11.65
639.056	11.55
639.47	11.46
639.884	11.37
640.298	11.27
640.712	11.17
641.126	11.07
641.54	10.97
641.954	10.87
642.368	10.79
642.781	10.7
643.195	10.61
643.609	10.52
644.022	10.43
644.436	10.35
644.849	10.27
645.262	10.19
645.676	10.12
646.089	10.06
646.502	10
646.915	9.94
647.328	9.88
647.741	9.82
648.154	9.77
648.567	9.72
648.98	9.66
649.393	9.63
649.805	9.61
650.218	9.57
650.631	9.52
651.043	9.48
651.456	9.44
651.868	9.39
652.28	9.35
652.693	9.32
653.105	9.28
653.517	9.24
653.929	9.2
654.341	9.14
654.753	9.09
655.165	9.04
655.577	8.98
655.989	8.92
656.401	8.87
656.813	8.81
657.224	8.73
657.636	8.66
658.047	8.59
658.459	8.51
658.87	8.42
659.282	8.35
659.693	8.27
660.104	8.19
660.515	8.12
660.926	8.04
661.338	7.96
661.749	7.9
662.159	7.83
662.57	7.76
662.981	7.7
663.392	7.65
663.803	7.59
664.213	7.53
664.624	7.47
665.035	7.42
665.445	7.38
665.855	7.34
666.266	7.31
666.676	7.28
667.086	7.24
667.497	7.21
667.907	7.18
668.317	7.16
668.727	7.13
669.137	7.12
669.547	7.11
669.956	7.1
670.366	7.09
670.776	7.08
671.186	7.09
671.595	7.09
672.005	7.09
672.414	7.09
672.824	7.09
673.233	7.1
673.642	7.11
674.052	7.12
674.461	7.13
674.87	7.15
675.279	7.17
675.688	7.18
676.097	7.2
676.506	7.23
676.915	7.26
677.323	7.29
677.732	7.32
678.141	7.36
678.549	7.4
678.958	7.44
679.366	7.5
679.775	7.55
680.183	7.62
680.592	7.7
681	7.78
681.408	7.86
681.816	7.95
682.224	8.07
682.632	8.19
683.04	8.31
683.448	8.46
683.856	8.59
684.264	8.76
684.671	8.94
685.079	9.12
685.487	9.33
685.894	9.58
686.302	9.83
686.709	10.09
687.116	10.38
687.524	10.69
687.931	11.01
688.338	11.35
688.745	11.69
689.152	12.05
689.559	12.45
689.966	12.83
690.373	13.25
690.78	13.66
691.187	14.08
691.593	14.51
692	14.93
692.407	15.35
692.813	15.8
693.22	16.24
693.626	16.68
694.032	17.11
694.439	17.54
694.845	17.97
695.251	18.4
695.657	18.82
696.063	19.25
696.469	19.67
696.875	20.11
697.281	20.5
697.687	20.92
698.093	21.31
698.498	21.71
698.904	22.09
699.31	22.45
699.715	22.81
700.12	23.17
700.526	23.53
700.931	23.86
701.337	24.17
701.742	24.51
702.147	24.82
702.552	25.14
702.957	25.42
703.362	25.71
703.767	26
704.172	26.28
704.577	26.57
704.981	26.84
705.386	27.11
705.791	27.38
706.195	27.62
706.6	27.9
707.004	28.15
707.408	28.41
707.813	28.66
708.217	28.9
708.621	29.14
709.025	29.35
709.43	29.55
709.834	29.78
710.237	29.99
710.641	30.21
711.045	30.41
711.449	30.62
711.853	30.83
712.256	31.01
712.66	31.18
713.064	31.37
713.467	31.55
713.87	31.73
714.274	31.89
714.677	32.05
715.08	32.21
715.484	32.37
715.887	32.52
716.29	32.66
716.693	32.81
717.096	32.98
717.499	33.12
717.901	33.26
718.304	33.41
718.707	33.55
719.109	33.69
719.512	33.82
719.915	33.95
720.317	34.07
720.719	34.18
721.122	34.31
721.524	34.43
721.926	34.56
722.328	34.68
722.731	34.79
723.133	34.89
723.535	35
723.937	35.08
724.338	35.15
724.74	35.25
725.142	35.37
725.544	35.44
725.945	35.53
726.347	35.6
726.748	35.63
727.15	35.7
727.551	35.79
727.952	35.84
728.354	35.92
728.755	35.99
729.156	36.02
729.557	36.06
729.958	36.13
730.359	36.16
730.76	36.23
731.161	36.29
731.562	36.35
731.962	36.35
732.363	36.41
732.763	36.47
733.164	36.5
733.564	36.56
733.965	36.58
734.365	36.63
734.766	36.67
735.166	36.72
735.566	36.77
735.966	36.8
736.366	36.86
736.766	36.86
737.166	36.9
737.566	36.92
737.966	36.94
738.365	36.96
738.765	36.97
739.165	36.99
739.564	36.99
739.964	37.01
740.363	37.02
740.763	37.04
741.162	37.08
741.561	37.09
741.96	37.1
742.36	37.12
742.759	37.17
743.158	37.2
743.557	37.2
743.955	37.22
744.354	37.24
744.753	37.28
745.152	37.32
745.55	37.34
745.949	37.36
746.348	37.41
746.746	37.42
747.144	37.46
747.543	37.47
747.941	37.52
748.339	37.54
748.737	37.56
749.136	37.54
749.534	37.52
749.932	37.52
750.33	37.51
750.727	37.51
751.125	37.51
751.523	37.46
751.921	37.45
752.318	37.41
752.716	37.41
753.113	37.4
753.511	37.41
753.908	37.42
754.305	37.44
754.703	37.43
755.1	37.4
755.497	37.41
755.894	37.4
756.291	37.4
756.688	37.39
757.085	37.37
757.482	37.35
757.878	37.35
758.275	37.34
758.672	37.32
759.068	37.32
759.465	37.33
759.861	37.34
760.258	37.35
760.654	37.36
761.05	37.4
761.447	37.41
761.843	37.41
762.239	37.41
762.635	37.42
763.031	37.42
763.427	37.42
763.822	37.42
764.218	37.42
764.614	37.44
765.01	37.42
765.405	37.41
765.801	37.38
766.196	37.4
766.592	37.39
766.987	37.37
767.382	37.37
767.778	37.39
768.173	37.4
768.568	37.4
768.963	37.38
769.358	37.41
769.753	37.42
770.148	37.44
770.542	37.44
770.937	37.45
771.332	37.48
771.726	37.48
772.121	37.45
772.515	37.45
772.91	37.43
773.304	37.44
773.699	37.42
774.093	37.39
774.487	37.4
774.881	37.41
775.275	37.39
775.669	37.37
776.063	37.35
776.457	37.36
776.851	37.35
777.245	37.35
777.638	37.35
778.032	37.37
778.425	37.42
778.819	37.41
779.212	37.42
779.606	37.42
779.999	37.42
780.392	37.45
780.786	37.45
781.179	37.47
781.572	37.5
781.965	37.5
782.358	37.49
782.751	37.49
783.143	37.5
783.536	37.5
783.929	37.52
784.322	37.54
784.714	37.53
785.107	37.57
785.499	37.58
785.891	37.59
786.284	37.6
786.676	37.6
787.068	37.59
787.46	37.61
787.852	37.62
788.245	37.61
788.636	37.61
789.028	37.63
789.42	37.59
789.812	37.59
790.204	37.58
790.595	37.58
790.987	37.59
791.378	37.59
791.77	37.59
792.161	37.59
792.553	37.63
792.944	37.62
793.335	37.65
793.726	37.66
794.117	37.65
794.508	37.66
794.899	37.67
795.29	37.66
795.681	37.67
796.072	37.68
796.463	37.69
796.853	37.68
797.244	37.68
797.634	37.67
798.025	37.68
798.415	37.71
798.806	37.69
799.196	37.71
799.586	37.74
799.976	37.76
800.366	37.76
800.756	37.77
801.146	37.78
801.536	37.81
801.926	37.79
802.316	37.8
802.706	37.79
803.095	37.79
803.485	37.78
803.874	37.78
804.264	37.77
804.653	37.77
805.043	37.76
805.432	37.77
805.821	37.79
806.21	37.8
806.599	37.82
806.988	37.84
807.377	37.84
807.766	37.85
808.155	37.85
808.544	37.86
808.933	37.87
809.321	37.87
809.71	37.88
810.098	37.86
810.487	37.87
810.875	37.86
811.264	37.87
811.652	37.9
812.04	37.93
812.428	37.94
812.816	37.96
813.204	37.97
813.592	37.98
813.98	38
814.368	38.02
814.756	38.03
815.144	38.03
815.531	38.03
815.919	38.03
816.306	38.02
816.694	38.03
817.081	38.02
817.469	38
817.856	37.99
818.243	37.97
818.63	37.97
819.017	37.97
819.404	37.95
819.791	37.95
820.178	37.96
820.565	37.93
820.952	37.93
821.339	37.93
821.725	37.96
822.112	37.97
822.498	38
822.885	38
823.271	38
823.657	37.97
824.044	37.97
824.43	37.98
824.816	37.99
825.202	37.98
825.588	37.95
825.974	37.91
826.36	37.89
826.746	37.87
827.132	37.86
827.517	37.84
827.903	37.86
828.289	37.83
828.674	37.81
829.06	37.79
829.445	37.78
829.83	37.79
830.216	37.77
830.601	37.77
830.986	37.76
831.371	37.74
831.756	37.74
832.141	37.72
832.526	37.7
832.911	37.69
833.295	37.67
833.68	37.65
834.065	37.62
834.449	37.62
834.834	37.6
835.218	37.57
835.603	37.56
835.987	37.53
836.371	37.5
836.755	37.48
837.139	37.44
837.524	37.44
837.908	37.45
838.291	37.45
838.675	37.44
839.059	37.43
839.443	37.4
839.827	37.38
840.21	37.37
840.594	37.38
840.977	37.38
841.361	37.38
841.744	37.34
842.127	37.3
842.511	37.25
842.894	37.25
843.277	37.24
843.66	37.23
844.043	37.23
844.426	37.24
844.809	37.25
845.191	37.25
845.574	37.26
845.957	37.28
846.339	37.3
846.722	37.32
847.104	37.32
847.487	37.34
847.869	37.34
848.252	37.34
848.634	37.33
849.016	37.33
849.398	37.34
849.78	37.35
850.162	37.35
850.544	37.35
850.926	37.36
851.307	37.36
851.689	37.36
852.071	37.37
852.452	37.37
852.834	37.38
853.215	37.36
853.597	37.35
853.978	37.34
854.359	37.33
854.741	37.33
855.122	37.32
855.503	37.31
855.884	37.29
856.265	37.3
856.646	37.3
857.026	37.3
857.407	37.29
857.788	37.3
858.169	37.31
858.549	37.31
858.93	37.32
859.31	37.35
859.69	37.36
860.071	37.39
860.451	37.38
860.831	37.39
861.211	37.37
861.591	37.37
861.971	37.37
862.351	37.4
862.731	37.43
863.111	37.41
863.491	37.42
863.87	37.39
864.25	37.38
864.629	37.4
865.009	37.39
865.388	37.4
865.768	37.4
866.147	37.41
866.526	37.37
866.905	37.35
867.284	37.37
867.663	37.36
868.042	37.37
868.421	37.4
868.8	37.38
869.179	37.4
869.558	37.39
869.936	37.39
870.315	37.38
870.693	37.38
871.072	37.41
871.45	37.4
871.828	37.4
872.207	37.44
872.585	37.41
872.963	37.42
873.341	37.41
873.719	37.44
874.097	37.44
874.475	37.46
874.853	37.47
875.23	37.47
875.608	37.47
875.986	37.49
876.363	37.46
876.741	37.45
877.118	37.46
877.495	37.46
877.873	37.45
878.25	37.46
878.627	37.47
879.004	37.45
879.381	37.46
879.758	37.45
880.135	37.43
880.512	37.43
880.889	37.42
881.265	37.41
881.642	37.41
882.019	37.41
882.395	37.37
882.772	37.35
883.148	37.34
883.524	37.32
883.901	37.32
884.277	37.3
884.653	37.29
885.029	37.29
885.405	37.29
885.781	37.29
886.157	37.3
886.532	37.32
886.908	37.31
887.284	37.32
887.659	37.31
888.035	37.28
888.411	37.28
888.786	37.28
889.161	37.27
889.537	37.26
889.912	37.24
890.287	37.22
890.662	37.21
891.037	37.19
891.412	37.16
891.787	37.13
892.162	37.13
892.536	37.11
892.911	37.11
893.286	37.09
893.66	37.07
894.035	37.04
894.409	37.04
894.784	37.04
895.158	37.02
895.532	37.05
895.906	37.07
896.281	37.07
896.655	37.07
897.029	37.07
897.402	37.09
897.776	37.12
898.15	37.13
898.524	37.14
898.898	37.13
899.271	37.15
899.645	37.14
900.018	37.16
900.392	37.18
900.765	37.22
901.138	37.22
901.511	37.23
901.884	37.26
902.258	37.28
902.631	37.31
903.003	37.35
903.376	37.34
903.749	37.35
904.122	37.35
904.495	37.36
904.867	37.33
905.24	37.35
905.612	37.36
905.985	37.33
906.357	37.32
906.729	37.32
907.102	37.29
907.474	37.3
907.846	37.28
908.218	37.29
908.59	37.31
908.962	37.32
909.334	37.32
909.705	37.31
910.077	37.35
910.449	37.37
910.82	37.36
911.192	37.38
911.563	37.39
911.935	37.41
912.306	37.4
912.677	37.43
913.048	37.47
913.419	37.44
913.79	37.44
914.161	37.43
914.532	37.42
914.903	37.43
915.274	37.45
915.645	37.45
916.015	37.44
916.386	37.45
916.756	37.42
917.127	37.4
917.497	37.41
917.868	37.43
918.238	37.43
918.608	37.47
918.978	37.47
919.348	37.48
919.718	37.49
920.088	37.53
920.458	37.55
920.828	37.55
921.198	37.58
921.567	37.6
921.937	37.61
922.306	37.6
922.676	37.6
923.045	37.61
923.415	37.62
923.784	37.63
924.153	37.63
924.522	37.61
924.891	37.6
925.26	37.58
925.629	37.61
925.998	37.6
926.367	37.62
926.736	37.61
927.104	37.59
927.473	37.57
927.842	37.57
928.21	37.58
928.578	37.58
928.947	37.62
929.315	37.61
929.683	37.58
930.051	37.57
930.42	37.56
930.788	37.55
931.156	37.56
931.523	37.54
931.891	37.55
932.259	37.54
932.627	37.55
932.994	37.51
933.362	37.51
933.729	37.52
934.097	37.56
934.464	37.56
934.831	37.55
935.199	37.57
935.566	37.63
935.933	37.64
936.3	37.62
936.667	37.63
937.034	37.69
937.401	37.74
937.767	37.81
938.134	37.83
938.501	37.86
938.867	37.93
939.234	37.95
939.6	37.95
939.967	37.96
940.333	38.05
940.699	38.12
941.065	38.1
941.431	38.11
941.798	38.03
942.163	38.03
942.529	38.02
942.895	38.02
943.261	38.06
943.627	38.08
943.992	38.11
944.358	38.09
944.723	38.05
945.089	38.03
945.454	38.02
945.82	38.09
946.185	38.06
946.55	38.06
946.915	38.04
947.28	38.02
947.645	37.98
948.01	37.97
948.375	37.94
948.74	37.92
949.104	37.94
949.469	37.9
949.834	37.82
950.198	37.82
950.562	37.8
950.927	37.74
951.291	37.68
951.655	37.61
952.02	37.59
952.384	37.56
952.748	37.52
953.112	37.47
953.476	37.45
953.839	37.44
954.203	37.4
954.567	37.38
954.931	37.38
955.294	37.36
955.658	37.44
956.021	37.36
956.385	37.32
956.748	37.23
957.111	37.25
957.474	37.24
957.837	37.18
958.2	37.19
958.563	37.15
958.926	37.17
959.289	37.18
959.652	37.12
960.015	37.13
960.377	37.12
960.74	37.19
961.102	37.17
961.465	37.24
961.827	37.32
962.189	37.34
962.552	37.33
962.914	37.3
963.276	37.31
963.638	37.32
964	37.3
964.362	37.32
964.724	37.27
965.085	37.24
965.447	37.15
965.809	37.14
966.17	37.12
966.532	37.14
966.893	37.18
967.255	37.16
967.616	37.14
967.977	37.19
968.338	37.15
968.699	37.17
969.061	37.22
969.421	37.26
969.782	37.24
970.143	37.24
970.504	37.25
970.865	37.24
971.225	37.21
971.586	37.23
971.946	37.24
972.307	37.29
972.667	37.32
973.027	37.31
973.388	37.28
973.748	37.25
974.108	37.31
974.468	37.29
974.828	37.34
975.188	37.35
975.548	37.3
975.907	37.27
976.267	37.27
976.627	37.27
976.986	37.2
977.346	37.2
977.705	37.23
978.064	37.25
978.424	37.29
978.783	37.26
979.142	37.26
979.501	37.36
979.86	37.41
980.219	37.4
980.578	37.41
980.937	37.48
981.296	37.47
981.654	37.48
982.013	37.44
982.371	37.46
982.73	37.48
983.088	37.49
983.447	37.46
983.805	37.46
984.163	37.5
984.521	37.51
984.879	37.52
985.237	37.6
985.595	37.67
985.953	37.65
986.311	37.61
986.669	37.65
987.026	37.68
987.384	37.72
987.741	37.74
988.099	37.74
988.456	37.79
988.814	37.85
989.171	37.92
989.528	37.9
989.885	38
990.242	38.06
990.599	38.06
990.956	38.14
991.313	38.17
991.67	38.23
992.027	38.38
992.383	38.44
992.74	38.51
993.096	38.43
993.453	38.45
993.809	38.45
994.165	38.55
994.522	38.54
994.878	38.59
995.234	38.63
995.59	38.67
995.946	38.7
996.302	38.72
996.658	38.74
997.013	38.83
997.369	38.93
997.725	39.1
998.08	39.12
998.436	39.28
998.791	39.29
999.147	39.31
999.502	39.35
999.857	39.42
1000.212	39.41
1000.567	39.46
1000.922	39.46
1001.277	39.42
1001.632	39.27
1001.987	39.28
1002.342	39.19
1002.696	39.21
1003.051	39.38
1003.406	39.46
1003.76	39.39
1004.114	39.42
1004.469	39.54
1004.823	39.82
1005.177	39.9
1005.531	40.02
1005.885	40.09
1006.239	40.15
1006.593	40.26
1006.947	40.21
1007.301	40.04
1007.655	40
1008.008	40.12
1008.362	40.06
1008.715	39.98
1009.069	40.09
1009.422	40.06
1009.776	39.96
1010.129	40.04
1010.482	40
1010.835	40.14
1011.188	40.34
1011.541	40.46
1011.894	40.47
1012.247	40.51
1012.6	40.48
1012.952	40.53
1013.305	40.67
1013.657	40.86
1014.01	40.94
1014.362	41.01
1014.715	41.01
1015.067	41.22
1015.419	41.38
1015.771	41.49
1016.123	41.56
1016.475	41.78
1016.827	41.76
1017.179	41.87
1017.531	42.1
1017.883	42.19
1018.234	42.42
1018.586	42.35
1018.938	42.4
1019.289	42.48
1019.64	42.63
1019.992	42.75
1020.343	42.79
1020.694	42.9
1021.045	43
1021.396	42.99
1021.747	43.33
1022.098	43.3
1022.449	43.52
1022.8	43.6
1023.151	43.39
1023.501	43.48
1023.852	43.64
1024.202	43.46
1024.553	43.67
1024.903	43.86
1025.253	44.1
1025.604	44.12
1025.954	43.92
1026.304	44.03
1026.654	44.19
1027.004	44.31
1027.354	44.35
1027.703	44.33
1028.053	44.65
1028.403	44.89
1028.753	44.55
1029.102	44.75
1029.452	44.96
1029.801	45.68
1030.15	45.73
1030.499	45.62
897.758	1071.31
901.051	1077.48
904.343	1072.19
907.636	1092.07
910.928	1061.42
914.22	1059.44
917.511	1046.41
920.803	1000.07
924.094	995.8
927.384	971.93
930.675	936.58
933.965	930.54
937.255	871.41
940.544	839.3
943.834	798.23
947.123	791.99
950.411	746.28
953.7	730.22
956.988	691.94
960.276	663.62
963.563	653.09
966.851	627.98
970.138	622.82
973.424	606.39
976.711	608.5
979.997	578.08
983.283	574.56
986.568	563
989.853	546.44
993.138	536.32
996.423	517.8
999.708	503.18
1002.992	497.06
1006.275	475.69
1009.559	472.87
1012.842	455.15
1016.125	443.79
1019.408	435.32
1022.69	430.67
1025.972	421.51
1029.254	411.71
1032.536	403.49
1035.817	397.1
1039.098	392.64
1042.379	383.42
1045.659	378.26
1048.939	370.53
1052.219	362.32
1055.498	357.6
1058.778	348.66
1062.057	341.77
1065.335	338.05
1068.614	334.45
1071.892	330.76
1075.17	319.78
1078.447	315.17
1081.724	311.41
1085.001	309.43
1088.278	303.87
1091.554	297.79
1094.83	298.41
1098.106	295.76
1101.382	292.97
1104.657	290.84
1107.932	285.3
1111.206	287.95
1114.481	280.76
1117.755	279.98
1121.029	276.58
1124.302	276.41
1127.575	272.83
1130.848	269.11
1134.121	266.32
1137.393	265.22
1140.665	260.33
1143.937	258.26
1147.208	255.8
1150.48	255.42
1153.75	251.37
1157.021	247.44
1160.291	247.96
1163.561	243.7
1166.831	243.78
1170.101	241.89
1173.37	241.75
1176.639	241.69
1179.907	240.08
1183.176	237.28
1186.444	237.25
1189.711	236.43
1192.979	236.7
1196.246	235.26
1199.513	236.17
1202.78	234.98
1206.046	234.61
1209.312	232.33
1212.578	232.94
1215.843	234.48
1219.108	233.45
1222.373	237.45
1225.638	239.15
1228.902	242.66
1232.166	241.52
1235.43	244.09
1238.693	246.96
1241.956	249.05
1245.219	252.81
1248.482	252.7
1251.744	253.44
1255.006	254.23
1258.268	249.25
1261.529	247.47
1264.79	245.17
1268.051	244.64
1271.312	240.57
1274.572	238.29
1277.832	235.63
1281.092	231.63
1284.351	230.01
1287.61	229.82
1290.869	226.08
1294.128	223.89
1297.386	223.71
1300.644	222.25
1303.902	223.15
1307.159	223.08
1310.416	222.2
1313.673	221.45
1316.93	223.95
1320.186	223.11
1323.442	223.25
1326.697	227.05
1329.953	228.16
1333.208	228.74
1336.463	230.96
1339.717	230.73
1342.972	234.01
1346.226	236.51
1349.479	237.42
1352.733	238.24
1355.986	240.42
1359.238	240.38
1362.491	241.18
1365.743	243.27
1368.995	244.45
1372.247	244.3
1375.498	244.38
1378.749	245.16
1382	242.44
1385.251	243.56
1388.501	241.69
1391.751	242.22
1395	241.25
1398.25	239.27
1401.499	237.79
1404.748	236.48
1407.996	233.72
1411.244	233.1
1414.492	231.51
1417.74	229.11
1420.987	225.52
1424.234	225.86
1427.481	222.43
1430.728	222.44
1433.974	220.77
1437.22	218.21
1440.465	217.95
1443.711	215.87
1446.956	213.81
1450.201	211.92
1453.445	210.02
1456.689	209.21
1459.933	205.28
1463.177	204.13
1466.42	200.85
1469.663	198.65
1472.906	197.84
1476.148	192.42
1479.391	190.29
1482.633	189.09
1485.874	186.09
1489.115	184.92
1492.356	182.56
1495.597	182.12
1498.838	179.74
1502.078	178.79
1505.318	178.01
1508.557	177.96
1511.797	178.36
1515.036	176.79
1518.274	176.32
1521.513	175.17
1524.751	175.04
1527.989	175.06
1531.227	174.51
1534.464	174.55
1537.701	173.43
1540.938	172.84
1544.174	170.27
1547.41	170.49
1550.646	170.12
1553.882	170.21
1557.117	168.02
1560.352	166.61
1563.587	166.61
1566.821	165.44
1570.055	164.13
1573.289	163.25
1576.523	163.14
1579.756	162.69
1582.989	161.01
1586.222	161.01
1589.454	160.43
1592.686	161.76
1595.918	161.31
1599.15	160.34
1602.381	161.07
1605.612	160.78
1608.843	160.38
1612.073	160.92
1615.303	161.34
1618.533	161.93
1621.762	161.25
1624.992	161.21
1628.221	160.82
1631.449	160.42
1634.678	160.77
1637.906	160.88
1641.134	160.68
1644.361	160.88
1647.588	161.24
1650.815	160.78
1654.042	160.26
1657.269	161.23
1660.495	160.85
1663.72	160.62
1666.946	161.64
1670.171	161.74
1673.396	161.72
1676.621	161.55
1679.845	162.33
1683.069	161.7
1686.293	163.15
1689.517	163.67
1692.74	163.74
1695.963	164.08
1699.185	165.68
1702.408	165.79
1705.63	165.95
1708.852	166.83
1712.073	167.33
1715.294	167.23
1718.515	168.64
1721.736	167.97
1724.956	168.49
1728.176	168.6
1731.396	169.97
1734.616	168.87
1737.835	169.69
1741.054	168.55
1744.272	168.25
1747.491	170.3
1750.709	170.51
1753.927	169.69
1757.144	169.63
1760.361	170.12
1763.578	170.88
1766.795	170.46
1770.011	172.16
1773.227	171.76
1776.443	174.09
1779.658	174.99
1782.874	174.36
1786.089	174.8
1789.303	175.53
1792.518	177.75
1795.732	177.61
1798.945	178.39
1802.159	178.62
1805.372	178.48
1808.585	181.46
1811.797	181.72
1815.01	181.59
1818.222	183.01
1821.434	185.25
1824.645	185.45
1827.856	187.84
1831.067	189.19
1834.278	189.59
1837.488	191
1840.698	192.48
1843.908	190.87
1847.117	191.95
1850.326	193.52
1853.535	192.4
1856.744	194.01
1859.952	194.56
1863.16	192.87
1866.368	192.06
1869.575	193.26
1872.782	190.04
1875.989	189.72
1879.196	189.06
1882.402	187.69
1885.608	187.62
1888.814	187.92
1892.019	187.47
1895.224	186.4
1898.429	185.22
1901.634	185.62
1904.838	186.02
1908.042	188.06
1911.246	187.66
1914.449	188.26
1917.652	188.68
1920.855	188.63
1924.058	189.02
1927.26	188.25
1930.462	188.63
1933.664	190.88
1936.865	189.23
1940.066	188.37
1943.267	187.38
1946.467	188.28
1949.668	188.6
1952.868	190.88
1956.067	190.93
1959.267	191.24
1962.466	191.54
1965.665	191.35
1968.863	191.67
1972.061	195.06
1975.259	197.28
1978.457	197.96
1981.654	199.6
1984.852	200.78
1988.048	199.83
1991.245	202.36
1994.441	204.05
1997.637	206.28
2000.833	209.49
2004.028	212.59
2007.223	213.15
2010.418	214.14
2013.613	219.65
2016.807	221.46
2020.001	223.36
2023.194	227.37
2026.388	232.62
2029.581	238.16
2032.774	239.29
2035.966	243.51
2039.158	244.16
2042.35	248.85
2045.542	251.07
2048.733	254.45
2051.924	258.08
2055.115	262.13
2058.306	262.45
2061.496	263.83
2064.686	263.24
2067.875	268.4
2071.065	269.97
2074.254	268.38
2077.442	273.1
2080.631	274.2
2083.819	276.01
2087.007	276
2090.195	280.03
2093.382	281.9
2096.569	280.34
2099.756	285.49
2102.942	286.15
2106.128	288.36
2109.314	295.18
2112.5	292.93
2115.685	300.05
2118.87	301.39
2122.055	306.88
2125.239	307.95
2128.424	312.54
2131.608	315.25
2134.791	319.44
2137.974	321.07
2141.157	321.92
2144.34	322.61
2147.523	328.37
2150.705	325.45
2153.887	329.44
2157.068	330.52
2160.25	327.52
2163.431	328.22
2166.611	332.51
2169.792	337.66
2172.972	340.7
2176.152	344
2179.331	348.42
2182.511	352.72
2185.69	357.15
2188.868	362.82
2192.047	363.03
2195.225	373.87
2198.403	383.07
2201.58	388.99
2204.758	397.26
2207.935	404.38
2211.111	412.85
2214.288	417.49
2217.464	419.18
2220.64	424.99
2223.815	428.9
2226.991	447.62
2230.166	448.66
2233.34	455.24
2236.515	464.14
2239.689	464.22
2242.863	467.9
2246.036	477.86
2249.209	474.13
2252.382	483.38
2255.555	496.7
2258.727	500.53
2261.9	503.24
2265.071	507.89
2268.243	519.02
2271.414	523.45
2274.585	533.81
2277.756	537.95
2280.926	546.22
2284.096	558.83
2287.266	569.56
2290.436	576.38
2293.605	587.59
2296.774	605.64
2299.942	626.12
2303.111	627.94
2306.279	641.11
2309.447	651.96
2312.614	670.12
2315.781	685.38
2318.948	714.27
2322.115	704.41
2325.281	744.23
2328.447	731.34
2331.613	756.68
2334.779	746.93
2337.944	779.87
2341.109	787.48
2344.274	807.23
2347.438	835.46
2350.602	835.6
2353.766	865.63
2356.929	878.29
2360.092	870.24
2363.255	931.57
2366.418	932.1
2369.58	947.99
2372.742	1010.08
2375.904	1036.12
2379.066	1030.17
2382.227	1007.08
2385.388	1094.53
2388.548	1092.28
2391.709	1105.1
2394.869	1226.7
2398.029	1177.41
2401.188	1212.57
2404.347	1207.62
2407.506	1183.59
2410.665	1215.99
2413.823	1284.03
2416.981	1361.46
2420.139	1317.92
2423.296	1302.65
2426.453	1365.47
2429.61	1306.89
2432.767	1363.3
2435.923	1347.18
2439.079	1480.65
2442.235	1502.27
2445.391	1490.73
2448.546	1482.95
2451.701	1445.98
2454.855	1441.13
2458.009	1535.5
2461.163	1590.36
2464.317	1660.16
2467.471	1701.63
2470.624	1700.4
2473.777	1650.82
2476.929	1601.83
2480.082	1557.42
2483.234	1542.14
2486.385	1615.39
2489.537	1623.83
2492.688	1680.55
2495.839	1632.64
2498.989	1597.87
2502.14	1603.36
2505.29	1620.23
2508.439	1641.79
2511.589	1639.44
2514.738	1790.49
2517.887	1750.43
2521.035	1842.24
2524.183	1861.89
2527.331	1870.01
2530.479	1861.95
2533.627	1872.94
