Data from N_3_DIV_IL_4N_Splice17_14-16-42-934.txt Node
Date: Sat Mar 07 14:16:42 EST 2020
User: sa697716
Spectrometer: NQ5500242
Trigger mode: 0
Integration Time (sec): 1.450000E-1
Scans to average: 20
Nonlinearity correction enabled: false
Boxcar width: 5
Storing dark spectrum: false
XAxis mode: Wavelengths
Number of Pixels in Spectrum: 512
>>>>>Begin Spectral Data<<<<<
187.83	146.45
188.298	164.04
188.766	148.64
189.233	133.26
189.701	129.32
190.169	125.01
190.636	144.96
191.104	167.65
191.571	167.83
192.039	335.2
192.506	768
192.974	21.94
193.441	80.57
193.908	30.27
194.375	94.07
194.842	85.3
195.31	117.44
195.777	138.64
196.244	78.89
196.711	77.17
197.177	79
197.644	78.69
198.111	78.15
198.578	78.37
199.045	78.22
199.511	77.51
199.978	77.45
200.445	77.41
200.911	77.63
201.378	77.65
201.844	77.76
202.31	77.56
202.777	77.63
203.243	77.79
203.709	77.49
204.176	77.33
204.642	77.14
205.108	76.7
205.574	76.18
206.04	75.64
206.506	74.67
206.972	74.41
207.438	73.77
207.903	72.73
208.369	71.57
208.835	70.24
209.301	68.87
209.766	66.87
210.232	65.22
210.697	63.29
211.163	61.9
211.628	60.7
212.094	58.96
212.559	57.6
213.024	56.33
213.49	54.83
213.955	53.66
214.42	52.5
214.885	51.42
215.35	49.82
215.815	47.65
216.28	44.87
216.745	41.81
217.21	38.86
217.675	35.98
218.14	33.46
218.604	31.24
219.069	29.27
219.534	27.65
219.998	26.27
220.463	25.14
220.927	24.14
221.392	23.31
221.856	22.66
222.32	22.05
222.785	21.54
223.249	21.05
223.713	20.64
224.177	20.31
224.642	19.91
225.106	19.56
225.57	19.21
226.034	18.9
226.497	18.61
226.961	18.31
227.425	18.02
227.889	17.71
228.353	17.44
228.816	17.17
229.28	16.9
229.744	16.66
230.207	16.41
230.671	16.18
231.134	15.97
231.597	15.76
232.061	15.55
232.524	15.35
232.987	15.16
233.45	14.98
233.914	14.78
234.377	14.59
234.84	14.42
235.303	14.27
235.766	14.12
236.229	13.96
236.691	13.82
237.154	13.67
237.617	13.54
238.08	13.41
238.542	13.28
239.005	13.18
239.468	13.05
239.93	12.94
240.393	12.82
240.855	12.67
241.317	12.54
241.78	12.43
242.242	12.3
242.704	12.18
243.166	12.07
243.629	11.95
244.091	11.82
244.553	11.71
245.015	11.59
245.477	11.49
245.939	11.4
246.4	11.31
246.862	11.21
247.324	11.13
247.786	11.03
248.247	10.93
248.709	10.82
249.17	10.72
249.632	10.64
250.093	10.56
250.555	10.47
251.016	10.39
251.477	10.3
251.939	10.22
252.4	10.14
252.861	10.05
253.322	9.99
253.783	9.94
254.244	9.89
254.705	9.82
255.166	9.74
255.627	9.68
256.088	9.62
256.549	9.56
257.009	9.49
257.47	9.43
257.931	9.38
258.391	9.3
258.852	9.23
259.312	9.17
259.773	9.11
260.233	9.05
260.694	9
261.154	8.93
261.614	8.88
262.074	8.83
262.534	8.77
262.994	8.72
263.455	8.68
263.915	8.64
264.374	8.59
264.834	8.56
265.294	8.52
265.754	8.49
266.214	8.46
266.673	8.43
267.133	8.39
267.593	8.37
268.052	8.34
268.512	8.32
268.971	8.29
269.431	8.27
269.89	8.24
270.349	8.22
270.809	8.18
271.268	8.17
271.727	8.14
272.186	8.12
272.645	8.1
273.104	8.08
273.563	8.06
274.022	8.04
274.481	8.02
274.94	8
275.399	7.98
275.857	7.97
276.316	7.95
276.775	7.93
277.233	7.92
277.692	7.9
278.15	7.88
278.609	7.86
279.067	7.85
279.525	7.83
279.984	7.81
280.442	7.79
280.9	7.77
281.358	7.76
281.816	7.75
282.274	7.72
282.732	7.71
283.19	7.7
283.648	7.67
284.106	7.65
284.564	7.64
285.021	7.63
285.479	7.62
285.937	7.61
286.394	7.58
286.852	7.56
287.309	7.54
287.767	7.51
288.224	7.49
288.682	7.47
289.139	7.45
289.596	7.41
290.053	7.38
290.511	7.35
290.968	7.31
291.425	7.29
291.882	7.26
292.339	7.23
292.796	7.2
293.252	7.18
293.709	7.15
294.166	7.13
294.623	7.12
295.079	7.1
295.536	7.08
295.992	7.06
296.449	7.04
296.905	7.03
297.362	7.01
297.818	6.99
298.274	6.97
298.731	6.95
299.187	6.93
299.643	6.9
300.099	6.88
300.555	6.86
301.011	6.84
301.467	6.82
301.923	6.8
302.379	6.79
302.835	6.77
303.291	6.75
303.746	6.74
304.202	6.74
304.658	6.73
305.113	6.72
305.569	6.72
306.024	6.7
306.479	6.7
306.935	6.69
307.39	6.69
307.845	6.69
308.301	6.69
308.756	6.69
309.211	6.69
309.666	6.69
310.121	6.69
310.576	6.69
311.031	6.69
311.486	6.68
311.94	6.68
312.395	6.68
312.85	6.68
313.305	6.68
313.759	6.68
314.214	6.67
314.668	6.66
315.123	6.64
315.577	6.64
316.032	6.62
316.486	6.61
316.94	6.58
317.394	6.55
317.849	6.52
318.303	6.5
318.757	6.46
319.211	6.44
319.665	6.42
320.119	6.4
320.572	6.38
321.026	6.35
321.48	6.34
321.934	6.33
322.387	6.32
322.841	6.31
323.295	6.29
323.748	6.28
324.202	6.27
324.655	6.26
325.108	6.25
325.562	6.24
326.015	6.24
326.468	6.23
326.921	6.22
327.374	6.21
327.827	6.21
328.28	6.21
328.733	6.2
329.186	6.19
329.639	6.18
330.092	6.19
330.545	6.18
330.997	6.17
331.45	6.17
331.903	6.17
332.355	6.17
332.808	6.18
333.26	6.18
333.713	6.19
334.165	6.18
334.617	6.19
335.069	6.18
335.522	6.18
335.974	6.2
336.426	6.2
336.878	6.2
337.33	6.19
337.782	6.17
338.234	6.17
338.686	6.16
339.137	6.17
339.589	6.14
340.041	6.15
340.493	6.13
340.944	6.09
341.396	6.07
341.847	6.05
342.299	6.03
342.75	6.01
343.201	5.98
343.653	5.96
344.104	5.93
344.555	5.92
345.006	5.9
345.457	5.88
345.908	5.87
346.359	5.86
346.81	5.85
347.261	5.84
347.712	5.84
348.163	5.82
348.613	5.82
349.064	5.82
349.515	5.8
349.965	5.8
350.416	5.79
350.866	5.79
351.317	5.78
351.767	5.79
352.217	5.78
352.668	5.77
353.118	5.77
353.568	5.77
354.018	5.78
354.468	5.79
354.918	5.79
355.368	5.81
355.818	5.81
356.268	5.82
356.718	5.82
357.168	5.82
357.617	5.82
358.067	5.83
358.517	5.85
358.966	5.86
359.416	5.86
359.865	5.87
360.315	5.87
360.764	5.88
361.213	5.87
361.663	5.87
362.112	5.88
362.561	5.9
363.01	5.91
363.459	5.9
363.908	5.9
364.357	5.91
364.806	5.91
365.255	5.93
365.703	5.95
366.152	5.97
366.601	6
367.05	6.03
367.498	6.05
367.947	6.08
368.395	6.12
368.844	6.15
369.292	6.18
369.74	6.22
370.189	6.25
370.637	6.28
371.085	6.31
371.533	6.33
371.981	6.37
372.429	6.42
372.877	6.47
373.325	6.5
373.773	6.55
374.221	6.6
374.669	6.65
375.116	6.69
375.564	6.75
376.012	6.8
376.459	6.86
376.907	6.92
377.354	6.97
377.801	7.02
378.249	7.07
378.696	7.13
379.143	7.18
379.591	7.23
380.038	7.28
380.485	7.33
380.932	7.38
381.379	7.43
381.826	7.47
382.273	7.52
382.72	7.56
383.166	7.62
383.613	7.66
384.06	7.69
384.506	7.73
384.953	7.78
385.4	7.82
385.846	7.88
386.292	7.92
386.739	7.96
387.185	7.99
387.631	8.03
388.078	8.07
388.524	8.11
388.97	8.15
389.416	8.18
389.862	8.22
390.308	8.25
390.754	8.29
391.2	8.32
391.645	8.35
392.091	8.39
392.537	8.43
392.983	8.45
393.428	8.49
393.874	8.52
394.319	8.54
394.765	8.56
395.21	8.58
395.655	8.6
396.101	8.62
396.546	8.63
396.991	8.66
397.436	8.66
397.881	8.69
398.326	8.69
398.771	8.71
399.216	8.73
399.661	8.75
400.106	8.75
400.551	8.76
400.995	8.74
401.44	8.73
401.885	8.72
402.329	8.7
402.774	8.69
403.218	8.69
403.663	8.68
404.107	8.69
404.551	8.67
404.995	8.66
405.44	8.65
405.884	8.65
406.328	8.65
406.772	8.64
407.216	8.65
407.66	8.64
408.104	8.62
408.547	8.6
408.991	8.59
409.435	8.58
409.879	8.58
410.322	8.58
410.766	8.57
411.209	8.58
411.653	8.59
412.096	8.58
412.54	8.59
412.983	8.59
413.426	8.62
413.869	8.63
414.312	8.64
414.756	8.66
415.199	8.66
415.642	8.67
416.085	8.67
416.527	8.66
416.97	8.65
417.413	8.63
417.856	8.63
418.298	8.6
418.741	8.58
419.184	8.57
419.626	8.56
420.069	8.55
420.511	8.54
420.953	8.53
421.396	8.53
421.838	8.53
422.28	8.53
422.722	8.56
423.164	8.56
423.606	8.55
424.048	8.56
424.49	8.56
424.932	8.54
425.374	8.53
425.816	8.49
426.258	8.46
426.699	8.44
427.141	8.41
427.582	8.4
428.024	8.4
428.465	8.41
428.907	8.39
429.348	8.37
429.789	8.36
430.231	8.36
430.672	8.38
431.113	8.41
431.554	8.43
431.995	8.46
432.436	8.47
432.877	8.46
433.318	8.46
433.759	8.5
434.2	8.53
434.64	8.57
435.081	8.59
435.522	8.62
435.962	8.63
436.403	8.66
436.843	8.68
437.284	8.69
437.724	8.7
438.164	8.71
438.604	8.71
439.045	8.72
439.485	8.71
439.925	8.71
440.365	8.72
440.805	8.73
441.245	8.73
441.685	8.76
442.125	8.79
442.564	8.81
443.004	8.84
443.444	8.87
443.883	8.9
444.323	8.92
444.762	8.94
445.202	8.96
445.641	9
446.081	9.03
446.52	9.03
446.959	9.07
447.398	9.11
447.837	9.14
448.276	9.15
448.716	9.16
449.154	9.21
449.593	9.25
450.032	9.26
450.471	9.24
450.91	9.25
451.349	9.27
451.787	9.25
452.226	9.24
452.664	9.23
453.103	9.23
453.541	9.22
453.98	9.18
454.418	9.15
454.856	9.14
455.295	9.13
455.733	9.09
456.171	9.08
456.609	9.08
457.047	9.06
457.485	9.03
457.923	9
458.361	8.98
458.798	8.97
459.236	8.96
459.674	8.95
460.111	8.93
460.549	8.93
460.987	8.92
461.424	8.92
461.862	8.9
462.299	8.91
462.736	8.91
463.173	8.92
463.611	8.91
464.048	8.9
464.485	8.91
464.922	8.9
465.359	8.9
465.796	8.88
466.233	8.88
466.67	8.88
467.106	8.89
467.543	8.89
467.98	8.89
468.416	8.89
468.853	8.9
469.29	8.9
469.726	8.91
470.162	8.91
470.599	8.92
471.035	8.91
471.471	8.9
471.907	8.89
472.344	8.9
472.78	8.9
473.216	8.89
473.652	8.9
474.088	8.88
474.523	8.89
474.959	8.88
475.395	8.86
475.831	8.85
476.266	8.84
476.702	8.82
477.138	8.8
477.573	8.8
478.008	8.81
478.444	8.79
478.879	8.8
479.314	8.79
479.75	8.79
480.185	8.78
480.62	8.78
481.055	8.78
481.49	8.78
481.925	8.78
482.36	8.76
482.795	8.75
483.229	8.75
483.664	8.75
484.099	8.74
484.534	8.74
484.968	8.75
485.403	8.76
485.837	8.77
486.271	8.79
486.706	8.8
487.14	8.82
487.574	8.83
488.009	8.84
488.443	8.85
488.877	8.88
489.311	8.91
489.745	8.94
490.179	8.97
490.613	9.01
491.046	9.05
491.48	9.09
491.914	9.13
492.348	9.19
492.781	9.25
493.215	9.32
493.648	9.38
494.082	9.44
494.515	9.51
494.948	9.58
495.382	9.66
495.815	9.74
496.248	9.83
496.681	9.92
497.114	10.01
497.547	10.11
497.98	10.2
498.413	10.31
498.846	10.41
499.279	10.53
499.711	10.64
500.144	10.76
500.577	10.89
501.009	11.02
501.442	11.16
501.874	11.31
502.306	11.47
502.739	11.63
503.171	11.79
503.603	11.97
504.036	12.15
504.468	12.32
504.9	12.5
505.332	12.69
505.764	12.9
506.196	13.11
506.627	13.32
507.059	13.54
507.491	13.77
507.923	14.02
508.354	14.27
508.786	14.53
509.217	14.81
509.649	15.09
510.08	15.37
510.512	15.66
510.943	15.95
511.374	16.24
511.805	16.55
512.237	16.86
512.668	17.18
513.099	17.49
513.53	17.81
513.961	18.14
514.391	18.47
514.822	18.82
515.253	19.14
515.684	19.49
516.114	19.84
516.545	20.17
516.975	20.52
517.406	20.86
517.836	21.2
518.267	21.55
518.697	21.86
519.127	22.19
519.558	22.52
519.988	22.87
520.418	23.19
520.848	23.5
521.278	23.82
521.708	24.22
522.138	24.53
522.567	24.82
522.997	25.11
523.427	25.43
523.857	25.71
524.286	25.97
524.716	26.23
525.145	26.48
525.575	26.76
526.004	27
526.433	27.12
526.863	27.35
527.292	27.58
527.721	27.77
528.15	27.96
528.579	28.15
529.008	28.34
529.437	28.5
529.866	28.68
530.295	28.82
530.724	28.98
531.152	29.14
531.581	29.27
532.01	29.4
532.438	29.53
532.867	29.64
533.295	29.74
533.723	29.84
534.152	29.94
534.58	30.03
535.008	30.09
535.436	30.17
535.865	30.25
536.293	30.33
536.721	30.39
537.149	30.45
537.576	30.5
538.004	30.57
538.432	30.62
538.86	30.66
539.287	30.69
539.715	30.74
540.143	30.78
540.57	30.8
540.998	30.81
541.425	30.85
541.852	30.88
542.28	30.92
542.707	30.95
543.134	30.99
543.561	31.04
543.988	31.07
544.415	31.09
544.842	31.1
545.269	31.15
545.696	31.19
546.123	31.21
546.549	31.26
546.976	31.28
547.403	31.32
547.829	31.33
548.256	31.36
548.682	31.4
549.108	31.44
549.535	31.48
549.961	31.51
550.387	31.53
550.813	31.55
551.24	31.54
551.666	31.56
552.092	31.56
552.518	31.56
552.943	31.53
553.369	31.5
553.795	31.47
554.221	31.45
554.646	31.41
555.072	31.38
555.498	31.34
555.923	31.3
556.349	31.23
556.774	31.16
557.199	31.1
557.625	31.05
558.05	30.99
558.475	30.91
558.9	30.82
559.325	30.75
559.75	30.63
560.175	30.53
560.6	30.39
561.025	30.3
561.449	30.18
561.874	30.06
562.299	29.93
562.723	29.79
563.148	29.65
563.572	29.46
563.997	29.3
564.421	29.14
564.846	28.97
565.27	28.82
565.694	28.64
566.118	28.45
566.542	28.27
566.966	28.08
567.39	27.88
567.814	27.68
568.238	27.5
568.662	27.3
569.086	27.12
569.509	26.93
569.933	26.74
570.357	26.55
570.78	26.38
571.204	26.19
571.627	26.03
572.05	25.87
572.474	25.72
572.897	25.58
573.32	25.42
573.743	25.26
574.166	25.14
574.589	24.99
575.012	24.85
575.435	24.72
575.858	24.6
576.281	24.48
576.704	24.35
577.126	24.22
577.549	24.11
577.972	24.01
578.394	23.91
578.817	23.79
579.239	23.69
579.661	23.58
580.084	23.47
580.506	23.38
580.928	23.28
581.35	23.19
581.772	23.1
582.194	22.99
582.616	22.91
583.038	22.83
583.46	22.74
583.882	22.67
584.303	22.57
584.725	22.51
585.147	22.44
585.568	22.37
585.99	22.28
586.411	22.22
586.833	22.14
587.254	22.07
587.675	22
588.096	21.92
588.518	21.85
588.939	21.81
589.36	21.73
589.781	21.66
590.202	21.61
590.623	21.57
591.043	21.51
591.464	21.47
591.885	21.4
592.305	21.36
592.726	21.33
593.147	21.29
593.567	21.26
593.987	21.22
594.408	21.17
594.828	21.14
595.248	21.1
595.669	21.06
596.089	21.04
596.509	21.02
596.929	20.99
597.349	20.94
597.769	20.9
598.189	20.86
598.608	20.82
599.028	20.78
599.448	20.72
599.867	20.66
600.287	20.62
600.706	20.57
601.126	20.51
601.545	20.44
601.965	20.39
602.384	20.33
602.803	20.25
603.222	20.18
603.641	20.11
604.061	20.04
604.48	19.98
604.898	19.89
605.317	19.81
605.736	19.73
606.155	19.64
606.574	19.55
606.992	19.48
607.411	19.39
607.829	19.28
608.248	19.18
608.666	19.08
609.085	18.98
609.503	18.89
609.921	18.8
610.339	18.71
610.758	18.63
611.176	18.53
611.594	18.44
612.012	18.36
612.43	18.29
612.847	18.22
613.265	18.14
613.683	18.07
614.101	17.99
614.518	17.9
614.936	17.81
615.353	17.72
615.771	17.65
616.188	17.57
616.606	17.5
617.023	17.44
617.44	17.39
617.857	17.32
618.274	17.25
618.691	17.18
619.108	17.14
619.525	17.1
619.942	17.07
620.359	17.01
620.776	16.99
621.192	16.95
621.609	16.91
622.026	16.87
622.442	16.84
622.859	16.81
623.275	16.8
623.691	16.77
624.108	16.74
624.524	16.71
624.94	16.71
625.356	16.68
625.772	16.66
626.188	16.64
626.604	16.62
627.02	16.6
627.436	16.58
627.852	16.57
628.268	16.55
628.683	16.53
629.099	16.52
629.514	16.49
629.93	16.48
630.345	16.44
630.761	16.39
631.176	16.35
631.591	16.29
632.007	16.25
632.422	16.18
632.837	16.12
633.252	16.05
633.667	15.97
634.082	15.89
634.497	15.79
634.911	15.69
635.326	15.59
635.741	15.51
636.155	15.4
636.57	15.29
636.984	15.18
637.399	15.05
637.813	14.91
638.228	14.76
638.642	14.61
639.056	14.47
639.47	14.34
639.884	14.22
640.298	14.07
640.712	13.94
641.126	13.79
641.54	13.65
641.954	13.51
642.368	13.38
642.781	13.25
643.195	13.13
643.609	13
644.022	12.86
644.436	12.73
644.849	12.61
645.262	12.49
645.676	12.39
646.089	12.29
646.502	12.19
646.915	12.11
647.328	12.03
647.741	11.95
648.154	11.88
648.567	11.82
648.98	11.76
649.393	11.72
649.805	11.67
650.218	11.62
650.631	11.59
651.043	11.54
651.456	11.5
651.868	11.46
652.28	11.42
652.693	11.37
653.105	11.32
653.517	11.28
653.929	11.22
654.341	11.15
654.753	11.08
655.165	11.01
655.577	10.95
655.989	10.87
656.401	10.8
656.813	10.72
657.224	10.65
657.636	10.55
658.047	10.46
658.459	10.36
658.87	10.27
659.282	10.18
659.693	10.09
660.104	9.99
660.515	9.9
660.926	9.8
661.338	9.71
661.749	9.62
662.159	9.55
662.57	9.47
662.981	9.4
663.392	9.34
663.803	9.28
664.213	9.21
664.624	9.15
665.035	9.11
665.445	9.06
665.855	9.01
666.266	8.96
666.676	8.92
667.086	8.88
667.497	8.84
667.907	8.8
668.317	8.78
668.727	8.76
669.137	8.75
669.547	8.74
669.956	8.72
670.366	8.73
670.776	8.72
671.186	8.71
671.595	8.71
672.005	8.71
672.414	8.72
672.824	8.73
673.233	8.75
673.642	8.76
674.052	8.77
674.461	8.79
674.87	8.81
675.279	8.85
675.688	8.9
676.097	8.94
676.506	8.98
676.915	9.03
677.323	9.08
677.732	9.12
678.141	9.19
678.549	9.25
678.958	9.32
679.366	9.39
679.775	9.46
680.183	9.55
680.592	9.65
681	9.75
681.408	9.86
681.816	9.98
682.224	10.13
682.632	10.28
683.04	10.45
683.448	10.63
683.856	10.82
684.264	11.04
684.671	11.28
685.079	11.55
685.487	11.85
685.894	12.17
686.302	12.52
686.709	12.89
687.116	13.28
687.524	13.7
687.931	14.16
688.338	14.64
688.745	15.14
689.152	15.66
689.559	16.22
689.966	16.79
690.373	17.37
690.78	17.99
691.187	18.61
691.593	19.26
692	19.92
692.407	20.56
692.813	21.24
693.22	21.92
693.626	22.62
694.032	23.31
694.439	24.01
694.845	24.73
695.251	25.43
695.657	26.13
696.063	26.83
696.469	27.53
696.875	28.24
697.281	28.93
697.687	29.62
698.093	30.3
698.498	30.95
698.904	31.61
699.31	32.24
699.715	32.88
700.12	33.51
700.526	34.1
700.931	34.69
701.337	35.28
701.742	35.83
702.147	36.4
702.552	36.94
702.957	37.47
703.362	38
703.767	38.52
704.172	39.03
704.577	39.51
704.981	40.01
705.386	40.51
705.791	40.98
706.195	41.46
706.6	41.91
707.004	42.36
707.408	42.82
707.813	43.27
708.217	43.72
708.621	44.14
709.025	44.55
709.43	44.95
709.834	45.38
710.237	45.77
710.641	46.14
711.045	46.51
711.449	46.88
711.853	47.26
712.256	47.61
712.66	47.95
713.064	48.28
713.467	48.63
713.87	48.95
714.274	49.26
714.677	49.59
715.08	49.92
715.484	50.23
715.887	50.56
716.29	50.84
716.693	51.12
717.096	51.42
717.499	51.69
717.901	51.97
718.304	52.26
718.707	52.54
719.109	52.79
719.512	53.03
719.915	53.29
720.317	53.5
720.719	53.75
721.122	54
721.524	54.21
721.926	54.45
722.328	54.68
722.731	54.88
723.133	55.09
723.535	55.27
723.937	55.48
724.338	55.64
724.74	55.82
725.142	56.03
725.544	56.17
725.945	56.35
726.347	56.5
726.748	56.63
727.15	56.77
727.551	56.91
727.952	57.05
728.354	57.18
728.755	57.32
729.156	57.43
729.557	57.51
729.958	57.61
730.359	57.71
730.76	57.82
731.161	57.95
731.562	58.06
731.962	58.13
732.363	58.25
732.763	58.34
733.164	58.39
733.564	58.48
733.965	58.57
734.365	58.67
734.766	58.75
735.166	58.81
735.566	58.87
735.966	58.94
736.366	59
736.766	59.02
737.166	59.07
737.566	59.16
737.966	59.23
738.365	59.25
738.765	59.33
739.165	59.38
739.564	59.43
739.964	59.46
740.363	59.47
740.763	59.51
741.162	59.57
741.561	59.6
741.96	59.63
742.36	59.65
742.759	59.72
743.158	59.72
743.557	59.72
743.955	59.76
744.354	59.78
744.753	59.86
745.152	59.92
745.55	59.98
745.949	60.03
746.348	60.08
746.746	60.12
747.144	60.15
747.543	60.18
747.941	60.23
748.339	60.24
748.737	60.29
749.136	60.28
749.534	60.27
749.932	60.27
750.33	60.27
750.727	60.28
751.125	60.28
751.523	60.26
751.921	60.25
752.318	60.25
752.716	60.24
753.113	60.23
753.511	60.25
753.908	60.28
754.305	60.27
754.703	60.25
755.1	60.23
755.497	60.23
755.894	60.22
756.291	60.24
756.688	60.2
757.085	60.18
757.482	60.17
757.878	60.15
758.275	60.11
758.672	60.12
759.068	60.14
759.465	60.12
759.861	60.11
760.258	60.11
760.654	60.1
761.05	60.12
761.447	60.12
761.843	60.1
762.239	60.1
762.635	60.09
763.031	60.07
763.427	60.04
763.822	60.04
764.218	60.06
764.614	60.09
765.01	60.08
765.405	60.11
765.801	60.09
766.196	60.12
766.592	60.12
766.987	60.12
767.382	60.11
767.778	60.13
768.173	60.16
768.568	60.12
768.963	60.1
769.358	60.11
769.753	60.1
770.148	60.13
770.542	60.1
770.937	60.09
771.332	60.08
771.726	60.07
772.121	60.05
772.515	60.03
772.91	60.02
773.304	60.02
773.699	60.02
774.093	59.98
774.487	59.99
774.881	60.03
775.275	60.02
775.669	60.05
776.063	60.07
776.457	60.08
776.851	60.08
777.245	60.06
777.638	60.02
778.032	60.03
778.425	60.08
778.819	60.06
779.212	60.07
779.606	60.11
779.999	60.09
780.392	60.14
780.786	60.12
781.179	60.15
781.572	60.2
781.965	60.23
782.358	60.24
782.751	60.22
783.143	60.22
783.536	60.21
783.929	60.22
784.322	60.29
784.714	60.28
785.107	60.35
785.499	60.33
785.891	60.35
786.284	60.39
786.676	60.41
787.068	60.44
787.46	60.48
787.852	60.5
788.245	60.5
788.636	60.46
789.028	60.49
789.42	60.46
789.812	60.47
790.204	60.5
790.595	60.48
790.987	60.48
791.378	60.52
791.77	60.53
792.161	60.5
792.553	60.5
792.944	60.51
793.335	60.51
793.726	60.56
794.117	60.56
794.508	60.54
794.899	60.55
795.29	60.57
795.681	60.54
796.072	60.52
796.463	60.55
796.853	60.55
797.244	60.57
797.634	60.58
798.025	60.57
798.415	60.6
798.806	60.62
799.196	60.65
799.586	60.63
799.976	60.65
800.366	60.67
800.756	60.7
801.146	60.74
801.536	60.76
801.926	60.76
802.316	60.79
802.706	60.81
803.095	60.84
803.485	60.86
803.874	60.9
804.264	60.94
804.653	60.98
805.043	60.99
805.432	61.03
805.821	61.06
806.21	61.11
806.599	61.13
806.988	61.15
807.377	61.16
807.766	61.16
808.155	61.15
808.544	61.17
808.933	61.16
809.321	61.19
809.71	61.19
810.098	61.21
810.487	61.2
810.875	61.22
811.264	61.2
811.652	61.21
812.04	61.23
812.428	61.27
812.816	61.26
813.204	61.28
813.592	61.26
813.98	61.3
814.368	61.3
814.756	61.3
815.144	61.29
815.531	61.33
815.919	61.35
816.306	61.36
816.694	61.35
817.081	61.37
817.469	61.42
817.856	61.44
818.243	61.4
818.63	61.39
819.017	61.4
819.404	61.4
819.791	61.4
820.178	61.43
820.565	61.42
820.952	61.41
821.339	61.4
821.725	61.38
822.112	61.39
822.498	61.42
822.885	61.45
823.271	61.44
823.657	61.43
824.044	61.45
824.43	61.44
824.816	61.45
825.202	61.45
825.588	61.47
825.974	61.46
826.36	61.44
826.746	61.41
827.132	61.4
827.517	61.42
827.903	61.45
828.289	61.43
828.674	61.43
829.06	61.4
829.445	61.37
829.83	61.35
830.216	61.33
830.601	61.33
830.986	61.32
831.371	61.28
831.756	61.25
832.141	61.22
832.526	61.19
832.911	61.14
833.295	61.11
833.68	61.11
834.065	61.1
834.449	61.08
834.834	61.02
835.218	61.03
835.603	61.02
835.987	60.99
836.371	60.98
836.755	60.95
837.139	60.94
837.524	60.95
837.908	60.94
838.291	60.94
838.675	60.94
839.059	60.94
839.443	60.92
839.827	60.9
840.21	60.91
840.594	60.91
840.977	60.93
841.361	60.94
841.744	60.91
842.127	60.92
842.511	60.89
842.894	60.88
843.277	60.89
843.66	60.84
844.043	60.87
844.426	60.85
844.809	60.85
845.191	60.86
845.574	60.84
845.957	60.87
846.339	60.86
846.722	60.86
847.104	60.9
847.487	60.9
847.869	60.93
848.252	60.93
848.634	60.93
849.016	60.93
849.398	60.93
849.78	60.93
850.162	60.92
850.544	60.9
850.926	60.9
851.307	60.88
851.689	60.86
852.071	60.88
852.452	60.85
852.834	60.85
853.215	60.86
853.597	60.88
853.978	60.88
854.359	60.88
854.741	60.89
855.122	60.91
855.503	60.91
855.884	60.91
856.265	60.91
856.646	60.94
857.026	60.96
857.407	60.98
857.788	60.96
858.169	60.99
858.549	61.01
858.93	61.03
859.31	61.03
859.69	61.06
860.071	61.12
860.451	61.11
860.831	61.11
861.211	61.13
861.591	61.11
861.971	61.11
862.351	61.12
862.731	61.14
863.111	61.11
863.491	61.14
863.87	61.13
864.25	61.1
864.629	61.12
865.009	61.14
865.388	61.12
865.768	61.16
866.147	61.2
866.526	61.19
866.905	61.19
867.284	61.2
867.663	61.18
868.042	61.19
868.421	61.2
868.8	61.2
869.179	61.2
869.558	61.22
869.936	61.19
870.315	61.16
870.693	61.19
871.072	61.2
871.45	61.22
871.828	61.21
872.207	61.2
872.585	61.19
872.963	61.2
873.341	61.18
873.719	61.18
874.097	61.19
874.475	61.23
874.853	61.2
875.23	61.22
875.608	61.2
875.986	61.24
876.363	61.27
876.741	61.29
877.118	61.29
877.495	61.33
877.873	61.35
878.25	61.37
878.627	61.36
879.004	61.38
879.381	61.4
879.758	61.41
880.135	61.41
880.512	61.38
880.889	61.38
881.265	61.37
881.642	61.37
882.019	61.35
882.395	61.31
882.772	61.3
883.148	61.26
883.524	61.22
883.901	61.2
884.277	61.15
884.653	61.14
885.029	61.12
885.405	61.1
885.781	61.08
886.157	61.1
886.532	61.12
886.908	61.12
887.284	61.12
887.659	61.09
888.035	61.07
888.411	61.05
888.786	61.07
889.161	61.09
889.537	61.1
889.912	61.11
890.287	61.09
890.662	61.06
891.037	61.06
891.412	61.04
891.787	61.06
892.162	61.05
892.536	61.06
892.911	61.02
893.286	60.99
893.66	60.97
894.035	60.94
894.409	60.91
894.784	60.91
895.158	60.89
895.532	60.89
895.906	60.86
896.281	60.85
896.655	60.81
897.029	60.82
897.402	60.8
897.776	60.82
898.15	60.81
898.524	60.85
898.898	60.83
899.271	60.85
899.645	60.87
900.018	60.92
900.392	60.95
900.765	61.01
901.138	61.01
901.511	61.06
901.884	61.08
902.258	61.12
902.631	61.1
903.003	61.13
903.376	61.1
903.749	61.09
904.122	61.11
904.495	61.14
904.867	61.14
905.24	61.18
905.612	61.2
905.985	61.17
906.357	61.18
906.729	61.2
907.102	61.22
907.474	61.26
907.846	61.28
908.218	61.27
908.59	61.27
908.962	61.27
909.334	61.28
909.705	61.22
910.077	61.24
910.449	61.24
910.82	61.24
911.192	61.23
911.563	61.24
911.935	61.23
912.306	61.23
912.677	61.24
913.048	61.25
913.419	61.21
913.79	61.26
914.161	61.26
914.532	61.25
914.903	61.29
915.274	61.32
915.645	61.34
916.015	61.33
916.386	61.33
916.756	61.32
917.127	61.33
917.497	61.38
917.868	61.38
918.238	61.42
918.608	61.44
918.978	61.43
919.348	61.43
919.718	61.41
920.088	61.43
920.458	61.45
920.828	61.46
921.198	61.43
921.567	61.44
921.937	61.46
922.306	61.43
922.676	61.44
923.045	61.43
923.415	61.43
923.784	61.42
924.153	61.43
924.522	61.44
924.891	61.43
925.26	61.46
925.629	61.43
925.998	61.4
926.367	61.4
926.736	61.38
927.104	61.37
927.473	61.37
927.842	61.34
928.21	61.36
928.578	61.31
928.947	61.31
929.315	61.29
929.683	61.25
930.051	61.2
930.42	61.15
930.788	61.07
931.156	61.04
931.523	60.98
931.891	60.95
932.259	60.87
932.627	60.84
932.994	60.77
933.362	60.68
933.729	60.67
934.097	60.63
934.464	60.61
934.831	60.6
935.199	60.57
935.566	60.51
935.933	60.46
936.3	60.39
936.667	60.41
937.034	60.39
937.401	60.44
937.767	60.43
938.134	60.51
938.501	60.59
938.867	60.67
939.234	60.69
939.6	60.78
939.967	60.88
940.333	60.98
940.699	61.05
941.065	61.11
941.431	61.18
941.798	61.23
942.163	61.23
942.529	61.22
942.895	61.24
943.261	61.26
943.627	61.29
943.992	61.28
944.358	61.35
944.723	61.32
945.089	61.3
945.454	61.34
945.82	61.43
946.185	61.43
946.55	61.36
946.915	61.37
947.28	61.4
947.645	61.42
948.01	61.47
948.375	61.44
948.74	61.4
949.104	61.49
949.469	61.44
949.834	61.3
950.198	61.23
950.562	61.24
950.927	61.21
951.291	61.12
951.655	61.03
952.02	60.98
952.384	60.9
952.748	60.85
953.112	60.68
953.476	60.61
953.839	60.53
954.203	60.5
954.567	60.41
954.931	60.35
955.294	60.35
955.658	60.4
956.021	60.39
956.385	60.38
956.748	60.36
957.111	60.39
957.474	60.37
957.837	60.37
958.2	60.37
958.563	60.37
958.926	60.38
959.289	60.35
959.652	60.26
960.015	60.14
960.377	60.06
960.74	60.05
961.102	60.02
961.465	60.07
961.827	60.06
962.189	60.07
962.552	60.03
962.914	59.99
963.276	59.99
963.638	59.99
964	60.07
964.362	60.11
964.724	60.08
965.085	60.09
965.447	60.03
965.809	60.03
966.17	59.96
966.532	59.99
966.893	60.01
967.255	59.99
967.616	59.96
967.977	59.92
968.338	59.88
968.699	59.88
969.061	59.88
969.421	59.87
969.782	59.9
970.143	59.92
970.504	59.94
970.865	59.97
971.225	59.9
971.586	59.95
971.946	59.91
972.307	59.93
972.667	59.92
973.027	59.91
973.388	59.92
973.748	59.96
974.108	60.06
974.468	60.02
974.828	59.99
975.188	60.07
975.548	60.04
975.907	60.09
976.267	60.09
976.627	60.09
976.986	60.05
977.346	60
977.705	59.89
978.064	59.81
978.424	59.86
978.783	59.83
979.142	59.82
979.501	59.83
979.86	59.83
980.219	59.82
980.578	59.88
980.937	59.89
981.296	59.94
981.654	60.02
982.013	60.04
982.371	60.02
982.73	60.03
983.088	60.04
983.447	60.04
983.805	60.09
984.163	60.11
984.521	60.07
984.879	60.03
985.237	59.99
985.595	59.91
985.953	59.86
986.311	59.79
986.669	59.77
987.026	59.74
987.384	59.72
987.741	59.65
988.099	59.63
988.456	59.49
988.814	59.62
989.171	59.61
989.528	59.71
989.885	59.78
990.242	59.81
990.599	59.91
990.956	60
991.313	60.07
991.67	60.2
992.027	60.33
992.383	60.5
992.74	60.56
993.096	60.63
993.453	60.63
993.809	60.5
994.165	60.55
994.522	60.5
994.878	60.57
995.234	60.54
995.59	60.4
995.946	60.41
996.302	60.38
996.658	60.4
997.013	60.44
997.369	60.48
997.725	60.64
998.08	60.64
998.436	60.78
998.791	60.78
999.147	60.69
999.502	60.77
999.857	60.81
1000.212	60.77
1000.567	60.87
1000.922	60.9
1001.277	60.87
1001.632	60.88
1001.987	60.92
1002.342	60.81
1002.696	60.73
1003.051	60.94
1003.406	60.98
1003.76	60.88
1004.114	61.03
1004.469	61
1004.823	61.25
1005.177	61.33
1005.531	61.33
1005.885	61.35
1006.239	61.34
1006.593	61.39
1006.947	61.35
1007.301	61.3
1007.655	61.47
1008.008	61.57
1008.362	61.67
1008.715	61.48
1009.069	61.69
1009.422	61.74
1009.776	61.86
1010.129	62.09
1010.482	62.26
1010.835	62.37
1011.188	62.44
1011.541	62.34
1011.894	62.36
1012.247	62.24
1012.6	62.35
1012.952	62.22
1013.305	62.28
1013.657	62.24
1014.01	62.19
1014.362	62.23
1014.715	62.28
1015.067	62.46
1015.419	62.7
1015.771	62.72
1016.123	62.83
1016.475	62.86
1016.827	62.99
1017.179	63.15
1017.531	63.33
1017.883	63.47
1018.234	63.56
1018.586	63.66
1018.938	63.79
1019.289	63.51
1019.64	63.59
1019.992	63.57
1020.343	63.64
1020.694	63.55
1021.045	63.77
1021.396	63.75
1021.747	63.77
1022.098	63.79
1022.449	63.86
1022.8	63.84
1023.151	64.25
1023.501	64.52
1023.852	64.85
1024.202	64.6
1024.553	64.84
1024.903	64.86
1025.253	65.22
1025.604	65.25
1025.954	64.99
1026.304	65.05
1026.654	65.22
1027.004	65.28
1027.354	65.32
1027.703	65.29
1028.053	65.98
1028.403	66.08
1028.753	66.06
1029.102	66.08
1029.452	66.32
1029.801	66.87
1030.15	67.04
1030.499	67.02
897.758	970.68
901.051	981.13
904.343	978.71
907.636	992.66
910.928	968.83
914.22	964.35
917.511	951.03
920.803	911.85
924.094	908.51
927.384	885.54
930.675	852.82
933.965	850.72
937.255	799.16
940.544	768.34
943.834	736.63
947.123	728.64
950.411	691.27
953.7	677.12
956.988	640.76
960.276	617.18
963.563	606.71
966.851	584.59
970.138	579.2
973.424	562.72
976.711	563.56
979.997	536.56
983.283	535.39
986.568	523.34
989.853	510.06
993.138	501.24
996.423	482.68
999.708	471.49
1002.992	466.33
1006.275	447.41
1009.559	443.21
1012.842	428.56
1016.125	417.04
1019.408	407.73
1022.69	404.55
1025.972	395.44
1029.254	385.56
1032.536	378.87
1035.817	373.18
1039.098	368.71
1042.379	362.62
1045.659	358.71
1048.939	351.45
1052.219	344.37
1055.498	341.74
1058.778	333.32
1062.057	326.84
1065.335	324.53
1068.614	321.15
1071.892	317.1
1075.17	308
1078.447	302.75
1081.724	300.15
1085.001	296.97
1088.278	293.78
1091.554	287.66
1094.83	287.14
1098.106	285.35
1101.382	282.62
1104.657	280.83
1107.932	276.27
1111.206	278.75
1114.481	270.99
1117.755	269.56
1121.029	267.98
1124.302	265.79
1127.575	261.6
1130.848	258.99
1134.121	256.41
1137.393	255.94
1140.665	250.75
1143.937	248.83
1147.208	246.29
1150.48	246.27
1153.75	242.41
1157.021	239.69
1160.291	239.86
1163.561	236.62
1166.831	236.9
1170.101	235.11
1173.37	234.73
1176.639	235.21
1179.907	233.54
1183.176	231.41
1186.444	231.55
1189.711	231.78
1192.979	231.34
1196.246	229.89
1199.513	231.4
1202.78	229.46
1206.046	229.34
1209.312	227.23
1212.578	227.24
1215.843	228.08
1219.108	227.88
1222.373	232.03
1225.638	233.18
1228.902	235.75
1232.166	235.45
1235.43	236.08
1238.693	239.71
1241.956	241
1245.219	244.15
1248.482	244.59
1251.744	245.09
1255.006	244.74
1258.268	238.75
1261.529	236.88
1264.79	236.76
1268.051	235.56
1271.312	233.12
1274.572	230.39
1277.832	228.58
1281.092	225.25
1284.351	223.79
1287.61	224.25
1290.869	220.27
1294.128	219.35
1297.386	219.44
1300.644	216.71
1303.902	218.07
1307.159	217.21
1310.416	217.15
1313.673	216.17
1316.93	217.98
1320.186	217.72
1323.442	217.45
1326.697	221.26
1329.953	222.08
1333.208	222.47
1336.463	225.17
1339.717	224.73
1342.972	228.03
1346.226	229.44
1349.479	230.53
1352.733	231.32
1355.986	232.14
1359.238	231.87
1362.491	233.15
1365.743	234.85
1368.995	234.68
1372.247	232.55
1375.498	232.8
1378.749	232.75
1382	229.5
1385.251	229.99
1388.501	228.12
1391.751	228.05
1395	227.46
1398.25	225.05
1401.499	222.12
1404.748	221.76
1407.996	219.46
1411.244	218.09
1414.492	216.67
1417.74	213.88
1420.987	210.57
1424.234	210
1427.481	206.99
1430.728	206.46
1433.974	204.14
1437.22	203.15
1440.465	202.18
1443.711	200.27
1446.956	198.81
1450.201	196.62
1453.445	195.74
1456.689	194.55
1459.933	191.13
1463.177	189.66
1466.42	187.47
1469.663	185.91
1472.906	184.31
1476.148	179.79
1479.391	178.61
1482.633	177.42
1485.874	175.1
1489.115	174.15
1492.356	172.46
1495.597	172.6
1498.838	171.16
1502.078	169.99
1505.318	169.43
1508.557	169.89
1511.797	170.2
1515.036	168.68
1518.274	167.77
1521.513	167.32
1524.751	167.23
1527.989	167.11
1531.227	166.47
1534.464	166.55
1537.701	166.81
1540.938	166.31
1544.174	164.52
1547.41	164.67
1550.646	164.35
1553.882	164.82
1557.117	163
1560.352	162.12
1563.587	162.1
1566.821	161.04
1570.055	160.35
1573.289	157.59
1576.523	158.15
1579.756	157.34
1582.989	156.27
1586.222	156.32
1589.454	155.75
1592.686	156.94
1595.918	156.53
1599.15	155.81
1602.381	156.56
1605.612	156.06
1608.843	157.22
1612.073	156.67
1615.303	157.54
1618.533	158.37
1621.762	158.1
1624.992	158.33
1628.221	157.81
1631.449	157.27
1634.678	157.4
1637.906	158.52
1641.134	158.12
1644.361	157.98
1647.588	158.53
1650.815	157.8
1654.042	157.26
1657.269	157.91
1660.495	157.87
1663.72	157.92
1666.946	159.06
1670.171	159.63
1673.396	158.36
1676.621	158.69
1679.845	159.14
1683.069	159.59
1686.293	160.35
1689.517	160.76
1692.74	160.62
1695.963	161.18
1699.185	162.2
1702.408	162
1705.63	162.1
1708.852	163
1712.073	163.21
1715.294	163.46
1718.515	163.84
1721.736	163.44
1724.956	164.07
1728.176	164.37
1731.396	165.29
1734.616	164.05
1737.835	164.61
1741.054	163.8
1744.272	163.56
1747.491	165.13
1750.709	165.44
1753.927	164.94
1757.144	164.57
1760.361	164.61
1763.578	165.08
1766.795	164.44
1770.011	166.64
1773.227	166.09
1776.443	167.49
1779.658	168.32
1782.874	167.82
1786.089	167.94
1789.303	168.36
1792.518	170.56
1795.732	170.68
1798.945	171.75
1802.159	172.05
1805.372	171.73
1808.585	174.59
1811.797	175.59
1815.01	176.14
1818.222	177.35
1821.434	179.55
1824.645	179.78
1827.856	182.12
1831.067	183.11
1834.278	183.12
1837.488	184.67
1840.698	185.42
1843.908	184.03
1847.117	184.59
1850.326	185.4
1853.535	183.93
1856.744	184.98
1859.952	184.95
1863.16	183.29
1866.368	181.84
1869.575	181.69
1872.782	178.66
1875.989	177.24
1879.196	176.24
1882.402	173.89
1885.608	173.26
1888.814	172.85
1892.019	171.56
1895.224	170.13
1898.429	169.05
1901.634	169.05
1904.838	169.53
1908.042	170.23
1911.246	170.9
1914.449	171.11
1917.652	171.79
1920.855	171.08
1924.058	171.3
1927.26	170.24
1930.462	170.58
1933.664	172.82
1936.865	171.25
1940.066	170.81
1943.267	169.41
1946.467	169.84
1949.668	170.76
1952.868	172.43
1956.067	173.33
1959.267	173.19
1962.466	174
1965.665	173.27
1968.863	173.71
1972.061	177.19
1975.259	178.62
1978.457	180
1981.654	181.47
1984.852	182.13
1988.048	181.91
1991.245	183.61
1994.441	186.08
1997.637	187.66
2000.833	191.53
2004.028	193.71
2007.223	193.82
2010.418	195.59
2013.613	199.82
2016.807	201.58
2020.001	203.79
2023.194	206.53
2026.388	210.9
2029.581	216.01
2032.774	217.32
2035.966	221.76
2039.158	222.41
2042.35	226.55
2045.542	228.18
2048.733	231.88
2051.924	235.18
2055.115	238.54
2058.306	239.53
2061.496	241.89
2064.686	241.89
2067.875	247.04
2071.065	247.9
2074.254	245.77
2077.442	250.59
2080.631	252.02
2083.819	253.92
2087.007	254.94
2090.195	258.36
2093.382	260.19
2096.569	258.84
2099.756	262.26
2102.942	262.15
2106.128	264.51
2109.314	272.1
2112.5	270.46
2115.685	274.93
2118.87	275.45
2122.055	280.38
2125.239	281.01
2128.424	284.84
2131.608	287.56
2134.791	292.55
2137.974	293.96
2141.157	294.36
2144.34	294.54
2147.523	299.78
2150.705	298.92
2153.887	302.27
2157.068	301.82
2160.25	300.24
2163.431	302.13
2166.611	305.84
2169.792	310.35
2172.972	313.48
2176.152	316.32
2179.331	319.89
2182.511	323.43
2185.69	327.48
2188.868	333.69
2192.047	334.23
2195.225	344.37
2198.403	351
2201.58	357.1
2204.758	364.42
2207.935	370.14
2211.111	378.87
2214.288	382.29
2217.464	383.65
2220.64	388.96
2223.815	393.02
2226.991	409.77
2230.166	409.03
2233.34	416.4
2236.515	422.03
2239.689	422.91
2242.863	427.45
2246.036	436.43
2249.209	432.44
2252.382	440.28
2255.555	453.04
2258.727	455.06
2261.9	458.34
2265.071	463.09
2268.243	471.26
2271.414	477.86
2274.585	485.15
2277.756	488.8
2280.926	493.16
2284.096	507.39
2287.266	516.98
2290.436	521.19
2293.605	531.83
2296.774	548.18
2299.942	564.31
2303.111	566.02
2306.279	578.72
2309.447	588.37
2312.614	604.71
2315.781	619.04
2318.948	646.26
2322.115	637.6
2325.281	671.64
2328.447	661.21
2331.613	686.21
2334.779	680.79
2337.944	708.85
2341.109	713.61
2344.274	734.32
2347.438	758.22
2350.602	761.38
2353.766	782.69
2356.929	796.14
2360.092	790.23
2363.255	845.05
2366.418	841.84
2369.58	858.92
2372.742	914.51
2375.904	937.89
2379.066	931.2
2382.227	911.36
2385.388	988.81
2388.548	991.78
2391.709	1001.25
2394.869	1111.55
2398.029	1066.23
2401.188	1096.71
2404.347	1086.45
2407.506	1065.04
2410.665	1095.17
2413.823	1159.3
2416.981	1230.4
2420.139	1189.01
2423.296	1173.53
2426.453	1234
2429.61	1190.38
2432.767	1239.89
2435.923	1224.89
2439.079	1343.01
2442.235	1367.64
2445.391	1356.7
2448.546	1342.19
2451.701	1310.31
2454.855	1306.38
2458.009	1393.73
2461.163	1442.64
2464.317	1489.44
2467.471	1528.23
2470.624	1527.33
2473.777	1486
2476.929	1439.62
2480.082	1398.02
2483.234	1390.07
2486.385	1457.28
2489.537	1464.75
2492.688	1510.83
2495.839	1468.03
2498.989	1440.85
2502.14	1447.42
2505.29	1465.68
2508.439	1491.81
2511.589	1491.75
2514.738	1627.83
2517.887	1588.46
2521.035	1673.75
2524.183	1683.34
2527.331	1692.52
2530.479	1682.44
2533.627	1693.94
