Data from N_3_DEC_ON_6N_Splice17_14-25-31-297.txt Node
Date: Sat Mar 07 14:25:31 EST 2020
User: sa697716
Spectrometer: NQ5500242
Trigger mode: 0
Integration Time (sec): 1.450000E-1
Scans to average: 20
Nonlinearity correction enabled: false
Boxcar width: 5
Storing dark spectrum: false
XAxis mode: Wavelengths
Number of Pixels in Spectrum: 512
>>>>>Begin Spectral Data<<<<<
187.83	95.41
188.298	110.95
188.766	75.36
189.233	57.4
189.701	40.49
190.169	58.84
190.636	22.63
191.104	-55.43
191.571	-186.71
192.039	-134.17
192.506	-267.15
192.974	104.22
193.441	216.1
193.908	32.16
194.375	-8.95
194.842	-96.09
195.31	-64.07
195.777	-414.07
196.244	30.6
196.711	64.03
197.177	68.8
197.644	69.64
198.111	69.43
198.578	69.27
199.045	69.84
199.511	69.53
199.978	69.51
200.445	69.56
200.911	69.77
201.378	70
201.844	69.82
202.31	69.33
202.777	69.45
203.243	69.46
203.709	69.16
204.176	68.5
204.642	68.31
205.108	68.08
205.574	67.41
206.04	66.91
206.506	66.39
206.972	65.98
207.438	65.36
207.903	64.15
208.369	62.64
208.835	61.44
209.301	60.09
209.766	58.59
210.232	56.91
210.697	55.36
211.163	53.79
211.628	52.18
212.094	50.67
212.559	49.43
213.024	48.14
213.49	47.07
213.955	45.85
214.42	44.71
214.885	43.21
215.35	41.58
215.815	39.41
216.28	36.67
216.745	33.83
217.21	30.74
217.675	27.93
218.14	25.51
218.604	23.41
219.069	21.6
219.534	20.08
219.998	18.83
220.463	17.78
220.927	16.83
221.392	16.11
221.856	15.51
222.32	15.02
222.785	14.58
223.249	14.18
223.713	13.83
224.177	13.53
224.642	13.25
225.106	12.97
225.57	12.7
226.034	12.48
226.497	12.28
226.961	12.05
227.425	11.84
227.889	11.66
228.353	11.47
228.816	11.28
229.28	11.09
229.744	10.93
230.207	10.76
230.671	10.61
231.134	10.47
231.597	10.33
232.061	10.2
232.524	10.07
232.987	9.93
233.45	9.83
233.914	9.71
234.377	9.6
234.84	9.49
235.303	9.42
235.766	9.32
236.229	9.22
236.691	9.14
237.154	9.07
237.617	8.99
238.08	8.93
238.542	8.85
239.005	8.8
239.468	8.72
239.93	8.67
240.393	8.58
240.855	8.52
241.317	8.45
241.78	8.38
242.242	8.29
242.704	8.23
243.166	8.17
243.629	8.1
244.091	8.03
244.553	7.98
245.015	7.91
245.477	7.85
245.939	7.8
246.4	7.75
246.862	7.7
247.324	7.66
247.786	7.6
248.247	7.54
248.709	7.48
249.17	7.42
249.632	7.37
250.093	7.33
250.555	7.28
251.016	7.25
251.477	7.2
251.939	7.15
252.4	7.11
252.861	7.07
253.322	7.04
253.783	7.02
254.244	7
254.705	6.97
255.166	6.94
255.627	6.91
256.088	6.88
256.549	6.86
257.009	6.83
257.47	6.79
257.931	6.75
258.391	6.71
258.852	6.67
259.312	6.64
259.773	6.6
260.233	6.57
260.694	6.53
261.154	6.49
261.614	6.47
262.074	6.43
262.534	6.4
262.994	6.38
263.455	6.36
263.915	6.35
264.374	6.32
264.834	6.31
265.294	6.29
265.754	6.28
266.214	6.26
266.673	6.25
267.133	6.24
267.593	6.23
268.052	6.22
268.512	6.2
268.971	6.19
269.431	6.18
269.89	6.17
270.349	6.16
270.809	6.14
271.268	6.13
271.727	6.12
272.186	6.11
272.645	6.11
273.104	6.1
273.563	6.1
274.022	6.09
274.481	6.09
274.94	6.08
275.399	6.07
275.857	6.07
276.316	6.07
276.775	6.06
277.233	6.06
277.692	6.05
278.15	6.05
278.609	6.04
279.067	6.04
279.525	6.03
279.984	6.03
280.442	6.03
280.9	6.03
281.358	6.03
281.816	6.03
282.274	6.03
282.732	6.02
283.19	6.02
283.648	6.01
284.106	6
284.564	6
285.021	6
285.479	5.99
285.937	5.99
286.394	5.99
286.852	5.98
287.309	5.98
287.767	5.98
288.224	5.97
288.682	5.96
289.139	5.95
289.596	5.94
290.053	5.92
290.511	5.91
290.968	5.89
291.425	5.87
291.882	5.85
292.339	5.84
292.796	5.82
293.252	5.81
293.709	5.8
294.166	5.79
294.623	5.78
295.079	5.78
295.536	5.77
295.992	5.77
296.449	5.76
296.905	5.76
297.362	5.74
297.818	5.73
298.274	5.74
298.731	5.73
299.187	5.73
299.643	5.73
300.099	5.72
300.555	5.71
301.011	5.71
301.467	5.71
301.923	5.71
302.379	5.71
302.835	5.72
303.291	5.71
303.746	5.7
304.202	5.7
304.658	5.69
305.113	5.69
305.569	5.7
306.024	5.7
306.479	5.71
306.935	5.71
307.39	5.71
307.845	5.71
308.301	5.72
308.756	5.72
309.211	5.73
309.666	5.74
310.121	5.74
310.576	5.74
311.031	5.74
311.486	5.74
311.94	5.75
312.395	5.75
312.85	5.75
313.305	5.76
313.759	5.76
314.214	5.76
314.668	5.75
315.123	5.76
315.577	5.76
316.032	5.77
316.486	5.76
316.94	5.75
317.394	5.74
317.849	5.73
318.303	5.72
318.757	5.71
319.211	5.69
319.665	5.68
320.119	5.66
320.572	5.64
321.026	5.63
321.48	5.62
321.934	5.61
322.387	5.6
322.841	5.6
323.295	5.6
323.748	5.6
324.202	5.6
324.655	5.6
325.108	5.61
325.562	5.6
326.015	5.6
326.468	5.61
326.921	5.61
327.374	5.61
327.827	5.6
328.28	5.6
328.733	5.6
329.186	5.59
329.639	5.6
330.092	5.6
330.545	5.6
330.997	5.6
331.45	5.59
331.903	5.6
332.355	5.6
332.808	5.62
333.26	5.62
333.713	5.62
334.165	5.62
334.617	5.62
335.069	5.62
335.522	5.63
335.974	5.64
336.426	5.65
336.878	5.65
337.33	5.66
337.782	5.66
338.234	5.66
338.686	5.66
339.137	5.67
339.589	5.67
340.041	5.66
340.493	5.65
340.944	5.63
341.396	5.61
341.847	5.59
342.299	5.57
342.75	5.55
343.201	5.54
343.653	5.53
344.104	5.5
344.555	5.49
345.006	5.48
345.457	5.47
345.908	5.46
346.359	5.46
346.81	5.45
347.261	5.44
347.712	5.43
348.163	5.42
348.613	5.42
349.064	5.41
349.515	5.41
349.965	5.41
350.416	5.4
350.866	5.4
351.317	5.39
351.767	5.4
352.217	5.4
352.668	5.41
353.118	5.42
353.568	5.43
354.018	5.44
354.468	5.45
354.918	5.46
355.368	5.47
355.818	5.48
356.268	5.48
356.718	5.49
357.168	5.49
357.617	5.49
358.067	5.49
358.517	5.5
358.966	5.5
359.416	5.5
359.865	5.51
360.315	5.52
360.764	5.52
361.213	5.52
361.663	5.52
362.112	5.54
362.561	5.55
363.01	5.54
363.459	5.53
363.908	5.53
364.357	5.54
364.806	5.54
365.255	5.55
365.703	5.56
366.152	5.58
366.601	5.59
367.05	5.61
367.498	5.61
367.947	5.64
368.395	5.68
368.844	5.71
369.292	5.73
369.74	5.76
370.189	5.78
370.637	5.8
371.085	5.83
371.533	5.86
371.981	5.87
372.429	5.91
372.877	5.95
373.325	5.97
373.773	6.01
374.221	6.04
374.669	6.08
375.116	6.11
375.564	6.15
376.012	6.2
376.459	6.25
376.907	6.31
377.354	6.36
377.801	6.42
378.249	6.48
378.696	6.54
379.143	6.6
379.591	6.67
380.038	6.75
380.485	6.82
380.932	6.89
381.379	6.96
381.826	7.03
382.273	7.1
382.72	7.17
383.166	7.24
383.613	7.32
384.06	7.38
384.506	7.45
384.953	7.52
385.4	7.59
385.846	7.67
386.292	7.75
386.739	7.82
387.185	7.89
387.631	7.97
388.078	8.04
388.524	8.1
388.97	8.17
389.416	8.25
389.862	8.31
390.308	8.38
390.754	8.43
391.2	8.48
391.645	8.54
392.091	8.6
392.537	8.67
392.983	8.73
393.428	8.8
393.874	8.85
394.319	8.89
394.765	8.93
395.21	8.97
395.655	9.01
396.101	9.07
396.546	9.1
396.991	9.14
397.436	9.17
397.881	9.21
398.326	9.25
398.771	9.28
399.216	9.33
399.661	9.38
400.106	9.41
400.551	9.43
400.995	9.43
401.44	9.43
401.885	9.43
402.329	9.44
402.774	9.43
403.218	9.45
403.663	9.45
404.107	9.45
404.551	9.45
404.995	9.45
405.44	9.45
405.884	9.45
406.328	9.45
406.772	9.45
407.216	9.45
407.66	9.46
408.104	9.44
408.547	9.43
408.991	9.42
409.435	9.41
409.879	9.41
410.322	9.41
410.766	9.41
411.209	9.42
411.653	9.44
412.096	9.45
412.54	9.44
412.983	9.44
413.426	9.47
413.869	9.47
414.312	9.49
414.756	9.5
415.199	9.51
415.642	9.52
416.085	9.53
416.527	9.51
416.97	9.48
417.413	9.47
417.856	9.43
418.298	9.4
418.741	9.38
419.184	9.37
419.626	9.36
420.069	9.34
420.511	9.33
420.953	9.33
421.396	9.32
421.838	9.33
422.28	9.32
422.722	9.36
423.164	9.36
423.606	9.37
424.048	9.36
424.49	9.35
424.932	9.34
425.374	9.31
425.816	9.28
426.258	9.24
426.699	9.2
427.141	9.18
427.582	9.16
428.024	9.15
428.465	9.15
428.907	9.14
429.348	9.11
429.789	9.1
430.231	9.11
430.672	9.13
431.113	9.14
431.554	9.19
431.995	9.2
432.436	9.21
432.877	9.22
433.318	9.23
433.759	9.25
434.2	9.27
434.64	9.28
435.081	9.28
435.522	9.3
435.962	9.33
436.403	9.35
436.843	9.38
437.284	9.39
437.724	9.39
438.164	9.38
438.604	9.4
439.045	9.4
439.485	9.41
439.925	9.43
440.365	9.45
440.805	9.46
441.245	9.46
441.685	9.48
442.125	9.52
442.564	9.55
443.004	9.59
443.444	9.62
443.883	9.67
444.323	9.7
444.762	9.74
445.202	9.78
445.641	9.83
446.081	9.88
446.52	9.91
446.959	9.97
447.398	10.04
447.837	10.07
448.276	10.11
448.716	10.17
449.154	10.24
449.593	10.28
450.032	10.29
450.471	10.32
450.91	10.33
451.349	10.36
451.787	10.36
452.226	10.35
452.664	10.36
453.103	10.35
453.541	10.34
453.98	10.34
454.418	10.34
454.856	10.34
455.295	10.32
455.733	10.3
456.171	10.28
456.609	10.27
457.047	10.25
457.485	10.23
457.923	10.23
458.361	10.21
458.798	10.19
459.236	10.16
459.674	10.15
460.111	10.15
460.549	10.16
460.987	10.16
461.424	10.16
461.862	10.16
462.299	10.15
462.736	10.13
463.173	10.13
463.611	10.13
464.048	10.12
464.485	10.11
464.922	10.11
465.359	10.11
465.796	10.09
466.233	10.1
466.67	10.1
467.106	10.12
467.543	10.14
467.98	10.15
468.416	10.15
468.853	10.18
469.29	10.19
469.726	10.2
470.162	10.2
470.599	10.21
471.035	10.22
471.471	10.23
471.907	10.24
472.344	10.23
472.78	10.25
473.216	10.24
473.652	10.25
474.088	10.24
474.523	10.24
474.959	10.24
475.395	10.23
475.831	10.24
476.266	10.24
476.702	10.23
477.138	10.24
477.573	10.25
478.008	10.26
478.444	10.25
478.879	10.26
479.314	10.25
479.75	10.25
480.185	10.24
480.62	10.24
481.055	10.23
481.49	10.22
481.925	10.22
482.36	10.21
482.795	10.21
483.229	10.21
483.664	10.21
484.099	10.22
484.534	10.23
484.968	10.25
485.403	10.26
485.837	10.28
486.271	10.32
486.706	10.34
487.14	10.36
487.574	10.39
488.009	10.43
488.443	10.47
488.877	10.51
489.311	10.56
489.745	10.61
490.179	10.67
490.613	10.73
491.046	10.79
491.48	10.85
491.914	10.92
492.348	11.01
492.781	11.09
493.215	11.17
493.648	11.27
494.082	11.37
494.515	11.46
494.948	11.55
495.382	11.65
495.815	11.76
496.248	11.87
496.681	11.99
497.114	12.11
497.547	12.22
497.98	12.35
498.413	12.47
498.846	12.59
499.279	12.71
499.711	12.86
500.144	13.01
500.577	13.16
501.009	13.31
501.442	13.46
501.874	13.62
502.306	13.78
502.739	13.96
503.171	14.14
503.603	14.32
504.036	14.51
504.468	14.68
504.9	14.86
505.332	15.05
505.764	15.24
506.196	15.45
506.627	15.66
507.059	15.87
507.491	16.07
507.923	16.28
508.354	16.52
508.786	16.75
509.217	16.99
509.649	17.23
510.08	17.48
510.512	17.72
510.943	17.96
511.374	18.2
511.805	18.46
512.237	18.71
512.668	18.96
513.099	19.18
513.53	19.42
513.961	19.68
514.391	19.92
514.822	20.16
515.253	20.39
515.684	20.63
516.114	20.86
516.545	21.09
516.975	21.34
517.406	21.56
517.836	21.79
518.267	22.04
518.697	22.24
519.127	22.46
519.558	22.68
519.988	22.91
520.418	23.11
520.848	23.32
521.278	23.52
521.708	23.81
522.138	24
522.567	24.2
522.997	24.39
523.427	24.57
523.857	24.75
524.286	24.89
524.716	25.04
525.145	25.21
525.575	25.36
526.004	25.51
526.433	25.54
526.863	25.69
527.292	25.83
527.721	25.95
528.15	26.09
528.579	26.19
529.008	26.32
529.437	26.43
529.866	26.53
530.295	26.64
530.724	26.71
531.152	26.8
531.581	26.87
532.01	26.93
532.438	27.01
532.867	27.07
533.295	27.14
533.723	27.2
534.152	27.26
534.58	27.32
535.008	27.35
535.436	27.41
535.865	27.45
536.293	27.49
536.721	27.53
537.149	27.56
537.576	27.57
538.004	27.61
538.432	27.64
538.86	27.66
539.287	27.65
539.715	27.68
540.143	27.69
540.57	27.71
540.998	27.72
541.425	27.74
541.852	27.77
542.28	27.8
542.707	27.81
543.134	27.82
543.561	27.85
543.988	27.89
544.415	27.91
544.842	27.94
545.269	27.97
545.696	28
546.123	28.03
546.549	28.05
546.976	28.09
547.403	28.13
547.829	28.15
548.256	28.18
548.682	28.21
549.108	28.24
549.535	28.27
549.961	28.28
550.387	28.29
550.813	28.29
551.24	28.3
551.666	28.31
552.092	28.32
552.518	28.34
552.943	28.32
553.369	28.33
553.795	28.32
554.221	28.32
554.646	28.32
555.072	28.31
555.498	28.3
555.923	28.28
556.349	28.24
556.774	28.21
557.199	28.17
557.625	28.15
558.05	28.11
558.475	28.07
558.9	28.04
559.325	28
559.75	27.97
560.175	27.92
560.6	27.86
561.025	27.81
561.449	27.75
561.874	27.68
562.299	27.59
562.723	27.53
563.148	27.44
563.572	27.33
563.997	27.23
564.421	27.12
564.846	27.04
565.27	26.93
565.694	26.83
566.118	26.72
566.542	26.6
566.966	26.49
567.39	26.37
567.814	26.26
568.238	26.15
568.662	26.04
569.086	25.91
569.509	25.81
569.933	25.7
570.357	25.59
570.78	25.47
571.204	25.38
571.627	25.29
572.05	25.19
572.474	25.09
572.897	25
573.32	24.91
573.743	24.84
574.166	24.75
574.589	24.66
575.012	24.58
575.435	24.51
575.858	24.43
576.281	24.35
576.704	24.28
577.126	24.21
577.549	24.15
577.972	24.09
578.394	24.01
578.817	23.94
579.239	23.89
579.661	23.83
580.084	23.77
580.506	23.71
580.928	23.67
581.35	23.61
581.772	23.55
582.194	23.49
582.616	23.45
583.038	23.41
583.46	23.36
583.882	23.3
584.303	23.25
584.725	23.21
585.147	23.17
585.568	23.11
585.99	23.08
586.411	23.03
586.833	22.99
587.254	22.93
587.675	22.88
588.096	22.84
588.518	22.8
588.939	22.77
589.36	22.72
589.781	22.68
590.202	22.64
590.623	22.6
591.043	22.57
591.464	22.54
591.885	22.5
592.305	22.47
592.726	22.46
593.147	22.42
593.567	22.38
593.987	22.36
594.408	22.33
594.828	22.31
595.248	22.28
595.669	22.25
596.089	22.22
596.509	22.2
596.929	22.17
597.349	22.12
597.769	22.1
598.189	22.07
598.608	22.03
599.028	22
599.448	21.96
599.867	21.92
600.287	21.9
600.706	21.86
601.126	21.83
601.545	21.79
601.965	21.75
602.384	21.7
602.803	21.65
603.222	21.6
603.641	21.54
604.061	21.5
604.48	21.43
604.898	21.37
605.317	21.32
605.736	21.26
606.155	21.19
606.574	21.14
606.992	21.08
607.411	21.01
607.829	20.92
608.248	20.87
608.666	20.82
609.085	20.76
609.503	20.71
609.921	20.63
610.339	20.57
610.758	20.52
611.176	20.46
611.594	20.4
612.012	20.33
612.43	20.29
612.847	20.23
613.265	20.16
613.683	20.1
614.101	20.03
614.518	19.98
614.936	19.91
615.353	19.85
615.771	19.79
616.188	19.73
616.606	19.7
617.023	19.67
617.44	19.63
617.857	19.59
618.274	19.52
618.691	19.47
619.108	19.43
619.525	19.4
619.942	19.36
620.359	19.33
620.776	19.3
621.192	19.28
621.609	19.25
622.026	19.21
622.442	19.19
622.859	19.17
623.275	19.16
623.691	19.14
624.108	19.12
624.524	19.1
624.94	19.08
625.356	19.07
625.772	19.04
626.188	19.03
626.604	19.03
627.02	19.01
627.436	19.01
627.852	19
628.268	18.98
628.683	18.98
629.099	18.97
629.514	18.96
629.93	18.93
630.345	18.91
630.761	18.87
631.176	18.83
631.591	18.79
632.007	18.72
632.422	18.67
632.837	18.62
633.252	18.55
633.667	18.47
634.082	18.39
634.497	18.32
634.911	18.24
635.326	18.15
635.741	18.05
636.155	17.95
636.57	17.86
636.984	17.75
637.399	17.62
637.813	17.49
638.228	17.36
638.642	17.21
639.056	17.05
639.47	16.92
639.884	16.77
640.298	16.62
640.712	16.49
641.126	16.34
641.54	16.18
641.954	16.04
642.368	15.91
642.781	15.77
643.195	15.65
643.609	15.52
644.022	15.38
644.436	15.27
644.849	15.15
645.262	15.03
645.676	14.92
646.089	14.83
646.502	14.73
646.915	14.64
647.328	14.56
647.741	14.47
648.154	14.41
648.567	14.34
648.98	14.26
649.393	14.2
649.805	14.16
650.218	14.1
650.631	14.05
651.043	14
651.456	13.96
651.868	13.91
652.28	13.88
652.693	13.83
653.105	13.8
653.517	13.75
653.929	13.7
654.341	13.64
654.753	13.57
655.165	13.51
655.577	13.44
655.989	13.36
656.401	13.27
656.813	13.19
657.224	13.09
657.636	12.98
658.047	12.88
658.459	12.77
658.87	12.67
659.282	12.56
659.693	12.44
660.104	12.32
660.515	12.21
660.926	12.1
661.338	11.98
661.749	11.87
662.159	11.75
662.57	11.65
662.981	11.54
663.392	11.42
663.803	11.32
664.213	11.2
664.624	11.1
665.035	11
665.445	10.9
665.855	10.82
666.266	10.74
666.676	10.68
667.086	10.59
667.497	10.53
667.907	10.49
668.317	10.44
668.727	10.4
669.137	10.37
669.547	10.33
669.956	10.3
670.366	10.27
670.776	10.24
671.186	10.21
671.595	10.19
672.005	10.16
672.414	10.15
672.824	10.14
673.233	10.14
673.642	10.14
674.052	10.14
674.461	10.14
674.87	10.15
675.279	10.17
675.688	10.19
676.097	10.22
676.506	10.26
676.915	10.3
677.323	10.34
677.732	10.38
678.141	10.44
678.549	10.51
678.958	10.61
679.366	10.7
679.775	10.81
680.183	10.93
680.592	11.07
681	11.23
681.408	11.4
681.816	11.6
682.224	11.82
682.632	12.06
683.04	12.31
683.448	12.57
683.856	12.86
684.264	13.16
684.671	13.49
685.079	13.83
685.487	14.21
685.894	14.6
686.302	14.99
686.709	15.4
687.116	15.84
687.524	16.29
687.931	16.75
688.338	17.23
688.745	17.71
689.152	18.19
689.559	18.7
689.966	19.2
690.373	19.71
690.78	20.22
691.187	20.73
691.593	21.24
692	21.74
692.407	22.23
692.813	22.73
693.22	23.2
693.626	23.68
694.032	24.15
694.439	24.6
694.845	25.06
695.251	25.49
695.657	25.91
696.063	26.32
696.469	26.76
696.875	27.16
697.281	27.55
697.687	27.95
698.093	28.32
698.498	28.68
698.904	29.05
699.31	29.39
699.715	29.74
700.12	30.07
700.526	30.39
700.931	30.69
701.337	30.97
701.742	31.25
702.147	31.53
702.552	31.83
702.957	32.1
703.362	32.35
703.767	32.58
704.172	32.81
704.577	33.04
704.981	33.28
705.386	33.48
705.791	33.71
706.195	33.93
706.6	34.14
707.004	34.3
707.408	34.49
707.813	34.69
708.217	34.87
708.621	35.06
709.025	35.24
709.43	35.38
709.834	35.57
710.237	35.71
710.641	35.85
711.045	35.98
711.449	36.15
711.853	36.32
712.256	36.45
712.66	36.6
713.064	36.74
713.467	36.88
713.87	37.03
714.274	37.16
714.677	37.32
715.08	37.46
715.484	37.6
715.887	37.74
716.29	37.83
716.693	37.94
717.096	38.05
717.499	38.19
717.901	38.29
718.304	38.4
718.707	38.53
719.109	38.63
719.512	38.73
719.915	38.83
720.317	38.91
720.719	38.98
721.122	39.1
721.524	39.2
721.926	39.26
722.328	39.34
722.731	39.4
723.133	39.49
723.535	39.55
723.937	39.61
724.338	39.66
724.74	39.73
725.142	39.87
725.544	39.91
725.945	39.97
726.347	40.02
726.748	40.06
727.15	40.1
727.551	40.12
727.952	40.17
728.354	40.24
728.755	40.29
729.156	40.33
729.557	40.33
729.958	40.36
730.359	40.39
730.76	40.43
731.161	40.49
731.562	40.55
731.962	40.58
732.363	40.6
732.763	40.61
733.164	40.64
733.564	40.66
733.965	40.68
734.365	40.73
734.766	40.75
735.166	40.77
735.566	40.79
735.966	40.81
736.366	40.83
736.766	40.87
737.166	40.89
737.566	40.91
737.966	40.92
738.365	40.92
738.765	40.95
739.165	40.97
739.564	40.98
739.964	40.99
740.363	40.98
740.763	40.98
741.162	40.98
741.561	41
741.96	40.98
742.36	41.01
742.759	41.04
743.158	41.02
743.557	41.03
743.955	41.03
744.354	41.06
744.753	41.1
745.152	41.15
745.55	41.18
745.949	41.21
746.348	41.26
746.746	41.28
747.144	41.31
747.543	41.32
747.941	41.34
748.339	41.35
748.737	41.35
749.136	41.34
749.534	41.32
749.932	41.32
750.33	41.31
750.727	41.32
751.125	41.32
751.523	41.3
751.921	41.31
752.318	41.32
752.716	41.31
753.113	41.31
753.511	41.33
753.908	41.35
754.305	41.36
754.703	41.34
755.1	41.33
755.497	41.31
755.894	41.29
756.291	41.28
756.688	41.23
757.085	41.25
757.482	41.25
757.878	41.24
758.275	41.2
758.672	41.17
759.068	41.19
759.465	41.18
759.861	41.18
760.258	41.2
760.654	41.2
761.05	41.22
761.447	41.19
761.843	41.18
762.239	41.14
762.635	41.14
763.031	41.16
763.427	41.15
763.822	41.14
764.218	41.16
764.614	41.15
765.01	41.13
765.405	41.12
765.801	41.1
766.196	41.1
766.592	41.12
766.987	41.12
767.382	41.11
767.778	41.09
768.173	41.08
768.568	41.05
768.963	41.05
769.358	41.08
769.753	41.08
770.148	41.1
770.542	41.12
770.937	41.12
771.332	41.15
771.726	41.16
772.121	41.17
772.515	41.19
772.91	41.21
773.304	41.21
773.699	41.18
774.093	41.17
774.487	41.17
774.881	41.16
775.275	41.19
775.669	41.17
776.063	41.16
776.457	41.17
776.851	41.15
777.245	41.15
777.638	41.14
778.032	41.17
778.425	41.2
778.819	41.21
779.212	41.22
779.606	41.22
779.999	41.2
780.392	41.21
780.786	41.2
781.179	41.2
781.572	41.21
781.965	41.23
782.358	41.24
782.751	41.24
783.143	41.26
783.536	41.26
783.929	41.25
784.322	41.29
784.714	41.31
785.107	41.33
785.499	41.36
785.891	41.37
786.284	41.37
786.676	41.36
787.068	41.36
787.46	41.35
787.852	41.35
788.245	41.37
788.636	41.35
789.028	41.38
789.42	41.35
789.812	41.34
790.204	41.33
790.595	41.35
790.987	41.38
791.378	41.41
791.77	41.44
792.161	41.46
792.553	41.47
792.944	41.48
793.335	41.49
793.726	41.53
794.117	41.53
794.508	41.52
794.899	41.55
795.29	41.56
795.681	41.54
796.072	41.53
796.463	41.55
796.853	41.55
797.244	41.56
797.634	41.55
798.025	41.57
798.415	41.57
798.806	41.6
799.196	41.61
799.586	41.62
799.976	41.65
800.366	41.67
800.756	41.69
801.146	41.69
801.536	41.72
801.926	41.73
802.316	41.73
802.706	41.75
803.095	41.75
803.485	41.72
803.874	41.71
804.264	41.73
804.653	41.75
805.043	41.74
805.432	41.76
805.821	41.76
806.21	41.8
806.599	41.81
806.988	41.81
807.377	41.84
807.766	41.88
808.155	41.91
808.544	41.89
808.933	41.89
809.321	41.9
809.71	41.9
810.098	41.9
810.487	41.89
810.875	41.9
811.264	41.93
811.652	41.94
812.04	41.93
812.428	41.94
812.816	41.98
813.204	41.97
813.592	41.96
813.98	41.98
814.368	42
814.756	42.01
815.144	41.98
815.531	41.98
815.919	41.98
816.306	41.99
816.694	41.98
817.081	41.98
817.469	42.01
817.856	42.03
818.243	42.02
818.63	42.01
819.017	42.02
819.404	42.05
819.791	42.05
820.178	42.04
820.565	42.03
820.952	42.03
821.339	42.01
821.725	42.01
822.112	42.01
822.498	42.01
822.885	42.01
823.271	42
823.657	41.94
824.044	41.93
824.43	41.95
824.816	41.96
825.202	41.93
825.588	41.92
825.974	41.89
826.36	41.89
826.746	41.87
827.132	41.87
827.517	41.85
827.903	41.89
828.289	41.89
828.674	41.86
829.06	41.82
829.445	41.81
829.83	41.81
830.216	41.8
830.601	41.79
830.986	41.79
831.371	41.78
831.756	41.78
832.141	41.73
832.526	41.72
832.911	41.71
833.295	41.72
833.68	41.72
834.065	41.71
834.449	41.71
834.834	41.67
835.218	41.65
835.603	41.62
835.987	41.6
836.371	41.6
836.755	41.57
837.139	41.54
837.524	41.54
837.908	41.54
838.291	41.54
838.675	41.51
839.059	41.51
839.443	41.52
839.827	41.51
840.21	41.51
840.594	41.51
840.977	41.52
841.361	41.52
841.744	41.46
842.127	41.44
842.511	41.42
842.894	41.41
843.277	41.4
843.66	41.35
844.043	41.35
844.426	41.34
844.809	41.33
845.191	41.32
845.574	41.32
845.957	41.33
846.339	41.34
846.722	41.33
847.104	41.35
847.487	41.35
847.869	41.38
848.252	41.38
848.634	41.37
849.016	41.39
849.398	41.41
849.78	41.42
850.162	41.44
850.544	41.43
850.926	41.44
851.307	41.44
851.689	41.46
852.071	41.47
852.452	41.45
852.834	41.47
853.215	41.46
853.597	41.44
853.978	41.43
854.359	41.45
854.741	41.46
855.122	41.46
855.503	41.47
855.884	41.46
856.265	41.47
856.646	41.48
857.026	41.49
857.407	41.5
857.788	41.5
858.169	41.52
858.549	41.52
858.93	41.52
859.31	41.53
859.69	41.52
860.071	41.54
860.451	41.54
860.831	41.57
861.211	41.54
861.591	41.55
861.971	41.55
862.351	41.56
862.731	41.56
863.111	41.56
863.491	41.56
863.87	41.56
864.25	41.55
864.629	41.55
865.009	41.53
865.388	41.54
865.768	41.53
866.147	41.54
866.526	41.53
866.905	41.53
867.284	41.54
867.663	41.55
868.042	41.54
868.421	41.55
868.8	41.56
869.179	41.56
869.558	41.55
869.936	41.56
870.315	41.55
870.693	41.55
871.072	41.54
871.45	41.53
871.828	41.54
872.207	41.55
872.585	41.53
872.963	41.52
873.341	41.54
873.719	41.54
874.097	41.53
874.475	41.54
874.853	41.54
875.23	41.57
875.608	41.57
875.986	41.58
876.363	41.56
876.741	41.59
877.118	41.6
877.495	41.6
877.873	41.61
878.25	41.63
878.627	41.63
879.004	41.62
879.381	41.6
879.758	41.58
880.135	41.59
880.512	41.58
880.889	41.57
881.265	41.55
881.642	41.54
882.019	41.55
882.395	41.54
882.772	41.54
883.148	41.53
883.524	41.52
883.901	41.52
884.277	41.46
884.653	41.43
885.029	41.42
885.405	41.42
885.781	41.41
886.157	41.41
886.532	41.4
886.908	41.38
887.284	41.38
887.659	41.35
888.035	41.33
888.411	41.33
888.786	41.34
889.161	41.34
889.537	41.32
889.912	41.31
890.287	41.27
890.662	41.24
891.037	41.25
891.412	41.24
891.787	41.25
892.162	41.24
892.536	41.23
892.911	41.21
893.286	41.18
893.66	41.19
894.035	41.18
894.409	41.19
894.784	41.2
895.158	41.17
895.532	41.16
895.906	41.15
896.281	41.13
896.655	41.13
897.029	41.14
897.402	41.16
897.776	41.15
898.15	41.13
898.524	41.13
898.898	41.12
899.271	41.14
899.645	41.16
900.018	41.19
900.392	41.2
900.765	41.22
901.138	41.21
901.511	41.21
901.884	41.22
902.258	41.26
902.631	41.27
903.003	41.28
903.376	41.28
903.749	41.27
904.122	41.26
904.495	41.29
904.867	41.3
905.24	41.34
905.612	41.36
905.985	41.36
906.357	41.34
906.729	41.36
907.102	41.37
907.474	41.38
907.846	41.41
908.218	41.41
908.59	41.45
908.962	41.46
909.334	41.46
909.705	41.45
910.077	41.48
910.449	41.49
910.82	41.47
911.192	41.46
911.563	41.44
911.935	41.42
912.306	41.45
912.677	41.44
913.048	41.44
913.419	41.41
913.79	41.42
914.161	41.39
914.532	41.39
914.903	41.41
915.274	41.41
915.645	41.43
916.015	41.45
916.386	41.43
916.756	41.4
917.127	41.43
917.497	41.46
917.868	41.48
918.238	41.49
918.608	41.53
918.978	41.54
919.348	41.56
919.718	41.55
920.088	41.55
920.458	41.56
920.828	41.58
921.198	41.54
921.567	41.53
921.937	41.53
922.306	41.54
922.676	41.5
923.045	41.5
923.415	41.48
923.784	41.5
924.153	41.5
924.522	41.52
924.891	41.51
925.26	41.53
925.629	41.55
925.998	41.55
926.367	41.55
926.736	41.56
927.104	41.58
927.473	41.59
927.842	41.57
928.21	41.61
928.578	41.57
928.947	41.59
929.315	41.55
929.683	41.55
930.051	41.53
930.42	41.52
930.788	41.51
931.156	41.47
931.523	41.45
931.891	41.49
932.259	41.43
932.627	41.42
932.994	41.39
933.362	41.37
933.729	41.33
934.097	41.33
934.464	41.32
934.831	41.31
935.199	41.35
935.566	41.34
935.933	41.34
936.3	41.39
936.667	41.38
937.034	41.43
937.401	41.49
937.767	41.53
938.134	41.57
938.501	41.61
938.867	41.71
939.234	41.72
939.6	41.79
939.967	41.8
940.333	41.81
940.699	41.87
941.065	41.88
941.431	41.88
941.798	41.93
942.163	41.98
942.529	42
942.895	42.01
943.261	42.02
943.627	42.02
943.992	42.04
944.358	42.08
944.723	42.1
945.089	42.11
945.454	42.14
945.82	42.14
946.185	42.14
946.55	42.15
946.915	42.12
947.28	42.12
947.645	42.08
948.01	42.06
948.375	42.02
948.74	42.03
949.104	42
949.469	41.99
949.834	41.96
950.198	41.93
950.562	41.84
950.927	41.81
951.291	41.73
951.655	41.69
952.02	41.69
952.384	41.68
952.748	41.59
953.112	41.57
953.476	41.52
953.839	41.46
954.203	41.43
954.567	41.41
954.931	41.39
955.294	41.38
955.658	41.44
956.021	41.38
956.385	41.31
956.748	41.3
957.111	41.25
957.474	41.22
957.837	41.22
958.2	41.16
958.563	41.17
958.926	41.15
959.289	41.15
959.652	41.09
960.015	41.07
960.377	41.07
960.74	41.04
961.102	41.09
961.465	41.12
961.827	41.1
962.189	41.13
962.552	41.12
962.914	41.09
963.276	41.13
963.638	41.14
964	41.11
964.362	41.12
964.724	41.12
965.085	41.07
965.447	41.05
965.809	41.03
966.17	41.04
966.532	41
966.893	41.03
967.255	41
967.616	41
967.977	40.97
968.338	40.98
968.699	41.01
969.061	40.99
969.421	40.98
969.782	41.02
970.143	41
970.504	40.97
970.865	40.96
971.225	40.96
971.586	40.94
971.946	40.97
972.307	40.97
972.667	40.95
973.027	41.04
973.388	41.03
973.748	41.03
974.108	41.07
974.468	41.14
974.828	41.16
975.188	41.11
975.548	41.12
975.907	41.14
976.267	41.16
976.627	41.14
976.986	41.03
977.346	40.97
977.705	40.98
978.064	40.95
978.424	40.94
978.783	40.92
979.142	40.97
979.501	40.98
979.86	41.02
980.219	41.04
980.578	41.12
980.937	41.2
981.296	41.31
981.654	41.33
982.013	41.4
982.371	41.45
982.73	41.5
983.088	41.53
983.447	41.52
983.805	41.54
984.163	41.5
984.521	41.51
984.879	41.52
985.237	41.55
985.595	41.63
985.953	41.59
986.311	41.57
986.669	41.56
987.026	41.54
987.384	41.58
987.741	41.62
988.099	41.74
988.456	41.71
988.814	41.72
989.171	41.74
989.528	41.72
989.885	41.77
990.242	41.87
990.599	41.92
990.956	42.01
991.313	42.09
991.67	42.09
992.027	42.11
992.383	42.24
992.74	42.24
993.096	42.16
993.453	42.11
993.809	42.15
994.165	42.15
994.522	42.07
994.878	42.1
995.234	42.09
995.59	42.07
995.946	42.05
996.302	42.04
996.658	42.19
997.013	42.26
997.369	42.31
997.725	42.27
998.08	42.34
998.436	42.52
998.791	42.5
999.147	42.55
999.502	42.61
999.857	42.7
1000.212	42.69
1000.567	42.72
1000.922	42.8
1001.277	42.84
1001.632	42.82
1001.987	42.79
1002.342	42.71
1002.696	42.84
1003.051	42.94
1003.406	43.04
1003.76	42.95
1004.114	42.99
1004.469	43.04
1004.823	43.35
1005.177	43.41
1005.531	43.56
1005.885	43.64
1006.239	43.65
1006.593	43.61
1006.947	43.51
1007.301	43.55
1007.655	43.66
1008.008	43.78
1008.362	43.92
1008.715	43.62
1009.069	43.82
1009.422	43.81
1009.776	43.84
1010.129	44
1010.482	44.1
1010.835	44.23
1011.188	44.4
1011.541	44.6
1011.894	44.76
1012.247	44.57
1012.6	44.82
1012.952	44.83
1013.305	45.06
1013.657	45.17
1014.01	45.39
1014.362	45.44
1014.715	45.66
1015.067	45.59
1015.419	45.78
1015.771	45.57
1016.123	45.62
1016.475	45.61
1016.827	45.73
1017.179	45.63
1017.531	45.62
1017.883	45.41
1018.234	45.42
1018.586	45.4
1018.938	45.54
1019.289	45.28
1019.64	45.67
1019.992	45.83
1020.343	45.87
1020.694	45.79
1021.045	45.79
1021.396	45.96
1021.747	46.29
1022.098	46.72
1022.449	46.89
1022.8	47.09
1023.151	47.23
1023.501	47.41
1023.852	47.56
1024.202	47.6
1024.553	47.62
1024.903	47.97
1025.253	48.18
1025.604	48.25
1025.954	47.85
1026.304	48.03
1026.654	47.94
1027.004	48.06
1027.354	48.04
1027.703	47.97
1028.053	48.22
1028.403	48.49
1028.753	48.46
1029.102	48.63
1029.452	48.8
1029.801	49.31
1030.15	49.15
1030.499	49.21
897.758	954.79
901.051	962.43
904.343	962.49
907.636	978.4
910.928	951.37
914.22	949.29
917.511	935.79
920.803	895.11
924.094	892.93
927.384	874.42
930.675	839.1
933.965	834.83
937.255	783.51
940.544	751.88
943.834	720.08
947.123	713.95
950.411	674.28
953.7	662.34
956.988	626.61
960.276	600.64
963.563	592.21
966.851	567.86
970.138	565.11
973.424	548.54
976.711	549.61
979.997	521.08
983.283	517.84
986.568	506.59
989.853	492.56
993.138	483.55
996.423	466.27
999.708	452.71
1002.992	449.51
1006.275	430.56
1009.559	427.52
1012.842	412.3
1016.125	402.47
1019.408	394.04
1022.69	391.28
1025.972	382.09
1029.254	372.59
1032.536	365.81
1035.817	360.37
1039.098	355.1
1042.379	348.11
1045.659	344.06
1048.939	336.75
1052.219	329.05
1055.498	326.08
1058.778	317.17
1062.057	311.24
1065.335	308.75
1068.614	304.89
1071.892	300.41
1075.17	292.56
1078.447	286.06
1081.724	283.84
1085.001	281.36
1088.278	276.88
1091.554	272.05
1094.83	272.62
1098.106	269.98
1101.382	267.27
1104.657	265.17
1107.932	260.74
1111.206	262.19
1114.481	256.36
1117.755	254.92
1121.029	252.62
1124.302	251.58
1127.575	247.63
1130.848	244.25
1134.121	242.67
1137.393	241.28
1140.665	237.47
1143.937	235.51
1147.208	234.08
1150.48	233.77
1153.75	229.39
1157.021	226.63
1160.291	226.98
1163.561	223.27
1166.831	223.16
1170.101	221.07
1173.37	221.24
1176.639	221.33
1179.907	220.05
1183.176	216.94
1186.444	216.46
1189.711	216.6
1192.979	216.34
1196.246	214.79
1199.513	216.15
1202.78	214.59
1206.046	214.05
1209.312	212.09
1212.578	212.28
1215.843	213.55
1219.108	212.55
1222.373	216.22
1225.638	217.4
1228.902	219.95
1232.166	220.53
1235.43	221.62
1238.693	225.01
1241.956	226.84
1245.219	229.96
1248.482	230.22
1251.744	230.14
1255.006	231.04
1258.268	226.32
1261.529	224.69
1264.79	224.14
1268.051	221.4
1271.312	219.2
1274.572	216.78
1277.832	214.78
1281.092	211.37
1284.351	209.77
1287.61	210.05
1290.869	207.26
1294.128	206.07
1297.386	205.9
1300.644	203.41
1303.902	205.15
1307.159	204.23
1310.416	203.46
1313.673	202.55
1316.93	204.86
1320.186	204.11
1323.442	204.53
1326.697	207.19
1329.953	208.31
1333.208	208.56
1336.463	211.36
1339.717	211.17
1342.972	213.77
1346.226	215.58
1349.479	216.76
1352.733	216.74
1355.986	219.05
1359.238	218.28
1362.491	218.73
1365.743	220.79
1368.995	221.99
1372.247	220.71
1375.498	220.99
1378.749	220.96
1382	219.64
1385.251	220.1
1388.501	219.23
1391.751	218.27
1395	217.77
1398.25	216.34
1401.499	214.07
1404.748	212.86
1407.996	210.51
1411.244	209.74
1414.492	208.45
1417.74	205.33
1420.987	203.17
1424.234	202.03
1427.481	200.72
1430.728	200.5
1433.974	198.44
1437.22	196.6
1440.465	195.85
1443.711	193.93
1446.956	192.22
1450.201	190.83
1453.445	189.88
1456.689	188.05
1459.933	185.11
1463.177	183.4
1466.42	181.03
1469.663	178.96
1472.906	177.8
1476.148	173.15
1479.391	171.8
1482.633	170.67
1485.874	168.05
1489.115	166.41
1492.356	164.53
1495.597	164.37
1498.838	162
1502.078	160.92
1505.318	160.48
1508.557	160.05
1511.797	160.45
1515.036	158.23
1518.274	158.29
1521.513	157.14
1524.751	156.66
1527.989	156.81
1531.227	156.13
1534.464	156.19
1537.701	155.96
1540.938	155.36
1544.174	153.82
1547.41	154.02
1550.646	153.86
1553.882	152.85
1557.117	151.71
1560.352	150.87
1563.587	150.57
1566.821	149.66
1570.055	148.88
1573.289	146.96
1576.523	147.65
1579.756	146.6
1582.989	145.8
1586.222	146
1589.454	145.8
1592.686	146.42
1595.918	146.21
1599.15	145.45
1602.381	145.87
1605.612	145.54
1608.843	145.97
1612.073	145.26
1615.303	146.2
1618.533	146.11
1621.762	145.96
1624.992	146.15
1628.221	145.87
1631.449	145.51
1634.678	146
1637.906	146.42
1641.134	145.89
1644.361	145.83
1647.588	146.36
1650.815	146.07
1654.042	145.5
1657.269	146.3
1660.495	146.38
1663.72	145.87
1666.946	146.7
1670.171	146.65
1673.396	147.19
1676.621	146.91
1679.845	147.43
1683.069	147.61
1686.293	148.09
1689.517	149.11
1692.74	148.81
1695.963	148.94
1699.185	150.4
1702.408	150.47
1705.63	150.64
1708.852	150.51
1712.073	151.15
1715.294	151.23
1718.515	152.46
1721.736	152.36
1724.956	152.63
1728.176	152.62
1731.396	153.79
1734.616	153.08
1737.835	153.43
1741.054	152.94
1744.272	153.35
1747.491	155.06
1750.709	155.57
1753.927	154.74
1757.144	154.63
1760.361	154.83
1763.578	155.25
1766.795	154.76
1770.011	156.49
1773.227	156.27
1776.443	157.84
1779.658	157.92
1782.874	157.95
1786.089	157.71
1789.303	158.27
1792.518	160.36
1795.732	160.09
1798.945	161.14
1802.159	161.26
1805.372	161.01
1808.585	163.66
1811.797	163.73
1815.01	164.03
1818.222	164.87
1821.434	167.52
1824.645	167.6
1827.856	169.62
1831.067	171.03
1834.278	171.8
1837.488	172.82
1840.698	173.85
1843.908	172.39
1847.117	173.65
1850.326	175.33
1853.535	173.39
1856.744	174.52
1859.952	174.52
1863.16	172.7
1866.368	171.45
1869.575	171.8
1872.782	169.62
1875.989	169
1879.196	168.66
1882.402	167.13
1885.608	166.45
1888.814	167.16
1892.019	166.64
1895.224	166.02
1898.429	165.47
1901.634	165.99
1904.838	166.61
1908.042	167.76
1911.246	167.54
1914.449	167.79
1917.652	167.68
1920.855	167.54
1924.058	167.86
1927.26	166.58
1930.462	167.03
1933.664	168.56
1936.865	167.49
1940.066	166.45
1943.267	165.92
1946.467	166.26
1949.668	166.94
1952.868	169.28
1956.067	169.85
1959.267	169.59
1962.466	170.25
1965.665	169.09
1968.863	169.66
1972.061	173.56
1975.259	174.61
1978.457	175.88
1981.654	177.86
1984.852	178.44
1988.048	177.43
1991.245	179.54
1994.441	181.4
1997.637	182.98
2000.833	187.16
2004.028	189.78
2007.223	189.53
2010.418	191.25
2013.613	195.16
2016.807	196.81
2020.001	198.08
2023.194	202.25
2026.388	206.16
2029.581	211.58
2032.774	212.88
2035.966	216.67
2039.158	217.08
2042.35	220.74
2045.542	222.26
2048.733	225.46
2051.924	229.61
2055.115	233.45
2058.306	233.4
2061.496	235.23
2064.686	235.9
2067.875	240.33
2071.065	240.83
2074.254	239.7
2077.442	243.47
2080.631	245.02
2083.819	246.65
2087.007	246.48
2090.195	250.27
2093.382	252.73
2096.569	251.79
2099.756	255.41
2102.942	256.09
2106.128	258.35
2109.314	265.35
2112.5	264.08
2115.685	270.99
2118.87	272.07
2122.055	275.91
2125.239	277.29
2128.424	280.54
2131.608	282.57
2134.791	286.69
2137.974	287.04
2141.157	288.87
2144.34	288.02
2147.523	294.09
2150.705	291.23
2153.887	293.95
2157.068	295.69
2160.25	293.61
2163.431	294.65
2166.611	297.91
2169.792	302.31
2172.972	305.39
2176.152	309.19
2179.331	312.32
2182.511	315.25
2185.69	318
2188.868	323.93
2192.047	324.32
2195.225	333.45
2198.403	341.63
2201.58	349.9
2204.758	356.21
2207.935	363.26
2211.111	369.09
2214.288	374.41
2217.464	375.63
2220.64	383.06
2223.815	386.64
2226.991	403.78
2230.166	404.42
2233.34	409.8
2236.515	415.19
2239.689	416.95
2242.863	420.1
2246.036	429.58
2249.209	425.98
2252.382	434.45
2255.555	446.52
2258.727	449.86
2261.9	451.67
2265.071	456.45
2268.243	465.86
2271.414	470.76
2274.585	478.79
2277.756	484.03
2280.926	487.56
2284.096	501.06
2287.266	510.67
2290.436	513.49
2293.605	526.41
2296.774	539.83
2299.942	556.84
2303.111	557.8
2306.279	569.35
2309.447	578.33
2312.614	594.53
2315.781	610.44
2318.948	637.78
2322.115	628.29
2325.281	665.38
2328.447	651.62
2331.613	676.61
2334.779	667.89
2337.944	701.59
2341.109	706.96
2344.274	724.52
2347.438	749.67
2350.602	750.8
2353.766	771.41
2356.929	784.46
2360.092	776.18
2363.255	829.04
2366.418	830.19
2369.58	845.1
2372.742	895.89
2375.904	920.18
2379.066	916.77
2382.227	894.75
2385.388	967.75
2388.548	971.76
2391.709	982.11
2394.869	1091.54
2398.029	1052.31
2401.188	1084.43
2404.347	1076.45
2407.506	1055.62
2410.665	1084.06
2413.823	1150.76
2416.981	1220.61
2420.139	1188.51
2423.296	1168.15
2426.453	1225.07
2429.61	1180.7
2432.767	1229.01
2435.923	1212.57
2439.079	1342.11
2442.235	1358.35
2445.391	1349.7
2448.546	1336.1
2451.701	1297.08
2454.855	1290.47
2458.009	1382.9
2461.163	1431.46
2464.317	1481.32
2467.471	1522.14
2470.624	1524.31
2473.777	1473.06
2476.929	1433.93
2480.082	1387.44
2483.234	1376.07
2486.385	1457.36
2489.537	1462.55
2492.688	1509.47
2495.839	1474.89
2498.989	1441.64
2502.14	1443.18
2505.29	1453.47
2508.439	1470.51
2511.589	1469.89
2514.738	1606.45
2517.887	1573.73
2521.035	1646.71
2524.183	1669.44
2527.331	1675.49
2530.479	1657.39
2533.627	1672.73
