Data from N_3_HIR_IL_4N_Splice17_14-29-05-036.txt Node
Date: Sat Mar 07 14:29:05 EST 2020
User: sa697716
Spectrometer: NQ5500242
Trigger mode: 0
Integration Time (sec): 1.450000E-1
Scans to average: 20
Nonlinearity correction enabled: false
Boxcar width: 5
Storing dark spectrum: false
XAxis mode: Wavelengths
Number of Pixels in Spectrum: 512
>>>>>Begin Spectral Data<<<<<
187.83	190.16
188.298	202.59
188.766	150.67
189.233	123.92
189.701	127.99
190.169	159.47
190.636	153.38
191.104	184.81
191.571	-65.56
192.039	-123.5
192.506	-654.19
192.974	139.77
193.441	115.49
193.908	2.07
194.375	-2.22
194.842	-65.21
195.31	-68.11
195.777	-368.36
196.244	36.24
196.711	58.6
197.177	62.44
197.644	62.64
198.111	63.78
198.578	64.41
199.045	64.64
199.511	64.24
199.978	64.47
200.445	64.74
200.911	64.9
201.378	65.3
201.844	65.07
202.31	64.89
202.777	65.15
203.243	65.03
203.709	64.89
204.176	64.5
204.642	64.54
205.108	64.36
205.574	64.13
206.04	63.69
206.506	62.86
206.972	62.44
207.438	61.82
207.903	60.91
208.369	59.47
208.835	58.01
209.301	56.65
209.766	55.09
210.232	53.49
210.697	52.01
211.163	50.71
211.628	49.6
212.094	48.38
212.559	46.98
213.024	45.72
213.49	44.77
213.955	43.9
214.42	42.78
214.885	41.54
215.35	40.01
215.815	37.79
216.28	35.01
216.745	32.09
217.21	29.11
217.675	26.49
218.14	24.15
218.604	22.12
219.069	20.38
219.534	18.98
219.998	17.83
220.463	16.86
220.927	16.01
221.392	15.35
221.856	14.79
222.32	14.33
222.785	13.93
223.249	13.56
223.713	13.24
224.177	12.98
224.642	12.7
225.106	12.4
225.57	12.12
226.034	11.88
226.497	11.67
226.961	11.45
227.425	11.26
227.889	11.07
228.353	10.85
228.816	10.66
229.28	10.46
229.744	10.3
230.207	10.15
230.671	10.02
231.134	9.88
231.597	9.76
232.061	9.64
232.524	9.52
232.987	9.4
233.45	9.32
233.914	9.21
234.377	9.11
234.84	9.01
235.303	8.93
235.766	8.84
236.229	8.75
236.691	8.65
237.154	8.56
237.617	8.49
238.08	8.41
238.542	8.31
239.005	8.25
239.468	8.18
239.93	8.12
240.393	8.05
240.855	7.97
241.317	7.9
241.78	7.83
242.242	7.75
242.704	7.68
243.166	7.62
243.629	7.56
244.091	7.48
244.553	7.42
245.015	7.34
245.477	7.27
245.939	7.22
246.4	7.15
246.862	7.09
247.324	7.04
247.786	6.96
248.247	6.89
248.709	6.82
249.17	6.76
249.632	6.7
250.093	6.64
250.555	6.58
251.016	6.53
251.477	6.47
251.939	6.43
252.4	6.39
252.861	6.34
253.322	6.3
253.783	6.26
254.244	6.22
254.705	6.18
255.166	6.14
255.627	6.1
256.088	6.06
256.549	6.02
257.009	5.97
257.47	5.93
257.931	5.88
258.391	5.83
258.852	5.78
259.312	5.74
259.773	5.69
260.233	5.66
260.694	5.62
261.154	5.58
261.614	5.55
262.074	5.5
262.534	5.46
262.994	5.43
263.455	5.4
263.915	5.37
264.374	5.35
264.834	5.33
265.294	5.3
265.754	5.28
266.214	5.25
266.673	5.22
267.133	5.21
267.593	5.2
268.052	5.18
268.512	5.16
268.971	5.14
269.431	5.13
269.89	5.1
270.349	5.09
270.809	5.07
271.268	5.05
271.727	5.03
272.186	5.02
272.645	5
273.104	4.98
273.563	4.97
274.022	4.96
274.481	4.95
274.94	4.95
275.399	4.93
275.857	4.92
276.316	4.91
276.775	4.9
277.233	4.89
277.692	4.88
278.15	4.88
278.609	4.87
279.067	4.85
279.525	4.84
279.984	4.82
280.442	4.8
280.9	4.8
281.358	4.79
281.816	4.78
282.274	4.77
282.732	4.76
283.19	4.74
283.648	4.73
284.106	4.72
284.564	4.72
285.021	4.71
285.479	4.71
285.937	4.71
286.394	4.69
286.852	4.68
287.309	4.67
287.767	4.66
288.224	4.64
288.682	4.63
289.139	4.6
289.596	4.58
290.053	4.56
290.511	4.53
290.968	4.51
291.425	4.49
291.882	4.48
292.339	4.46
292.796	4.44
293.252	4.43
293.709	4.41
294.166	4.41
294.623	4.4
295.079	4.39
295.536	4.38
295.992	4.37
296.449	4.36
296.905	4.35
297.362	4.34
297.818	4.33
298.274	4.32
298.731	4.31
299.187	4.29
299.643	4.28
300.099	4.27
300.555	4.26
301.011	4.25
301.467	4.24
301.923	4.23
302.379	4.23
302.835	4.22
303.291	4.21
303.746	4.21
304.202	4.2
304.658	4.2
305.113	4.2
305.569	4.19
306.024	4.19
306.479	4.19
306.935	4.18
307.39	4.18
307.845	4.18
308.301	4.19
308.756	4.19
309.211	4.19
309.666	4.19
310.121	4.19
310.576	4.19
311.031	4.2
311.486	4.2
311.94	4.2
312.395	4.2
312.85	4.2
313.305	4.2
313.759	4.2
314.214	4.2
314.668	4.19
315.123	4.19
315.577	4.18
316.032	4.17
316.486	4.17
316.94	4.16
317.394	4.15
317.849	4.14
318.303	4.12
318.757	4.11
319.211	4.1
319.665	4.09
320.119	4.08
320.572	4.07
321.026	4.06
321.48	4.06
321.934	4.05
322.387	4.04
322.841	4.03
323.295	4.03
323.748	4.03
324.202	4.03
324.655	4.03
325.108	4.03
325.562	4.02
326.015	4.03
326.468	4.03
326.921	4.04
327.374	4.04
327.827	4.04
328.28	4.03
328.733	4.03
329.186	4.04
329.639	4.04
330.092	4.03
330.545	4.04
330.997	4.03
331.45	4.03
331.903	4.04
332.355	4.04
332.808	4.05
333.26	4.06
333.713	4.06
334.165	4.06
334.617	4.07
335.069	4.07
335.522	4.08
335.974	4.08
336.426	4.08
336.878	4.08
337.33	4.08
337.782	4.09
338.234	4.09
338.686	4.09
339.137	4.1
339.589	4.09
340.041	4.09
340.493	4.08
340.944	4.07
341.396	4.07
341.847	4.06
342.299	4.04
342.75	4.02
343.201	4
343.653	3.98
344.104	3.95
344.555	3.94
345.006	3.92
345.457	3.91
345.908	3.91
346.359	3.9
346.81	3.89
347.261	3.88
347.712	3.88
348.163	3.88
348.613	3.89
349.064	3.9
349.515	3.9
349.965	3.9
350.416	3.9
350.866	3.89
351.317	3.89
351.767	3.9
352.217	3.91
352.668	3.91
353.118	3.91
353.568	3.9
354.018	3.9
354.468	3.9
354.918	3.9
355.368	3.91
355.818	3.91
356.268	3.91
356.718	3.91
357.168	3.9
357.617	3.9
358.067	3.9
358.517	3.92
358.966	3.91
359.416	3.91
359.865	3.91
360.315	3.92
360.764	3.93
361.213	3.93
361.663	3.92
362.112	3.93
362.561	3.93
363.01	3.95
363.459	3.93
363.908	3.93
364.357	3.93
364.806	3.93
365.255	3.94
365.703	3.94
366.152	3.95
366.601	3.95
367.05	3.96
367.498	3.96
367.947	3.95
368.395	3.96
368.844	3.97
369.292	3.97
369.74	3.98
370.189	3.98
370.637	3.97
371.085	3.96
371.533	3.96
371.981	3.95
372.429	3.95
372.877	3.96
373.325	3.95
373.773	3.96
374.221	3.96
374.669	3.95
375.116	3.95
375.564	3.95
376.012	3.96
376.459	3.96
376.907	3.99
377.354	3.99
377.801	4
378.249	4.01
378.696	4.02
379.143	4.03
379.591	4.03
380.038	4.04
380.485	4.06
380.932	4.07
381.379	4.09
381.826	4.09
382.273	4.09
382.72	4.09
383.166	4.09
383.613	4.1
384.06	4.1
384.506	4.11
384.953	4.11
385.4	4.13
385.846	4.15
386.292	4.16
386.739	4.17
387.185	4.19
387.631	4.21
388.078	4.23
388.524	4.24
388.97	4.27
389.416	4.29
389.862	4.32
390.308	4.34
390.754	4.36
391.2	4.39
391.645	4.42
392.091	4.45
392.537	4.47
392.983	4.51
393.428	4.54
393.874	4.58
394.319	4.61
394.765	4.63
395.21	4.64
395.655	4.66
396.101	4.69
396.546	4.71
396.991	4.74
397.436	4.77
397.881	4.82
398.326	4.84
398.771	4.88
399.216	4.91
399.661	4.96
400.106	5
400.551	5.02
400.995	5.04
401.44	5.06
401.885	5.09
402.329	5.11
402.774	5.13
403.218	5.17
403.663	5.19
404.107	5.21
404.551	5.23
404.995	5.26
405.44	5.29
405.884	5.32
406.328	5.36
406.772	5.37
407.216	5.4
407.66	5.42
408.104	5.43
408.547	5.45
408.991	5.48
409.435	5.5
409.879	5.52
410.322	5.55
410.766	5.58
411.209	5.6
411.653	5.63
412.096	5.65
412.54	5.69
412.983	5.7
413.426	5.74
413.869	5.78
414.312	5.81
414.756	5.83
415.199	5.86
415.642	5.88
416.085	5.91
416.527	5.92
416.97	5.93
417.413	5.94
417.856	5.95
418.298	5.95
418.741	5.95
419.184	5.95
419.626	5.95
420.069	5.96
420.511	5.97
420.953	5.98
421.396	6
421.838	6.01
422.28	6.04
422.722	6.08
423.164	6.11
423.606	6.13
424.048	6.15
424.49	6.18
424.932	6.2
425.374	6.2
425.816	6.19
426.258	6.17
426.699	6.17
427.141	6.15
427.582	6.15
428.024	6.16
428.465	6.17
428.907	6.17
429.348	6.17
429.789	6.16
430.231	6.18
430.672	6.2
431.113	6.24
431.554	6.27
431.995	6.29
432.436	6.29
432.877	6.3
433.318	6.32
433.759	6.35
434.2	6.38
434.64	6.41
435.081	6.43
435.522	6.46
435.962	6.48
436.403	6.53
436.843	6.55
437.284	6.58
437.724	6.59
438.164	6.58
438.604	6.58
439.045	6.58
439.485	6.59
439.925	6.59
440.365	6.59
440.805	6.6
441.245	6.6
441.685	6.63
442.125	6.65
442.564	6.67
443.004	6.7
443.444	6.73
443.883	6.76
444.323	6.78
444.762	6.8
445.202	6.82
445.641	6.86
446.081	6.89
446.52	6.89
446.959	6.91
447.398	6.95
447.837	6.98
448.276	6.99
448.716	7.02
449.154	7.04
449.593	7.08
450.032	7.09
450.471	7.08
450.91	7.09
451.349	7.11
451.787	7.1
452.226	7.09
452.664	7.08
453.103	7.08
453.541	7.06
453.98	7.06
454.418	7.02
454.856	7.01
455.295	6.99
455.733	6.96
456.171	6.95
456.609	6.93
457.047	6.9
457.485	6.88
457.923	6.87
458.361	6.85
458.798	6.84
459.236	6.85
459.674	6.85
460.111	6.85
460.549	6.86
460.987	6.86
461.424	6.87
461.862	6.88
462.299	6.89
462.736	6.89
463.173	6.91
463.611	6.91
464.048	6.91
464.485	6.91
464.922	6.91
465.359	6.91
465.796	6.93
466.233	6.93
466.67	6.93
467.106	6.95
467.543	6.94
467.98	6.93
468.416	6.93
468.853	6.94
469.29	6.95
469.726	6.96
470.162	6.97
470.599	6.97
471.035	6.98
471.471	6.97
471.907	6.97
472.344	6.98
472.78	6.99
473.216	6.99
473.652	6.99
474.088	7
474.523	7
474.959	7.01
475.395	7
475.831	6.99
476.266	6.99
476.702	6.98
477.138	6.98
477.573	6.97
478.008	6.99
478.444	6.98
478.879	6.97
479.314	6.97
479.75	6.96
480.185	6.96
480.62	6.95
481.055	6.95
481.49	6.95
481.925	6.95
482.36	6.95
482.795	6.94
483.229	6.94
483.664	6.95
484.099	6.95
484.534	6.94
484.968	6.95
485.403	6.96
485.837	6.97
486.271	6.99
486.706	7
487.14	7.02
487.574	7.03
488.009	7.04
488.443	7.04
488.877	7.07
489.311	7.09
489.745	7.12
490.179	7.15
490.613	7.18
491.046	7.2
491.48	7.23
491.914	7.26
492.348	7.3
492.781	7.34
493.215	7.4
493.648	7.44
494.082	7.48
494.515	7.53
494.948	7.58
495.382	7.62
495.815	7.69
496.248	7.76
496.681	7.82
497.114	7.89
497.547	7.96
497.98	8.03
498.413	8.1
498.846	8.18
499.279	8.26
499.711	8.34
500.144	8.44
500.577	8.53
501.009	8.61
501.442	8.71
501.874	8.81
502.306	8.91
502.739	9.02
503.171	9.14
503.603	9.25
504.036	9.38
504.468	9.5
504.9	9.62
505.332	9.75
505.764	9.89
506.196	10.02
506.627	10.17
507.059	10.33
507.491	10.48
507.923	10.64
508.354	10.81
508.786	10.98
509.217	11.16
509.649	11.34
510.08	11.52
510.512	11.71
510.943	11.9
511.374	12.09
511.805	12.29
512.237	12.48
512.668	12.68
513.099	12.89
513.53	13.1
513.961	13.32
514.391	13.53
514.822	13.75
515.253	13.96
515.684	14.17
516.114	14.38
516.545	14.59
516.975	14.81
517.406	15.02
517.836	15.22
518.267	15.44
518.697	15.63
519.127	15.82
519.558	16.02
519.988	16.22
520.418	16.43
520.848	16.61
521.278	16.8
521.708	17.1
522.138	17.3
522.567	17.47
522.997	17.64
523.427	17.83
523.857	18.01
524.286	18.17
524.716	18.34
525.145	18.48
525.575	18.64
526.004	18.8
526.433	18.82
526.863	18.96
527.292	19.09
527.721	19.22
528.15	19.33
528.579	19.45
529.008	19.56
529.437	19.66
529.866	19.77
530.295	19.87
530.724	19.96
531.152	20.06
531.581	20.14
532.01	20.23
532.438	20.31
532.867	20.4
533.295	20.46
533.723	20.54
534.152	20.6
534.58	20.67
535.008	20.71
535.436	20.76
535.865	20.79
536.293	20.83
536.721	20.86
537.149	20.9
537.576	20.93
538.004	20.97
538.432	20.99
538.86	21.01
539.287	21.02
539.715	21.07
540.143	21.09
540.57	21.13
540.998	21.16
541.425	21.18
541.852	21.21
542.28	21.23
542.707	21.26
543.134	21.29
543.561	21.34
543.988	21.38
544.415	21.4
544.842	21.42
545.269	21.44
545.696	21.47
546.123	21.5
546.549	21.53
546.976	21.56
547.403	21.58
547.829	21.61
548.256	21.62
548.682	21.64
549.108	21.68
549.535	21.69
549.961	21.72
550.387	21.72
550.813	21.72
551.24	21.73
551.666	21.74
552.092	21.76
552.518	21.75
552.943	21.75
553.369	21.76
553.795	21.74
554.221	21.73
554.646	21.71
555.072	21.7
555.498	21.69
555.923	21.67
556.349	21.64
556.774	21.58
557.199	21.55
557.625	21.53
558.05	21.48
558.475	21.44
558.9	21.4
559.325	21.37
559.75	21.32
560.175	21.28
560.6	21.22
561.025	21.16
561.449	21.11
561.874	21.03
562.299	20.95
562.723	20.87
563.148	20.79
563.572	20.7
563.997	20.61
564.421	20.52
564.846	20.42
565.27	20.33
565.694	20.23
566.118	20.12
566.542	20.03
566.966	19.92
567.39	19.81
567.814	19.7
568.238	19.59
568.662	19.48
569.086	19.36
569.509	19.25
569.933	19.14
570.357	19.02
570.78	18.92
571.204	18.81
571.627	18.71
572.05	18.61
572.474	18.53
572.897	18.43
573.32	18.34
573.743	18.25
574.166	18.17
574.589	18.09
575.012	18.01
575.435	17.95
575.858	17.89
576.281	17.81
576.704	17.75
577.126	17.69
577.549	17.63
577.972	17.58
578.394	17.51
578.817	17.45
579.239	17.39
579.661	17.34
580.084	17.27
580.506	17.21
580.928	17.16
581.35	17.11
581.772	17.06
582.194	17
582.616	16.95
583.038	16.91
583.46	16.86
583.882	16.82
584.303	16.77
584.725	16.73
585.147	16.69
585.568	16.64
585.99	16.6
586.411	16.54
586.833	16.5
587.254	16.45
587.675	16.41
588.096	16.37
588.518	16.34
588.939	16.31
589.36	16.27
589.781	16.24
590.202	16.22
590.623	16.19
591.043	16.17
591.464	16.16
591.885	16.14
592.305	16.13
592.726	16.11
593.147	16.09
593.567	16.07
593.987	16.06
594.408	16.03
594.828	16
595.248	15.98
595.669	15.95
596.089	15.92
596.509	15.89
596.929	15.85
597.349	15.82
597.769	15.78
598.189	15.73
598.608	15.69
599.028	15.67
599.448	15.64
599.867	15.6
600.287	15.58
600.706	15.54
601.126	15.5
601.545	15.47
601.965	15.43
602.384	15.39
602.803	15.36
603.222	15.32
603.641	15.27
604.061	15.24
604.48	15.18
604.898	15.13
605.317	15.09
605.736	15.04
606.155	15
606.574	14.94
606.992	14.89
607.411	14.84
607.829	14.77
608.248	14.71
608.666	14.63
609.085	14.58
609.503	14.52
609.921	14.47
610.339	14.41
610.758	14.35
611.176	14.29
611.594	14.23
612.012	14.17
612.43	14.14
612.847	14.08
613.265	14.03
613.683	13.97
614.101	13.92
614.518	13.86
614.936	13.81
615.353	13.76
615.771	13.72
616.188	13.67
616.606	13.62
617.023	13.57
617.44	13.54
617.857	13.5
618.274	13.46
618.691	13.42
619.108	13.39
619.525	13.36
619.942	13.33
620.359	13.3
620.776	13.28
621.192	13.24
621.609	13.21
622.026	13.19
622.442	13.17
622.859	13.16
623.275	13.14
623.691	13.12
624.108	13.1
624.524	13.09
624.94	13.07
625.356	13.05
625.772	13.05
626.188	13.04
626.604	13.02
627.02	13.01
627.436	13
627.852	12.99
628.268	12.97
628.683	12.97
629.099	12.96
629.514	12.95
629.93	12.95
630.345	12.94
630.761	12.91
631.176	12.89
631.591	12.85
632.007	12.82
632.422	12.79
632.837	12.75
633.252	12.69
633.667	12.64
634.082	12.59
634.497	12.52
634.911	12.45
635.326	12.39
635.741	12.33
636.155	12.26
636.57	12.19
636.984	12.11
637.399	12.03
637.813	11.96
638.228	11.87
638.642	11.79
639.056	11.71
639.47	11.62
639.884	11.54
640.298	11.43
640.712	11.34
641.126	11.24
641.54	11.14
641.954	11.05
642.368	10.96
642.781	10.88
643.195	10.78
643.609	10.68
644.022	10.6
644.436	10.51
644.849	10.44
645.262	10.36
645.676	10.29
646.089	10.21
646.502	10.16
646.915	10.11
647.328	10.04
647.741	10
648.154	9.96
648.567	9.91
648.98	9.86
649.393	9.83
649.805	9.8
650.218	9.77
650.631	9.75
651.043	9.71
651.456	9.65
651.868	9.61
652.28	9.57
652.693	9.53
653.105	9.5
653.517	9.46
653.929	9.42
654.341	9.36
654.753	9.3
655.165	9.24
655.577	9.19
655.989	9.13
656.401	9.07
656.813	9.01
657.224	8.94
657.636	8.86
658.047	8.79
658.459	8.71
658.87	8.64
659.282	8.56
659.693	8.49
660.104	8.41
660.515	8.34
660.926	8.28
661.338	8.2
661.749	8.14
662.159	8.08
662.57	8.02
662.981	7.95
663.392	7.9
663.803	7.84
664.213	7.79
664.624	7.74
665.035	7.69
665.445	7.63
665.855	7.59
666.266	7.56
666.676	7.52
667.086	7.48
667.497	7.45
667.907	7.43
668.317	7.41
668.727	7.38
669.137	7.37
669.547	7.35
669.956	7.34
670.366	7.33
670.776	7.32
671.186	7.32
671.595	7.33
672.005	7.33
672.414	7.33
672.824	7.33
673.233	7.35
673.642	7.37
674.052	7.37
674.461	7.38
674.87	7.39
675.279	7.41
675.688	7.44
676.097	7.46
676.506	7.48
676.915	7.5
677.323	7.53
677.732	7.55
678.141	7.59
678.549	7.63
678.958	7.68
679.366	7.73
679.775	7.79
680.183	7.85
680.592	7.93
681	8
681.408	8.09
681.816	8.19
682.224	8.3
682.632	8.42
683.04	8.54
683.448	8.67
683.856	8.82
684.264	8.98
684.671	9.16
685.079	9.34
685.487	9.56
685.894	9.79
686.302	10.03
686.709	10.29
687.116	10.57
687.524	10.86
687.931	11.18
688.338	11.5
688.745	11.84
689.152	12.18
689.559	12.54
689.966	12.92
690.373	13.3
690.78	13.69
691.187	14.09
691.593	14.49
692	14.9
692.407	15.31
692.813	15.74
693.22	16.15
693.626	16.56
694.032	16.98
694.439	17.39
694.845	17.81
695.251	18.21
695.657	18.61
696.063	19.01
696.469	19.41
696.875	19.81
697.281	20.18
697.687	20.57
698.093	20.93
698.498	21.3
698.904	21.65
699.31	21.99
699.715	22.33
700.12	22.67
700.526	22.99
700.931	23.32
701.337	23.62
701.742	23.92
702.147	24.22
702.552	24.53
702.957	24.79
703.362	25.07
703.767	25.32
704.172	25.59
704.577	25.84
704.981	26.09
705.386	26.33
705.791	26.6
706.195	26.83
706.6	27.08
707.004	27.31
707.408	27.56
707.813	27.8
708.217	28.04
708.621	28.24
709.025	28.46
709.43	28.66
709.834	28.85
710.237	29.03
710.641	29.22
711.045	29.39
711.449	29.57
711.853	29.77
712.256	29.93
712.66	30.1
713.064	30.29
713.467	30.46
713.87	30.62
714.274	30.78
714.677	30.95
715.08	31.11
715.484	31.27
715.887	31.44
716.29	31.58
716.693	31.72
717.096	31.85
717.499	31.98
717.901	32.13
718.304	32.27
718.707	32.41
719.109	32.54
719.512	32.66
719.915	32.77
720.317	32.87
720.719	32.97
721.122	33.09
721.524	33.18
721.926	33.28
722.328	33.38
722.731	33.47
723.133	33.57
723.535	33.65
723.937	33.74
724.338	33.82
724.74	33.91
725.142	34.03
725.544	34.11
725.945	34.22
726.347	34.29
726.748	34.35
727.15	34.4
727.551	34.47
727.952	34.54
728.354	34.59
728.755	34.66
729.156	34.7
729.557	34.7
729.958	34.73
730.359	34.77
730.76	34.83
731.161	34.88
731.562	34.95
731.962	34.97
732.363	35.01
732.763	35.06
733.164	35.08
733.564	35.13
733.965	35.17
734.365	35.22
734.766	35.24
735.166	35.26
735.566	35.3
735.966	35.33
736.366	35.35
736.766	35.38
737.166	35.41
737.566	35.44
737.966	35.46
738.365	35.48
738.765	35.52
739.165	35.55
739.564	35.58
739.964	35.57
740.363	35.57
740.763	35.61
741.162	35.64
741.561	35.64
741.96	35.65
742.36	35.67
742.759	35.71
743.158	35.7
743.557	35.71
743.955	35.73
744.354	35.78
744.753	35.8
745.152	35.82
745.55	35.84
745.949	35.87
746.348	35.91
746.746	35.93
747.144	35.93
747.543	35.95
747.941	35.98
748.339	35.98
748.737	35.95
749.136	35.98
749.534	35.97
749.932	35.97
750.33	35.97
750.727	35.97
751.125	35.96
751.523	35.94
751.921	35.96
752.318	35.96
752.716	35.96
753.113	35.99
753.511	35.97
753.908	35.97
754.305	35.97
754.703	35.94
755.1	35.93
755.497	35.93
755.894	35.91
756.291	35.89
756.688	35.85
757.085	35.84
757.482	35.82
757.878	35.81
758.275	35.78
758.672	35.76
759.068	35.78
759.465	35.76
759.861	35.77
760.258	35.78
760.654	35.77
761.05	35.79
761.447	35.8
761.843	35.81
762.239	35.82
762.635	35.83
763.031	35.85
763.427	35.83
763.822	35.85
764.218	35.87
764.614	35.89
765.01	35.89
765.405	35.88
765.801	35.86
766.196	35.87
766.592	35.87
766.987	35.88
767.382	35.85
767.778	35.87
768.173	35.87
768.568	35.86
768.963	35.85
769.358	35.86
769.753	35.85
770.148	35.89
770.542	35.88
770.937	35.89
771.332	35.87
771.726	35.89
772.121	35.87
772.515	35.88
772.91	35.87
773.304	35.88
773.699	35.88
774.093	35.88
774.487	35.86
774.881	35.89
775.275	35.86
775.669	35.86
776.063	35.84
776.457	35.84
776.851	35.82
777.245	35.81
777.638	35.78
778.032	35.8
778.425	35.83
778.819	35.85
779.212	35.82
779.606	35.83
779.999	35.84
780.392	35.86
780.786	35.86
781.179	35.88
781.572	35.93
781.965	35.95
782.358	35.94
782.751	35.92
783.143	35.92
783.536	35.92
783.929	35.92
784.322	35.93
784.714	35.92
785.107	35.96
785.499	35.95
785.891	35.94
786.284	35.96
786.676	35.98
787.068	35.98
787.46	35.98
787.852	35.97
788.245	35.99
788.636	36
789.028	36.02
789.42	36.01
789.812	36.01
790.204	36.01
790.595	36.01
790.987	36.01
791.378	36.01
791.77	36.03
792.161	36.07
792.553	36.08
792.944	36.08
793.335	36.09
793.726	36.1
794.117	36.09
794.508	36.08
794.899	36.08
795.29	36.07
795.681	36.06
796.072	36.07
796.463	36.05
796.853	36.04
797.244	36.06
797.634	36.05
798.025	36.08
798.415	36.09
798.806	36.12
799.196	36.13
799.586	36.16
799.976	36.18
800.366	36.18
800.756	36.18
801.146	36.21
801.536	36.2
801.926	36.21
802.316	36.18
802.706	36.2
803.095	36.21
803.485	36.2
803.874	36.19
804.264	36.21
804.653	36.21
805.043	36.23
805.432	36.21
805.821	36.24
806.21	36.24
806.599	36.25
806.988	36.26
807.377	36.25
807.766	36.26
808.155	36.26
808.544	36.25
808.933	36.25
809.321	36.24
809.71	36.25
810.098	36.25
810.487	36.25
810.875	36.26
811.264	36.26
811.652	36.28
812.04	36.28
812.428	36.33
812.816	36.35
813.204	36.35
813.592	36.35
813.98	36.37
814.368	36.38
814.756	36.39
815.144	36.4
815.531	36.4
815.919	36.37
816.306	36.38
816.694	36.35
817.081	36.35
817.469	36.36
817.856	36.36
818.243	36.34
818.63	36.33
819.017	36.3
819.404	36.28
819.791	36.28
820.178	36.3
820.565	36.28
820.952	36.26
821.339	36.24
821.725	36.23
822.112	36.25
822.498	36.25
822.885	36.26
823.271	36.26
823.657	36.24
824.044	36.23
824.43	36.23
824.816	36.25
825.202	36.25
825.588	36.25
825.974	36.24
826.36	36.2
826.746	36.18
827.132	36.16
827.517	36.18
827.903	36.19
828.289	36.19
828.674	36.17
829.06	36.15
829.445	36.13
829.83	36.13
830.216	36.12
830.601	36.12
830.986	36.11
831.371	36.08
831.756	36.06
832.141	36.04
832.526	36.03
832.911	36.02
833.295	36.01
833.68	36.01
834.065	35.97
834.449	35.94
834.834	35.91
835.218	35.9
835.603	35.89
835.987	35.87
836.371	35.86
836.755	35.83
837.139	35.81
837.524	35.8
837.908	35.78
838.291	35.79
838.675	35.81
839.059	35.81
839.443	35.8
839.827	35.78
840.21	35.78
840.594	35.78
840.977	35.78
841.361	35.77
841.744	35.73
842.127	35.72
842.511	35.7
842.894	35.66
843.277	35.65
843.66	35.64
844.043	35.65
844.426	35.63
844.809	35.61
845.191	35.6
845.574	35.6
845.957	35.61
846.339	35.61
846.722	35.61
847.104	35.62
847.487	35.63
847.869	35.63
848.252	35.61
848.634	35.58
849.016	35.59
849.398	35.6
849.78	35.6
850.162	35.6
850.544	35.59
850.926	35.6
851.307	35.6
851.689	35.57
852.071	35.58
852.452	35.6
852.834	35.62
853.215	35.6
853.597	35.62
853.978	35.64
854.359	35.66
854.741	35.67
855.122	35.66
855.503	35.65
855.884	35.65
856.265	35.65
856.646	35.62
857.026	35.63
857.407	35.64
857.788	35.6
858.169	35.59
858.549	35.58
858.93	35.58
859.31	35.61
859.69	35.62
860.071	35.64
860.451	35.65
860.831	35.66
861.211	35.63
861.591	35.62
861.971	35.64
862.351	35.66
862.731	35.68
863.111	35.66
863.491	35.63
863.87	35.62
864.25	35.61
864.629	35.61
865.009	35.61
865.388	35.62
865.768	35.64
866.147	35.63
866.526	35.62
866.905	35.59
867.284	35.6
867.663	35.64
868.042	35.64
868.421	35.66
868.8	35.66
869.179	35.67
869.558	35.67
869.936	35.66
870.315	35.65
870.693	35.65
871.072	35.66
871.45	35.67
871.828	35.65
872.207	35.66
872.585	35.64
872.963	35.66
873.341	35.64
873.719	35.66
874.097	35.65
874.475	35.68
874.853	35.68
875.23	35.68
875.608	35.66
875.986	35.68
876.363	35.67
876.741	35.68
877.118	35.68
877.495	35.69
877.873	35.67
878.25	35.68
878.627	35.7
879.004	35.72
879.381	35.73
879.758	35.73
880.135	35.73
880.512	35.72
880.889	35.71
881.265	35.71
881.642	35.71
882.019	35.7
882.395	35.68
882.772	35.66
883.148	35.62
883.524	35.62
883.901	35.61
884.277	35.6
884.653	35.58
885.029	35.57
885.405	35.54
885.781	35.53
886.157	35.54
886.532	35.56
886.908	35.54
887.284	35.54
887.659	35.51
888.035	35.48
888.411	35.47
888.786	35.47
889.161	35.47
889.537	35.47
889.912	35.45
890.287	35.44
890.662	35.4
891.037	35.4
891.412	35.38
891.787	35.38
892.162	35.38
892.536	35.38
892.911	35.37
893.286	35.36
893.66	35.33
894.035	35.31
894.409	35.3
894.784	35.31
895.158	35.28
895.532	35.28
895.906	35.27
896.281	35.28
896.655	35.27
897.029	35.26
897.402	35.26
897.776	35.28
898.15	35.3
898.524	35.32
898.898	35.32
899.271	35.34
899.645	35.36
900.018	35.38
900.392	35.4
900.765	35.43
901.138	35.44
901.511	35.46
901.884	35.48
902.258	35.49
902.631	35.5
903.003	35.52
903.376	35.53
903.749	35.54
904.122	35.56
904.495	35.57
904.867	35.55
905.24	35.57
905.612	35.59
905.985	35.59
906.357	35.61
906.729	35.64
907.102	35.63
907.474	35.64
907.846	35.63
908.218	35.62
908.59	35.62
908.962	35.64
909.334	35.63
909.705	35.61
910.077	35.61
910.449	35.6
910.82	35.58
911.192	35.59
911.563	35.58
911.935	35.6
912.306	35.62
912.677	35.62
913.048	35.63
913.419	35.63
913.79	35.65
914.161	35.67
914.532	35.67
914.903	35.68
915.274	35.69
915.645	35.71
916.015	35.72
916.386	35.7
916.756	35.74
917.127	35.77
917.497	35.79
917.868	35.79
918.238	35.76
918.608	35.8
918.978	35.78
919.348	35.8
919.718	35.81
920.088	35.82
920.458	35.85
920.828	35.82
921.198	35.79
921.567	35.77
921.937	35.77
922.306	35.81
922.676	35.8
923.045	35.81
923.415	35.78
923.784	35.79
924.153	35.79
924.522	35.81
924.891	35.82
925.26	35.82
925.629	35.84
925.998	35.87
926.367	35.86
926.736	35.87
927.104	35.89
927.473	35.9
927.842	35.88
928.21	35.91
928.578	35.87
928.947	35.91
929.315	35.9
929.683	35.88
930.051	35.89
930.42	35.88
930.788	35.84
931.156	35.84
931.523	35.85
931.891	35.88
932.259	35.87
932.627	35.88
932.994	35.86
933.362	35.85
933.729	35.89
934.097	35.87
934.464	35.86
934.831	35.89
935.199	35.93
935.566	35.91
935.933	35.92
936.3	35.89
936.667	35.89
937.034	35.9
937.401	35.96
937.767	35.98
938.134	36.01
938.501	36.06
938.867	36.1
939.234	36.11
939.6	36.15
939.967	36.2
940.333	36.25
940.699	36.32
941.065	36.32
941.431	36.28
941.798	36.27
942.163	36.27
942.529	36.29
942.895	36.33
943.261	36.32
943.627	36.3
943.992	36.27
944.358	36.29
944.723	36.25
945.089	36.26
945.454	36.29
945.82	36.32
946.185	36.3
946.55	36.27
946.915	36.27
947.28	36.25
947.645	36.26
948.01	36.23
948.375	36.21
948.74	36.23
949.104	36.25
949.469	36.24
949.834	36.17
950.198	36.16
950.562	36.13
950.927	36.04
951.291	35.98
951.655	35.94
952.02	35.92
952.384	35.83
952.748	35.81
953.112	35.77
953.476	35.69
953.839	35.69
954.203	35.66
954.567	35.66
954.931	35.66
955.294	35.63
955.658	35.67
956.021	35.61
956.385	35.63
956.748	35.56
957.111	35.51
957.474	35.54
957.837	35.5
958.2	35.47
958.563	35.47
958.926	35.47
959.289	35.5
959.652	35.42
960.015	35.42
960.377	35.4
960.74	35.42
961.102	35.42
961.465	35.44
961.827	35.5
962.189	35.54
962.552	35.52
962.914	35.52
963.276	35.55
963.638	35.57
964	35.58
964.362	35.6
964.724	35.58
965.085	35.6
965.447	35.59
965.809	35.58
966.17	35.53
966.532	35.52
966.893	35.54
967.255	35.52
967.616	35.56
967.977	35.63
968.338	35.62
968.699	35.61
969.061	35.57
969.421	35.58
969.782	35.58
970.143	35.63
970.504	35.66
970.865	35.68
971.225	35.68
971.586	35.64
971.946	35.62
972.307	35.64
972.667	35.69
973.027	35.76
973.388	35.8
973.748	35.77
974.108	35.87
974.468	35.86
974.828	35.9
975.188	35.93
975.548	35.92
975.907	35.93
976.267	35.95
976.627	35.99
976.986	35.97
977.346	35.87
977.705	35.9
978.064	35.86
978.424	35.84
978.783	35.78
979.142	35.78
979.501	35.86
979.86	35.84
980.219	35.84
980.578	35.85
980.937	35.85
981.296	35.9
981.654	35.96
982.013	35.98
982.371	36.01
982.73	36.07
983.088	36.04
983.447	36.01
983.805	36.03
984.163	36.09
984.521	36.07
984.879	36.13
985.237	36.15
985.595	36.16
985.953	36.16
986.311	36.19
986.669	36.16
987.026	36.21
987.384	36.4
987.741	36.39
988.099	36.41
988.456	36.45
988.814	36.51
989.171	36.53
989.528	36.59
989.885	36.55
990.242	36.61
990.599	36.69
990.956	36.69
991.313	36.59
991.67	36.7
992.027	36.76
992.383	36.81
992.74	36.85
993.096	36.93
993.453	36.9
993.809	37.04
994.165	37.12
994.522	37.17
994.878	37.24
995.234	37.28
995.59	37.3
995.946	37.32
996.302	37.42
996.658	37.49
997.013	37.57
997.369	37.63
997.725	37.69
998.08	37.72
998.436	37.7
998.791	37.78
999.147	37.73
999.502	37.8
999.857	37.84
1000.212	37.75
1000.567	37.74
1000.922	37.74
1001.277	37.73
1001.632	37.71
1001.987	37.63
1002.342	37.71
1002.696	37.71
1003.051	37.97
1003.406	38.05
1003.76	38.04
1004.114	38.11
1004.469	38.2
1004.823	38.46
1005.177	38.5
1005.531	38.59
1005.885	38.64
1006.239	38.63
1006.593	38.8
1006.947	38.72
1007.301	38.69
1007.655	38.68
1008.008	38.76
1008.362	38.82
1008.715	38.6
1009.069	38.76
1009.422	38.72
1009.776	38.91
1010.129	39
1010.482	39.05
1010.835	39.13
1011.188	39.22
1011.541	39.39
1011.894	39.49
1012.247	39.59
1012.6	39.91
1012.952	39.93
1013.305	40.15
1013.657	40.18
1014.01	40.4
1014.362	40.36
1014.715	40.32
1015.067	40.49
1015.419	40.67
1015.771	40.75
1016.123	40.61
1016.475	40.52
1016.827	40.56
1017.179	40.5
1017.531	40.52
1017.883	40.49
1018.234	40.71
1018.586	40.89
1018.938	41.02
1019.289	40.8
1019.64	40.96
1019.992	41.18
1020.343	41.18
1020.694	41.54
1021.045	41.66
1021.396	41.89
1021.747	42.12
1022.098	42.26
1022.449	42.25
1022.8	42.27
1023.151	42.43
1023.501	42.54
1023.852	42.73
1024.202	42.76
1024.553	42.67
1024.903	42.85
1025.253	42.88
1025.604	42.92
1025.954	42.55
1026.304	42.8
1026.654	42.65
1027.004	42.61
1027.354	42.56
1027.703	42.4
1028.053	42.69
1028.403	42.7
1028.753	42.59
1029.102	42.83
1029.452	42.94
1029.801	43.49
1030.15	43.44
1030.499	43.6
897.758	1055.27
901.051	1059.57
904.343	1057.16
907.636	1076.86
910.928	1048.57
914.22	1044.2
917.511	1030.45
920.803	985.42
924.094	984.24
927.384	959.15
930.675	923.07
933.965	917.61
937.255	861.93
940.544	829.57
943.834	787.6
947.123	781.29
950.411	736.57
953.7	722.7
956.988	684.74
960.276	655.16
963.563	643.1
966.851	618.17
970.138	613.33
973.424	596.09
976.711	596.39
979.997	569.16
983.283	563.91
986.568	551.9
989.853	535.46
993.138	524.53
996.423	506.26
999.708	493.48
1002.992	486.72
1006.275	464.66
1009.559	460.41
1012.842	444.32
1016.125	430.99
1019.408	423.07
1022.69	419.27
1025.972	409.55
1029.254	399.84
1032.536	391.36
1035.817	384.66
1039.098	380.66
1042.379	372.02
1045.659	367.32
1048.939	358.55
1052.219	351.12
1055.498	347.64
1058.778	338.46
1062.057	331.52
1065.335	328.31
1068.614	324.37
1071.892	320.07
1075.17	310.06
1078.447	305.43
1081.724	303.2
1085.001	300.15
1088.278	294.78
1091.554	287.78
1094.83	289.12
1098.106	285.88
1101.382	283.06
1104.657	280.97
1107.932	276.5
1111.206	279.11
1114.481	270.5
1117.755	268.54
1121.029	266.59
1124.302	265.85
1127.575	262.81
1130.848	258.45
1134.121	256.25
1137.393	254.91
1140.665	250.61
1143.937	248.07
1147.208	244.89
1150.48	245.8
1153.75	241.19
1157.021	237.86
1160.291	238.12
1163.561	233.41
1166.831	233.77
1170.101	231.91
1173.37	231.42
1176.639	231.11
1179.907	229.12
1183.176	227.14
1186.444	227
1189.711	227.37
1192.979	227.18
1196.246	225.28
1199.513	225.69
1202.78	225.15
1206.046	224.58
1209.312	223.01
1212.578	223.4
1215.843	225.26
1219.108	223.72
1222.373	227.48
1225.638	228.91
1228.902	231.89
1232.166	232
1235.43	234.68
1238.693	237.31
1241.956	239.38
1245.219	242.72
1248.482	242.62
1251.744	243.02
1255.006	244.09
1258.268	238.94
1261.529	237.14
1264.79	235.04
1268.051	233.79
1271.312	230.9
1274.572	227.37
1277.832	225.1
1281.092	220.94
1284.351	219.34
1287.61	219.33
1290.869	215.53
1294.128	214.12
1297.386	213.41
1300.644	212.02
1303.902	212.77
1307.159	212.3
1310.416	212.35
1313.673	211.3
1316.93	214.03
1320.186	213.57
1323.442	213.75
1326.697	217.71
1329.953	217.58
1333.208	219.02
1336.463	221.13
1339.717	221.44
1342.972	223.62
1346.226	226.26
1349.479	227.36
1352.733	228.14
1355.986	229.71
1359.238	229.52
1362.491	229.88
1365.743	232.94
1368.995	233.11
1372.247	233.1
1375.498	233.12
1378.749	234.51
1382	232.05
1385.251	232.89
1388.501	231.76
1391.751	232.32
1395	232.03
1398.25	230.59
1401.499	229.34
1404.748	228.67
1407.996	226.45
1411.244	225.69
1414.492	224.72
1417.74	222.02
1420.987	218.89
1424.234	218.61
1427.481	215.68
1430.728	215.33
1433.974	213.5
1437.22	211.97
1440.465	211.31
1443.711	208.95
1446.956	207.13
1450.201	204.68
1453.445	203.11
1456.689	202.57
1459.933	198.47
1463.177	197.4
1466.42	194.21
1469.663	192.01
1472.906	190.36
1476.148	185.82
1479.391	184.1
1482.633	182.84
1485.874	180.01
1489.115	178.55
1492.356	176.5
1495.597	176.08
1498.838	173.35
1502.078	172.33
1505.318	171.62
1508.557	171.5
1511.797	171.01
1515.036	168.99
1518.274	168.49
1521.513	167.32
1524.751	166.96
1527.989	165.98
1531.227	165.47
1534.464	165.58
1537.701	164.88
1540.938	164.13
1544.174	161.56
1547.41	161.86
1550.646	161.14
1553.882	160.81
1557.117	158.81
1560.352	157.92
1563.587	157.82
1566.821	156.65
1570.055	155.62
1573.289	154.16
1576.523	154.1
1579.756	153.52
1582.989	152.38
1586.222	152.47
1589.454	151.64
1592.686	152.62
1595.918	151.99
1599.15	151.16
1602.381	151.85
1605.612	151.16
1608.843	150.99
1612.073	151.38
1615.303	151.89
1618.533	151.85
1621.762	151.23
1624.992	151.49
1628.221	151.08
1631.449	150.75
1634.678	151
1637.906	151.19
1641.134	151.12
1644.361	151.21
1647.588	151.26
1650.815	150.88
1654.042	150.63
1657.269	151.99
1660.495	152.2
1663.72	151.51
1666.946	152.7
1670.171	153.01
1673.396	152.92
1676.621	152.4
1679.845	153.52
1683.069	153.31
1686.293	153.98
1689.517	154.55
1692.74	154.25
1695.963	154.68
1699.185	156.26
1702.408	155.94
1705.63	156.24
1708.852	156.78
1712.073	157.82
1715.294	157.45
1718.515	158.9
1721.736	158.57
1724.956	159.17
1728.176	159.37
1731.396	160.11
1734.616	159.62
1737.835	160.29
1741.054	159.32
1744.272	159.5
1747.491	160.83
1750.709	161.1
1753.927	160.34
1757.144	160.65
1760.361	160.85
1763.578	161.37
1766.795	161.14
1770.011	162.73
1773.227	162.18
1776.443	164.29
1779.658	165.04
1782.874	164.84
1786.089	165.53
1789.303	166.26
1792.518	167.88
1795.732	168.02
1798.945	169.2
1802.159	169.32
1805.372	169.11
1808.585	172.16
1811.797	172.18
1815.01	172.57
1818.222	173.93
1821.434	175.59
1824.645	175.7
1827.856	178.64
1831.067	179.39
1834.278	179.77
1837.488	181.32
1840.698	182.99
1843.908	181.45
1847.117	182.75
1850.326	183.77
1853.535	182.66
1856.744	184.83
1859.952	185.68
1863.16	184.37
1866.368	183.92
1869.575	185.59
1872.782	182.86
1875.989	183.1
1879.196	183.17
1882.402	182.23
1885.608	182.59
1888.814	183.73
1892.019	183.57
1895.224	182.78
1898.429	181.49
1901.634	182.77
1904.838	182.86
1908.042	185.06
1911.246	184.27
1914.449	184.93
1917.652	185.91
1920.855	185.43
1924.058	185.43
1927.26	184.34
1930.462	185.53
1933.664	187.69
1936.865	185.82
1940.066	184.87
1943.267	184.08
1946.467	185.18
1949.668	185.79
1952.868	187.5
1956.067	187.96
1959.267	188.3
1962.466	188.66
1965.665	187.22
1968.863	187.75
1972.061	191.25
1975.259	194.2
1978.457	195.02
1981.654	195.74
1984.852	196.67
1988.048	195.78
1991.245	197.86
1994.441	199.27
1997.637	201.82
2000.833	205.28
2004.028	208.29
2007.223	209.16
2010.418	209.85
2013.613	214.44
2016.807	217.32
2020.001	218.83
2023.194	222.4
2026.388	227.91
2029.581	232.89
2032.774	233.52
2035.966	238.17
2039.158	238.68
2042.35	243.1
2045.542	244.29
2048.733	248.35
2051.924	251.17
2055.115	256.14
2058.306	256.81
2061.496	257.96
2064.686	258.05
2067.875	263.42
2071.065	263.99
2074.254	262.84
2077.442	266.49
2080.631	268.4
2083.819	270.29
2087.007	271.21
2090.195	273.58
2093.382	276.23
2096.569	274.57
2099.756	280.13
2102.942	280.41
2106.128	282.55
2109.314	289.32
2112.5	287.37
2115.685	293.78
2118.87	294.6
2122.055	299.69
2125.239	300.82
2128.424	303.35
2131.608	306.31
2134.791	310.06
2137.974	311.78
2141.157	313.63
2144.34	313.32
2147.523	319.81
2150.705	316.97
2153.887	320.14
2157.068	321.39
2160.25	319.8
2163.431	321.29
2166.611	325.02
2169.792	329.99
2172.972	333.03
2176.152	336.08
2179.331	340.36
2182.511	343.87
2185.69	348.74
2188.868	355.39
2192.047	354.85
2195.225	364.64
2198.403	373.63
2201.58	381.1
2204.758	388.77
2207.935	396.19
2211.111	404.36
2214.288	408.95
2217.464	410.73
2220.64	417.27
2223.815	420.94
2226.991	439.33
2230.166	440.18
2233.34	448.3
2236.515	453.83
2239.689	454.81
2242.863	457.63
2246.036	467.04
2249.209	464.48
2252.382	473.72
2255.555	484.04
2258.727	487.98
2261.9	492.59
2265.071	497.4
2268.243	506.92
2271.414	513.25
2274.585	522.99
2277.756	528.19
2280.926	533.58
2284.096	548.24
2287.266	558.33
2290.436	565.98
2293.605	578.01
2296.774	593.95
2299.942	611.8
2303.111	613.69
2306.279	627.54
2309.447	638.28
2312.614	656.43
2315.781	674.69
2318.948	702.42
2322.115	693.11
2325.281	733.88
2328.447	719.23
2331.613	747.24
2334.779	740.75
2337.944	772.69
2341.109	781.02
2344.274	800.44
2347.438	827.93
2350.602	829.98
2353.766	856.29
2356.929	868.21
2360.092	858.73
2363.255	921.43
2366.418	917.95
2369.58	934.63
2372.742	996.72
2375.904	1021
2379.066	1015
2382.227	993.94
2385.388	1078.34
2388.548	1075.32
2391.709	1090.68
2394.869	1214.6
2398.029	1163.7
2401.188	1199.42
2404.347	1192.45
2407.506	1168.57
2410.665	1201.29
2413.823	1276.07
2416.981	1351.69
2420.139	1309.08
2423.296	1295.28
2426.453	1355.43
2429.61	1294.6
2432.767	1353.62
2435.923	1337.43
2439.079	1470.69
2442.235	1491.68
2445.391	1482.24
2448.546	1466.63
2451.701	1429.73
2454.855	1423.12
2458.009	1522.35
2461.163	1574.03
2464.317	1646.07
2467.471	1686.65
2470.624	1686.25
2473.777	1634.49
2476.929	1586.97
2480.082	1538.68
2483.234	1525.32
2486.385	1603.46
2489.537	1610.69
2492.688	1659.48
2495.839	1616.38
2498.989	1579.47
2502.14	1586.71
2505.29	1602.49
2508.439	1626.77
2511.589	1625.22
2514.738	1775.81
2517.887	1737.65
2521.035	1825.03
2524.183	1846.65
2527.331	1859.68
2530.479	1853.14
2533.627	1866.52
