Data from N_3_DIV_WI_4N_Splice17_13-53-12-810.txt Node
Date: Sat Mar 07 13:53:12 EST 2020
User: sa697716
Spectrometer: NQ5500242
Trigger mode: 0
Integration Time (sec): 1.450000E-1
Scans to average: 20
Nonlinearity correction enabled: false
Boxcar width: 5
Storing dark spectrum: false
XAxis mode: Wavelengths
Number of Pixels in Spectrum: 512
>>>>>Begin Spectral Data<<<<<
187.83	206.12
188.298	251.55
188.766	214.63
189.233	165.24
189.701	163.71
190.169	201.78
190.636	211.04
191.104	215.69
191.571	-50.06
192.039	-216.8
192.506	-378.86
192.974	-23.55
193.441	186.28
193.908	54.37
194.375	14.19
194.842	-44.38
195.31	0.64
195.777	18.28
196.244	33.98
196.711	40.95
197.177	42.59
197.644	41.8
198.111	42.02
198.578	42.04
199.045	41.95
199.511	41.63
199.978	41.57
200.445	41.64
200.911	41.32
201.378	41.36
201.844	41.2
202.31	40.85
202.777	40.91
203.243	40.95
203.709	40.44
204.176	39.99
204.642	40.01
205.108	39.83
205.574	39.3
206.04	38.98
206.506	38.54
206.972	38.34
207.438	37.81
207.903	37.39
208.369	36.5
208.835	35.9
209.301	35.28
209.766	34.02
210.232	33.2
210.697	32.42
211.163	31.53
211.628	30.67
212.094	29.74
212.559	29.2
213.024	28.42
213.49	27.91
213.955	27.25
214.42	26.52
214.885	25.78
215.35	24.91
215.815	23.76
216.28	22.13
216.745	20.36
217.21	18.52
217.675	16.76
218.14	15.29
218.604	13.99
219.069	12.91
219.534	12.09
219.998	11.37
220.463	10.72
220.927	10.12
221.392	9.72
221.856	9.36
222.32	9.05
222.785	8.81
223.249	8.58
223.713	8.37
224.177	8.22
224.642	8.01
225.106	7.81
225.57	7.63
226.034	7.52
226.497	7.38
226.961	7.25
227.425	7.13
227.889	7.01
228.353	6.88
228.816	6.75
229.28	6.62
229.744	6.53
230.207	6.45
230.671	6.36
231.134	6.25
231.597	6.19
232.061	6.11
232.524	6.03
232.987	5.95
233.45	5.89
233.914	5.82
234.377	5.76
234.84	5.68
235.303	5.62
235.766	5.57
236.229	5.51
236.691	5.44
237.154	5.39
237.617	5.34
238.08	5.28
238.542	5.23
239.005	5.19
239.468	5.15
239.93	5.12
240.393	5.08
240.855	5.02
241.317	4.98
241.78	4.92
242.242	4.87
242.704	4.84
243.166	4.8
243.629	4.76
244.091	4.71
244.553	4.66
245.015	4.61
245.477	4.57
245.939	4.53
246.4	4.49
246.862	4.46
247.324	4.42
247.786	4.36
248.247	4.32
248.709	4.27
249.17	4.23
249.632	4.21
250.093	4.19
250.555	4.15
251.016	4.13
251.477	4.1
251.939	4.08
252.4	4.06
252.861	4.04
253.322	4.02
253.783	4.01
254.244	3.99
254.705	3.96
255.166	3.93
255.627	3.91
256.088	3.89
256.549	3.87
257.009	3.84
257.47	3.81
257.931	3.78
258.391	3.75
258.852	3.71
259.312	3.68
259.773	3.65
260.233	3.63
260.694	3.61
261.154	3.58
261.614	3.56
262.074	3.53
262.534	3.51
262.994	3.5
263.455	3.48
263.915	3.47
264.374	3.45
264.834	3.44
265.294	3.42
265.754	3.41
266.214	3.4
266.673	3.38
267.133	3.38
267.593	3.37
268.052	3.36
268.512	3.35
268.971	3.35
269.431	3.34
269.89	3.33
270.349	3.33
270.809	3.32
271.268	3.31
271.727	3.3
272.186	3.29
272.645	3.28
273.104	3.27
273.563	3.27
274.022	3.26
274.481	3.25
274.94	3.25
275.399	3.24
275.857	3.24
276.316	3.22
276.775	3.22
277.233	3.22
277.692	3.21
278.15	3.2
278.609	3.2
279.067	3.19
279.525	3.18
279.984	3.18
280.442	3.17
280.9	3.17
281.358	3.17
281.816	3.17
282.274	3.16
282.732	3.16
283.19	3.15
283.648	3.14
284.106	3.13
284.564	3.12
285.021	3.11
285.479	3.1
285.937	3.09
286.394	3.08
286.852	3.07
287.309	3.06
287.767	3.05
288.224	3.04
288.682	3.03
289.139	3.02
289.596	3.01
290.053	2.99
290.511	2.97
290.968	2.96
291.425	2.95
291.882	2.94
292.339	2.93
292.796	2.93
293.252	2.92
293.709	2.91
294.166	2.9
294.623	2.9
295.079	2.89
295.536	2.89
295.992	2.88
296.449	2.87
296.905	2.87
297.362	2.86
297.818	2.85
298.274	2.85
298.731	2.84
299.187	2.83
299.643	2.83
300.099	2.83
300.555	2.82
301.011	2.82
301.467	2.82
301.923	2.81
302.379	2.81
302.835	2.81
303.291	2.81
303.746	2.8
304.202	2.81
304.658	2.8
305.113	2.8
305.569	2.8
306.024	2.8
306.479	2.79
306.935	2.79
307.39	2.78
307.845	2.78
308.301	2.78
308.756	2.78
309.211	2.77
309.666	2.78
310.121	2.78
310.576	2.78
311.031	2.78
311.486	2.78
311.94	2.79
312.395	2.79
312.85	2.79
313.305	2.79
313.759	2.79
314.214	2.79
314.668	2.78
315.123	2.78
315.577	2.77
316.032	2.76
316.486	2.75
316.94	2.75
317.394	2.75
317.849	2.74
318.303	2.73
318.757	2.72
319.211	2.71
319.665	2.7
320.119	2.69
320.572	2.69
321.026	2.68
321.48	2.68
321.934	2.66
322.387	2.65
322.841	2.65
323.295	2.65
323.748	2.64
324.202	2.64
324.655	2.64
325.108	2.64
325.562	2.63
326.015	2.63
326.468	2.64
326.921	2.64
327.374	2.63
327.827	2.63
328.28	2.63
328.733	2.63
329.186	2.62
329.639	2.62
330.092	2.62
330.545	2.62
330.997	2.62
331.45	2.62
331.903	2.62
332.355	2.62
332.808	2.63
333.26	2.62
333.713	2.62
334.165	2.62
334.617	2.62
335.069	2.61
335.522	2.62
335.974	2.62
336.426	2.62
336.878	2.61
337.33	2.61
337.782	2.61
338.234	2.63
338.686	2.63
339.137	2.63
339.589	2.64
340.041	2.64
340.493	2.63
340.944	2.61
341.396	2.6
341.847	2.6
342.299	2.58
342.75	2.57
343.201	2.55
343.653	2.54
344.104	2.52
344.555	2.51
345.006	2.5
345.457	2.49
345.908	2.49
346.359	2.5
346.81	2.49
347.261	2.49
347.712	2.48
348.163	2.47
348.613	2.48
349.064	2.48
349.515	2.48
349.965	2.48
350.416	2.46
350.866	2.46
351.317	2.45
351.767	2.45
352.217	2.45
352.668	2.45
353.118	2.46
353.568	2.45
354.018	2.45
354.468	2.46
354.918	2.46
355.368	2.47
355.818	2.47
356.268	2.47
356.718	2.47
357.168	2.46
357.617	2.45
358.067	2.46
358.517	2.47
358.966	2.47
359.416	2.48
359.865	2.47
360.315	2.47
360.764	2.47
361.213	2.48
361.663	2.47
362.112	2.48
362.561	2.49
363.01	2.49
363.459	2.48
363.908	2.48
364.357	2.48
364.806	2.48
365.255	2.49
365.703	2.5
366.152	2.5
366.601	2.51
367.05	2.53
367.498	2.53
367.947	2.54
368.395	2.56
368.844	2.57
369.292	2.56
369.74	2.58
370.189	2.58
370.637	2.58
371.085	2.59
371.533	2.6
371.981	2.61
372.429	2.63
372.877	2.65
373.325	2.66
373.773	2.68
374.221	2.71
374.669	2.72
375.116	2.74
375.564	2.77
376.012	2.79
376.459	2.81
376.907	2.83
377.354	2.85
377.801	2.88
378.249	2.9
378.696	2.93
379.143	2.96
379.591	2.99
380.038	3.04
380.485	3.08
380.932	3.12
381.379	3.16
381.826	3.21
382.273	3.25
382.72	3.29
383.166	3.34
383.613	3.38
384.06	3.41
384.506	3.46
384.953	3.5
385.4	3.55
385.846	3.6
386.292	3.64
386.739	3.68
387.185	3.73
387.631	3.79
388.078	3.83
388.524	3.89
388.97	3.94
389.416	3.99
389.862	4.04
390.308	4.09
390.754	4.14
391.2	4.18
391.645	4.23
392.091	4.29
392.537	4.33
392.983	4.36
393.428	4.41
393.874	4.46
394.319	4.51
394.765	4.54
395.21	4.56
395.655	4.59
396.101	4.63
396.546	4.66
396.991	4.68
397.436	4.71
397.881	4.76
398.326	4.78
398.771	4.81
399.216	4.82
399.661	4.85
400.106	4.88
400.551	4.9
400.995	4.91
401.44	4.93
401.885	4.94
402.329	4.95
402.774	4.95
403.218	4.98
403.663	4.99
404.107	4.99
404.551	4.99
404.995	4.98
405.44	4.98
405.884	4.99
406.328	5
406.772	4.99
407.216	4.99
407.66	4.99
408.104	4.97
408.547	4.97
408.991	4.98
409.435	4.98
409.879	4.99
410.322	5
410.766	5.01
411.209	5.02
411.653	5.03
412.096	5.03
412.54	5.05
412.983	5.04
413.426	5.07
413.869	5.07
414.312	5.08
414.756	5.1
415.199	5.08
415.642	5.08
416.085	5.09
416.527	5.08
416.97	5.08
417.413	5.07
417.856	5.07
418.298	5.05
418.741	5.04
419.184	5.04
419.626	5.02
420.069	5.01
420.511	5.01
420.953	5
421.396	5
421.838	5
422.28	5
422.722	5.01
423.164	5.01
423.606	5
424.048	4.99
424.49	4.98
424.932	4.98
425.374	4.95
425.816	4.92
426.258	4.89
426.699	4.86
427.141	4.85
427.582	4.83
428.024	4.83
428.465	4.81
428.907	4.8
429.348	4.78
429.789	4.77
430.231	4.8
430.672	4.82
431.113	4.84
431.554	4.86
431.995	4.84
432.436	4.84
432.877	4.83
433.318	4.85
433.759	4.87
434.2	4.89
434.64	4.9
435.081	4.89
435.522	4.89
435.962	4.89
436.403	4.91
436.843	4.93
437.284	4.93
437.724	4.94
438.164	4.93
438.604	4.94
439.045	4.93
439.485	4.93
439.925	4.95
440.365	4.96
440.805	4.96
441.245	4.98
441.685	5.01
442.125	5.05
442.564	5.08
443.004	5.09
443.444	5.1
443.883	5.13
444.323	5.15
444.762	5.16
445.202	5.18
445.641	5.22
446.081	5.23
446.52	5.24
446.959	5.27
447.398	5.3
447.837	5.32
448.276	5.34
448.716	5.37
449.154	5.39
449.593	5.42
450.032	5.43
450.471	5.42
450.91	5.43
451.349	5.46
451.787	5.46
452.226	5.45
452.664	5.47
453.103	5.47
453.541	5.46
453.98	5.48
454.418	5.48
454.856	5.48
455.295	5.48
455.733	5.46
456.171	5.45
456.609	5.45
457.047	5.45
457.485	5.43
457.923	5.43
458.361	5.41
458.798	5.4
459.236	5.4
459.674	5.39
460.111	5.38
460.549	5.39
460.987	5.38
461.424	5.38
461.862	5.4
462.299	5.42
462.736	5.42
463.173	5.43
463.611	5.44
464.048	5.44
464.485	5.44
464.922	5.44
465.359	5.45
465.796	5.48
466.233	5.48
466.67	5.47
467.106	5.47
467.543	5.46
467.98	5.46
468.416	5.45
468.853	5.45
469.29	5.45
469.726	5.45
470.162	5.44
470.599	5.42
471.035	5.4
471.471	5.4
471.907	5.39
472.344	5.39
472.78	5.4
473.216	5.39
473.652	5.4
474.088	5.38
474.523	5.4
474.959	5.4
475.395	5.4
475.831	5.41
476.266	5.41
476.702	5.41
477.138	5.42
477.573	5.42
478.008	5.43
478.444	5.42
478.879	5.45
479.314	5.45
479.75	5.46
480.185	5.46
480.62	5.45
481.055	5.46
481.49	5.46
481.925	5.47
482.36	5.48
482.795	5.48
483.229	5.48
483.664	5.49
484.099	5.5
484.534	5.51
484.968	5.53
485.403	5.54
485.837	5.56
486.271	5.59
486.706	5.6
487.14	5.61
487.574	5.63
488.009	5.66
488.443	5.69
488.877	5.73
489.311	5.76
489.745	5.8
490.179	5.84
490.613	5.89
491.046	5.93
491.48	5.98
491.914	6.04
492.348	6.1
492.781	6.17
493.215	6.22
493.648	6.28
494.082	6.34
494.515	6.41
494.948	6.48
495.382	6.55
495.815	6.63
496.248	6.72
496.681	6.81
497.114	6.89
497.547	6.98
497.98	7.09
498.413	7.18
498.846	7.29
499.279	7.4
499.711	7.51
500.144	7.63
500.577	7.75
501.009	7.87
501.442	8
501.874	8.13
502.306	8.27
502.739	8.43
503.171	8.59
503.603	8.74
504.036	8.91
504.468	9.09
504.9	9.26
505.332	9.44
505.764	9.63
506.196	9.83
506.627	10.04
507.059	10.25
507.491	10.44
507.923	10.66
508.354	10.89
508.786	11.12
509.217	11.35
509.649	11.6
510.08	11.86
510.512	12.11
510.943	12.36
511.374	12.61
511.805	12.87
512.237	13.13
512.668	13.4
513.099	13.67
513.53	13.93
513.961	14.22
514.391	14.49
514.822	14.76
515.253	15.04
515.684	15.31
516.114	15.61
516.545	15.89
516.975	16.19
517.406	16.46
517.836	16.74
518.267	17.04
518.697	17.32
519.127	17.58
519.558	17.86
519.988	18.15
520.418	18.43
520.848	18.68
521.278	18.94
521.708	19.4
522.138	19.67
522.567	19.91
522.997	20.13
523.427	20.36
523.857	20.58
524.286	20.79
524.716	20.99
525.145	21.21
525.575	21.41
526.004	21.61
526.433	21.6
526.863	21.75
527.292	21.95
527.721	22.12
528.15	22.3
528.579	22.46
529.008	22.62
529.437	22.77
529.866	22.88
530.295	23.02
530.724	23.14
531.152	23.26
531.581	23.4
532.01	23.49
532.438	23.59
532.867	23.69
533.295	23.79
533.723	23.87
534.152	23.94
534.58	24.03
535.008	24.08
535.436	24.16
535.865	24.21
536.293	24.25
536.721	24.31
537.149	24.37
537.576	24.42
538.004	24.46
538.432	24.51
538.86	24.56
539.287	24.59
539.715	24.64
540.143	24.66
540.57	24.7
540.998	24.75
541.425	24.79
541.852	24.8
542.28	24.84
542.707	24.86
543.134	24.9
543.561	24.93
543.988	24.95
544.415	24.97
544.842	25
545.269	25.02
545.696	25.05
546.123	25.06
546.549	25.09
546.976	25.11
547.403	25.14
547.829	25.14
548.256	25.16
548.682	25.19
549.108	25.22
549.535	25.25
549.961	25.27
550.387	25.27
550.813	25.29
551.24	25.3
551.666	25.29
552.092	25.3
552.518	25.31
552.943	25.31
553.369	25.3
553.795	25.28
554.221	25.25
554.646	25.22
555.072	25.2
555.498	25.15
555.923	25.1
556.349	25.05
556.774	25
557.199	24.97
557.625	24.91
558.05	24.87
558.475	24.81
558.9	24.76
559.325	24.71
559.75	24.65
560.175	24.58
560.6	24.5
561.025	24.44
561.449	24.35
561.874	24.26
562.299	24.17
562.723	24.07
563.148	23.95
563.572	23.83
563.997	23.71
564.421	23.57
564.846	23.45
565.27	23.34
565.694	23.23
566.118	23.11
566.542	22.98
566.966	22.83
567.39	22.7
567.814	22.58
568.238	22.46
568.662	22.34
569.086	22.2
569.509	22.08
569.933	21.96
570.357	21.82
570.78	21.69
571.204	21.56
571.627	21.45
572.05	21.33
572.474	21.23
572.897	21.1
573.32	21
573.743	20.9
574.166	20.77
574.589	20.66
575.012	20.57
575.435	20.46
575.858	20.36
576.281	20.27
576.704	20.19
577.126	20.09
577.549	20.01
577.972	19.91
578.394	19.82
578.817	19.75
579.239	19.67
579.661	19.58
580.084	19.51
580.506	19.43
580.928	19.35
581.35	19.27
581.772	19.2
582.194	19.12
582.616	19.06
583.038	18.98
583.46	18.9
583.882	18.85
584.303	18.78
584.725	18.72
585.147	18.66
585.568	18.6
585.99	18.54
586.411	18.48
586.833	18.42
587.254	18.36
587.675	18.32
588.096	18.27
588.518	18.21
588.939	18.18
589.36	18.11
589.781	18.06
590.202	18.03
590.623	17.98
591.043	17.95
591.464	17.91
591.885	17.87
592.305	17.83
592.726	17.8
593.147	17.76
593.567	17.71
593.987	17.69
594.408	17.66
594.828	17.62
595.248	17.6
595.669	17.57
596.089	17.55
596.509	17.53
596.929	17.5
597.349	17.47
597.769	17.44
598.189	17.41
598.608	17.38
599.028	17.35
599.448	17.3
599.867	17.25
600.287	17.2
600.706	17.16
601.126	17.12
601.545	17.09
601.965	17.05
602.384	17.01
602.803	16.96
603.222	16.91
603.641	16.85
604.061	16.81
604.48	16.75
604.898	16.69
605.317	16.63
605.736	16.58
606.155	16.51
606.574	16.45
606.992	16.36
607.411	16.3
607.829	16.2
608.248	16.12
608.666	16.04
609.085	15.97
609.503	15.91
609.921	15.83
610.339	15.74
610.758	15.66
611.176	15.57
611.594	15.5
612.012	15.42
612.43	15.36
612.847	15.29
613.265	15.21
613.683	15.14
614.101	15.07
614.518	15
614.936	14.93
615.353	14.85
615.771	14.81
616.188	14.74
616.606	14.68
617.023	14.63
617.44	14.58
617.857	14.53
618.274	14.46
618.691	14.41
619.108	14.36
619.525	14.3
619.942	14.26
620.359	14.21
620.776	14.17
621.192	14.14
621.609	14.1
622.026	14.06
622.442	14.04
622.859	14.01
623.275	13.98
623.691	13.96
624.108	13.95
624.524	13.93
624.94	13.91
625.356	13.89
625.772	13.87
626.188	13.85
626.604	13.84
627.02	13.84
627.436	13.84
627.852	13.83
628.268	13.82
628.683	13.81
629.099	13.8
629.514	13.79
629.93	13.77
630.345	13.74
630.761	13.7
631.176	13.67
631.591	13.63
632.007	13.58
632.422	13.53
632.837	13.48
633.252	13.42
633.667	13.36
634.082	13.27
634.497	13.19
634.911	13.12
635.326	13.04
635.741	12.95
636.155	12.85
636.57	12.76
636.984	12.65
637.399	12.54
637.813	12.42
638.228	12.29
638.642	12.17
639.056	12.04
639.47	11.91
639.884	11.79
640.298	11.65
640.712	11.52
641.126	11.38
641.54	11.25
641.954	11.11
642.368	10.98
642.781	10.86
643.195	10.74
643.609	10.62
644.022	10.5
644.436	10.38
644.849	10.27
645.262	10.15
645.676	10.05
646.089	9.95
646.502	9.86
646.915	9.78
647.328	9.7
647.741	9.61
648.154	9.54
648.567	9.48
648.98	9.41
649.393	9.35
649.805	9.31
650.218	9.25
650.631	9.2
651.043	9.15
651.456	9.1
651.868	9.05
652.28	9
652.693	8.95
653.105	8.89
653.517	8.83
653.929	8.77
654.341	8.7
654.753	8.64
655.165	8.56
655.577	8.5
655.989	8.41
656.401	8.32
656.813	8.24
657.224	8.13
657.636	8.03
658.047	7.94
658.459	7.84
658.87	7.73
659.282	7.62
659.693	7.51
660.104	7.4
660.515	7.29
660.926	7.18
661.338	7.07
661.749	6.98
662.159	6.87
662.57	6.78
662.981	6.69
663.392	6.59
663.803	6.5
664.213	6.41
664.624	6.32
665.035	6.24
665.445	6.17
665.855	6.1
666.266	6.04
666.676	5.98
667.086	5.92
667.497	5.86
667.907	5.81
668.317	5.77
668.727	5.73
669.137	5.7
669.547	5.67
669.956	5.64
670.366	5.61
670.776	5.59
671.186	5.57
671.595	5.55
672.005	5.54
672.414	5.53
672.824	5.53
673.233	5.53
673.642	5.53
674.052	5.53
674.461	5.55
674.87	5.56
675.279	5.58
675.688	5.6
676.097	5.62
676.506	5.65
676.915	5.67
677.323	5.7
677.732	5.73
678.141	5.78
678.549	5.82
678.958	5.87
679.366	5.94
679.775	6.01
680.183	6.1
680.592	6.21
681	6.32
681.408	6.45
681.816	6.59
682.224	6.74
682.632	6.92
683.04	7.11
683.448	7.31
683.856	7.53
684.264	7.77
684.671	8.02
685.079	8.3
685.487	8.6
685.894	8.92
686.302	9.27
686.709	9.64
687.116	10.03
687.524	10.44
687.931	10.88
688.338	11.33
688.745	11.78
689.152	12.26
689.559	12.77
689.966	13.29
690.373	13.82
690.78	14.36
691.187	14.9
691.593	15.45
692	15.99
692.407	16.52
692.813	17.08
693.22	17.64
693.626	18.19
694.032	18.74
694.439	19.29
694.845	19.84
695.251	20.38
695.657	20.91
696.063	21.44
696.469	21.97
696.875	22.49
697.281	22.99
697.687	23.5
698.093	23.99
698.498	24.47
698.904	24.94
699.31	25.4
699.715	25.85
700.12	26.3
700.526	26.73
700.931	27.16
701.337	27.59
701.742	28
702.147	28.39
702.552	28.79
702.957	29.15
703.362	29.51
703.767	29.87
704.172	30.21
704.577	30.53
704.981	30.88
705.386	31.19
705.791	31.51
706.195	31.83
706.6	32.13
707.004	32.43
707.408	32.73
707.813	33.02
708.217	33.3
708.621	33.58
709.025	33.86
709.43	34.1
709.834	34.38
710.237	34.61
710.641	34.86
711.045	35.1
711.449	35.33
711.853	35.58
712.256	35.81
712.66	36.03
713.064	36.21
713.467	36.43
713.87	36.66
714.274	36.83
714.677	37.05
715.08	37.21
715.484	37.41
715.887	37.61
716.29	37.76
716.693	37.95
717.096	38.13
717.499	38.33
717.901	38.48
718.304	38.62
718.707	38.8
719.109	38.95
719.512	39.11
719.915	39.28
720.317	39.4
720.719	39.51
721.122	39.63
721.524	39.75
721.926	39.88
722.328	40.01
722.731	40.13
723.133	40.25
723.535	40.36
723.937	40.46
724.338	40.53
724.74	40.64
725.142	40.91
725.544	41.01
725.945	41.15
726.347	41.21
726.748	41.29
727.15	41.36
727.551	41.45
727.952	41.53
728.354	41.6
728.755	41.66
729.156	41.73
729.557	41.65
729.958	41.71
730.359	41.74
730.76	41.84
731.161	41.92
731.562	42
731.962	42.03
732.363	42.07
732.763	42.12
733.164	42.18
733.564	42.24
733.965	42.3
734.365	42.35
734.766	42.39
735.166	42.42
735.566	42.45
735.966	42.49
736.366	42.52
736.766	42.55
737.166	42.6
737.566	42.65
737.966	42.66
738.365	42.68
738.765	42.72
739.165	42.75
739.564	42.77
739.964	42.8
740.363	42.8
740.763	42.83
741.162	42.86
741.561	42.87
741.96	42.86
742.36	42.89
742.759	42.9
743.158	42.9
743.557	42.91
743.955	42.93
744.354	42.95
744.753	42.98
745.152	43
745.55	43.01
745.949	43.03
746.348	43.07
746.746	43.07
747.144	43.1
747.543	43.11
747.941	43.13
748.339	43.13
748.737	43.14
749.136	43.13
749.534	43.11
749.932	43.11
750.33	43.11
750.727	43.13
751.125	43.15
751.523	43.13
751.921	43.13
752.318	43.13
752.716	43.14
753.113	43.14
753.511	43.17
753.908	43.22
754.305	43.24
754.703	43.23
755.1	43.21
755.497	43.22
755.894	43.23
756.291	43.21
756.688	43.2
757.085	43.2
757.482	43.21
757.878	43.22
758.275	43.18
758.672	43.16
759.068	43.2
759.465	43.21
759.861	43.2
760.258	43.2
760.654	43.22
761.05	43.26
761.447	43.28
761.843	43.27
762.239	43.26
762.635	43.28
763.031	43.27
763.427	43.22
763.822	43.24
764.218	43.24
764.614	43.26
765.01	43.26
765.405	43.24
765.801	43.19
766.196	43.2
766.592	43.19
766.987	43.18
767.382	43.2
767.778	43.21
768.173	43.2
768.568	43.19
768.963	43.18
769.358	43.18
769.753	43.2
770.148	43.21
770.542	43.2
770.937	43.22
771.332	43.24
771.726	43.26
772.121	43.28
772.515	43.28
772.91	43.28
773.304	43.3
773.699	43.29
774.093	43.26
774.487	43.26
774.881	43.3
775.275	43.28
775.669	43.26
776.063	43.24
776.457	43.25
776.851	43.24
777.245	43.21
777.638	43.2
778.032	43.21
778.425	43.27
778.819	43.28
779.212	43.27
779.606	43.29
779.999	43.29
780.392	43.32
780.786	43.29
781.179	43.3
781.572	43.35
781.965	43.35
782.358	43.36
782.751	43.31
783.143	43.32
783.536	43.31
783.929	43.3
784.322	43.32
784.714	43.32
785.107	43.35
785.499	43.36
785.891	43.34
786.284	43.35
786.676	43.35
787.068	43.39
787.46	43.41
787.852	43.42
788.245	43.42
788.636	43.42
789.028	43.41
789.42	43.38
789.812	43.39
790.204	43.41
790.595	43.42
790.987	43.43
791.378	43.45
791.77	43.44
792.161	43.42
792.553	43.43
792.944	43.43
793.335	43.44
793.726	43.49
794.117	43.48
794.508	43.46
794.899	43.44
795.29	43.44
795.681	43.4
796.072	43.4
796.463	43.48
796.853	43.49
797.244	43.51
797.634	43.5
798.025	43.48
798.415	43.48
798.806	43.48
799.196	43.51
799.586	43.5
799.976	43.52
800.366	43.53
800.756	43.49
801.146	43.5
801.536	43.5
801.926	43.48
802.316	43.49
802.706	43.52
803.095	43.57
803.485	43.58
803.874	43.6
804.264	43.62
804.653	43.63
805.043	43.64
805.432	43.64
805.821	43.63
806.21	43.68
806.599	43.68
806.988	43.67
807.377	43.65
807.766	43.66
808.155	43.64
808.544	43.66
808.933	43.67
809.321	43.69
809.71	43.68
810.098	43.69
810.487	43.67
810.875	43.7
811.264	43.7
811.652	43.74
812.04	43.73
812.428	43.78
812.816	43.76
813.204	43.74
813.592	43.71
813.98	43.72
814.368	43.75
814.756	43.77
815.144	43.73
815.531	43.74
815.919	43.71
816.306	43.71
816.694	43.67
817.081	43.67
817.469	43.7
817.856	43.71
818.243	43.72
818.63	43.7
819.017	43.69
819.404	43.69
819.791	43.69
820.178	43.7
820.565	43.68
820.952	43.7
821.339	43.72
821.725	43.73
822.112	43.75
822.498	43.76
822.885	43.78
823.271	43.78
823.657	43.78
824.044	43.79
824.43	43.79
824.816	43.8
825.202	43.79
825.588	43.78
825.974	43.77
826.36	43.76
826.746	43.72
827.132	43.71
827.517	43.72
827.903	43.75
828.289	43.77
828.674	43.78
829.06	43.79
829.445	43.79
829.83	43.8
830.216	43.79
830.601	43.8
830.986	43.83
831.371	43.81
831.756	43.81
832.141	43.82
832.526	43.78
832.911	43.74
833.295	43.73
833.68	43.74
834.065	43.74
834.449	43.72
834.834	43.71
835.218	43.69
835.603	43.71
835.987	43.69
836.371	43.67
836.755	43.65
837.139	43.66
837.524	43.65
837.908	43.64
838.291	43.65
838.675	43.64
839.059	43.65
839.443	43.64
839.827	43.61
840.21	43.6
840.594	43.61
840.977	43.59
841.361	43.61
841.744	43.58
842.127	43.57
842.511	43.55
842.894	43.57
843.277	43.55
843.66	43.54
844.043	43.56
844.426	43.56
844.809	43.57
845.191	43.57
845.574	43.58
845.957	43.6
846.339	43.63
846.722	43.64
847.104	43.64
847.487	43.63
847.869	43.63
848.252	43.63
848.634	43.66
849.016	43.66
849.398	43.69
849.78	43.68
850.162	43.67
850.544	43.64
850.926	43.62
851.307	43.59
851.689	43.6
852.071	43.6
852.452	43.6
852.834	43.57
853.215	43.54
853.597	43.55
853.978	43.56
854.359	43.58
854.741	43.59
855.122	43.6
855.503	43.62
855.884	43.61
856.265	43.62
856.646	43.61
857.026	43.64
857.407	43.67
857.788	43.64
858.169	43.64
858.549	43.65
858.93	43.68
859.31	43.68
859.69	43.69
860.071	43.71
860.451	43.73
860.831	43.75
861.211	43.71
861.591	43.71
861.971	43.7
862.351	43.72
862.731	43.72
863.111	43.7
863.491	43.71
863.87	43.69
864.25	43.68
864.629	43.69
865.009	43.69
865.388	43.69
865.768	43.68
866.147	43.7
866.526	43.69
866.905	43.69
867.284	43.69
867.663	43.68
868.042	43.67
868.421	43.66
868.8	43.67
869.179	43.67
869.558	43.67
869.936	43.68
870.315	43.67
870.693	43.66
871.072	43.68
871.45	43.67
871.828	43.69
872.207	43.72
872.585	43.71
872.963	43.71
873.341	43.71
873.719	43.72
874.097	43.7
874.475	43.7
874.853	43.71
875.23	43.71
875.608	43.72
875.986	43.73
876.363	43.73
876.741	43.75
877.118	43.77
877.495	43.77
877.873	43.8
878.25	43.82
878.627	43.83
879.004	43.84
879.381	43.82
879.758	43.81
880.135	43.8
880.512	43.77
880.889	43.76
881.265	43.75
881.642	43.74
882.019	43.72
882.395	43.72
882.772	43.72
883.148	43.69
883.524	43.68
883.901	43.67
884.277	43.66
884.653	43.66
885.029	43.67
885.405	43.66
885.781	43.66
886.157	43.66
886.532	43.65
886.908	43.62
887.284	43.62
887.659	43.61
888.035	43.59
888.411	43.58
888.786	43.58
889.161	43.56
889.537	43.55
889.912	43.53
890.287	43.52
890.662	43.52
891.037	43.52
891.412	43.52
891.787	43.51
892.162	43.51
892.536	43.52
892.911	43.51
893.286	43.5
893.66	43.5
894.035	43.51
894.409	43.5
894.784	43.5
895.158	43.49
895.532	43.49
895.906	43.51
896.281	43.5
896.655	43.51
897.029	43.51
897.402	43.52
897.776	43.54
898.15	43.55
898.524	43.55
898.898	43.54
899.271	43.54
899.645	43.56
900.018	43.57
900.392	43.6
900.765	43.62
901.138	43.6
901.511	43.6
901.884	43.59
902.258	43.6
902.631	43.61
903.003	43.64
903.376	43.63
903.749	43.62
904.122	43.62
904.495	43.62
904.867	43.62
905.24	43.67
905.612	43.69
905.985	43.68
906.357	43.67
906.729	43.69
907.102	43.68
907.474	43.71
907.846	43.74
908.218	43.74
908.59	43.74
908.962	43.72
909.334	43.72
909.705	43.69
910.077	43.71
910.449	43.71
910.82	43.72
911.192	43.7
911.563	43.68
911.935	43.67
912.306	43.67
912.677	43.66
913.048	43.7
913.419	43.68
913.79	43.69
914.161	43.68
914.532	43.7
914.903	43.69
915.274	43.69
915.645	43.72
916.015	43.7
916.386	43.69
916.756	43.71
917.127	43.68
917.497	43.69
917.868	43.67
918.238	43.65
918.608	43.63
918.978	43.64
919.348	43.65
919.718	43.62
920.088	43.63
920.458	43.65
920.828	43.62
921.198	43.61
921.567	43.61
921.937	43.63
922.306	43.63
922.676	43.61
923.045	43.62
923.415	43.62
923.784	43.65
924.153	43.65
924.522	43.65
924.891	43.68
925.26	43.69
925.629	43.71
925.998	43.72
926.367	43.71
926.736	43.76
927.104	43.75
927.473	43.77
927.842	43.74
928.21	43.75
928.578	43.72
928.947	43.71
929.315	43.7
929.683	43.69
930.051	43.69
930.42	43.71
930.788	43.67
931.156	43.65
931.523	43.64
931.891	43.67
932.259	43.71
932.627	43.75
932.994	43.73
933.362	43.72
933.729	43.69
934.097	43.71
934.464	43.74
934.831	43.77
935.199	43.83
935.566	43.8
935.933	43.71
936.3	43.67
936.667	43.65
937.034	43.71
937.401	43.71
937.767	43.75
938.134	43.73
938.501	43.7
938.867	43.69
939.234	43.66
939.6	43.7
939.967	43.76
940.333	43.73
940.699	43.73
941.065	43.69
941.431	43.69
941.798	43.65
942.163	43.65
942.529	43.62
942.895	43.6
943.261	43.55
943.627	43.52
943.992	43.55
944.358	43.59
944.723	43.53
945.089	43.44
945.454	43.4
945.82	43.4
946.185	43.38
946.55	43.33
946.915	43.31
947.28	43.27
947.645	43.31
948.01	43.3
948.375	43.3
948.74	43.31
949.104	43.39
949.469	43.4
949.834	43.39
950.198	43.37
950.562	43.34
950.927	43.31
951.291	43.28
951.655	43.22
952.02	43.18
952.384	43.11
952.748	43.11
953.112	43.05
953.476	43.04
953.839	42.98
954.203	43.01
954.567	43.04
954.931	42.98
955.294	42.95
955.658	43
956.021	42.98
956.385	42.97
956.748	42.95
957.111	42.95
957.474	42.92
957.837	42.88
958.2	42.8
958.563	42.76
958.926	42.78
959.289	42.81
959.652	42.75
960.015	42.71
960.377	42.7
960.74	42.73
961.102	42.72
961.465	42.74
961.827	42.86
962.189	42.88
962.552	42.9
962.914	42.89
963.276	42.95
963.638	42.94
964	42.97
964.362	43
964.724	42.94
965.085	42.9
965.447	42.88
965.809	42.83
966.17	42.8
966.532	42.78
966.893	42.8
967.255	42.76
967.616	42.78
967.977	42.83
968.338	42.81
968.699	42.84
969.061	42.88
969.421	42.86
969.782	42.85
970.143	42.89
970.504	42.96
970.865	43
971.225	42.97
971.586	42.99
971.946	42.95
972.307	42.96
972.667	42.92
973.027	42.92
973.388	42.95
973.748	42.9
974.108	42.93
974.468	42.88
974.828	42.91
975.188	42.9
975.548	42.84
975.907	42.82
976.267	42.81
976.627	42.81
976.986	42.81
977.346	42.75
977.705	42.81
978.064	42.83
978.424	42.85
978.783	42.79
979.142	42.78
979.501	42.85
979.86	42.9
980.219	42.93
980.578	42.98
980.937	43
981.296	43
981.654	42.99
982.013	43.01
982.371	43.03
982.73	43.03
983.088	43.01
983.447	42.95
983.805	42.97
984.163	42.94
984.521	42.94
984.879	42.91
985.237	42.96
985.595	43.07
985.953	42.95
986.311	42.91
986.669	42.95
987.026	42.99
987.384	43.02
987.741	43.02
988.099	43.01
988.456	42.95
988.814	43.02
989.171	42.97
989.528	42.84
989.885	42.83
990.242	42.86
990.599	42.88
990.956	42.84
991.313	42.83
991.67	42.77
992.027	42.95
992.383	43.02
992.74	43.01
993.096	43.07
993.453	43.12
993.809	43.23
994.165	43.21
994.522	43.26
994.878	43.37
995.234	43.41
995.59	43.45
995.946	43.34
996.302	43.35
996.658	43.34
997.013	43.28
997.369	43.27
997.725	43.28
998.08	43.36
998.436	43.28
998.791	43.21
999.147	43.18
999.502	43.2
999.857	43.21
1000.212	43.11
1000.567	43.07
1000.922	43.11
1001.277	43.13
1001.632	43.09
1001.987	43.08
1002.342	43.07
1002.696	43.18
1003.051	43.33
1003.406	43.44
1003.76	43.36
1004.114	43.38
1004.469	43.53
1004.823	43.82
1005.177	43.85
1005.531	43.84
1005.885	43.94
1006.239	44.02
1006.593	44.06
1006.947	43.97
1007.301	43.79
1007.655	43.86
1008.008	43.97
1008.362	44
1008.715	43.75
1009.069	43.75
1009.422	43.8
1009.776	43.71
1010.129	43.64
1010.482	43.58
1010.835	43.57
1011.188	43.68
1011.541	43.78
1011.894	43.78
1012.247	43.67
1012.6	43.69
1012.952	43.73
1013.305	43.84
1013.657	43.97
1014.01	44.05
1014.362	44.1
1014.715	44.29
1015.067	44.34
1015.419	44.34
1015.771	44.29
1016.123	44.33
1016.475	44.39
1016.827	44.46
1017.179	44.4
1017.531	44.44
1017.883	44.43
1018.234	44.47
1018.586	44.48
1018.938	44.61
1019.289	44.55
1019.64	44.67
1019.992	44.65
1020.343	44.63
1020.694	44.65
1021.045	44.84
1021.396	44.69
1021.747	44.75
1022.098	44.87
1022.449	44.64
1022.8	44.61
1023.151	44.54
1023.501	44.78
1023.852	44.74
1024.202	44.69
1024.553	44.52
1024.903	44.49
1025.253	44.7
1025.604	44.82
1025.954	44.4
1026.304	44.45
1026.654	44.55
1027.004	44.44
1027.354	43.92
1027.703	43.86
1028.053	44
1028.403	44.21
1028.753	43.81
1029.102	43.77
1029.452	43.56
1029.801	43.89
1030.15	43.91
1030.499	43.57
897.758	1769.15
901.051	1769.49
904.343	1767.27
907.636	1801.02
910.928	1755.46
914.22	1747.12
917.511	1723.49
920.803	1648.06
924.094	1636.52
927.384	1596.9
930.675	1529.32
933.965	1517.33
937.255	1434.06
940.544	1374.25
943.834	1303.4
947.123	1287.68
950.411	1214.74
953.7	1186.28
956.988	1122.16
960.276	1076.74
963.563	1060.19
966.851	1022.54
970.138	1013.84
973.424	978.45
976.711	982.77
979.997	935
983.283	931.92
986.568	912.14
989.853	882.14
993.138	868.59
996.423	836.04
999.708	813.21
1002.992	803.79
1006.275	766.85
1009.559	759.26
1012.842	732.87
1016.125	712.33
1019.408	699.05
1022.69	688.06
1025.972	676.91
1029.254	658.44
1032.536	647.41
1035.817	633.2
1039.098	624.24
1042.379	610.68
1045.659	604.28
1048.939	588.64
1052.219	576.6
1055.498	567.74
1058.778	555.74
1062.057	541.04
1065.335	535.15
1068.614	527.73
1071.892	522.82
1075.17	505.88
1078.447	495.9
1081.724	492.56
1085.001	488.82
1088.278	478.19
1091.554	468.48
1094.83	468.53
1098.106	466.24
1101.382	461.96
1104.657	458.43
1107.932	450.12
1111.206	452.01
1114.481	440.97
1117.755	436.72
1121.029	433.24
1124.302	433.96
1127.575	425.09
1130.848	419.36
1134.121	414.4
1137.393	412.54
1140.665	404.95
1143.937	402.47
1147.208	398.11
1150.48	398.32
1153.75	391.62
1157.021	385.9
1160.291	385.02
1163.561	380.76
1166.831	381.27
1170.101	378.64
1173.37	376.71
1176.639	377.14
1179.907	373.58
1183.176	370.73
1186.444	370.38
1189.711	370.17
1192.979	368.45
1196.246	366.01
1199.513	368.16
1202.78	365.22
1206.046	365.39
1209.312	361.27
1212.578	361.83
1215.843	364.68
1219.108	362.18
1222.373	369.67
1225.638	372.68
1228.902	379.41
1232.166	378.97
1235.43	381.47
1238.693	387.36
1241.956	388.88
1245.219	397.14
1248.482	395.79
1251.744	396.09
1255.006	397.57
1258.268	386.72
1261.529	382.92
1264.79	379.81
1268.051	378.26
1271.312	373.56
1274.572	367.98
1277.832	365.02
1281.092	358.05
1284.351	356.01
1287.61	355.46
1290.869	349.93
1294.128	348.22
1297.386	348.61
1300.644	344.41
1303.902	345.79
1307.159	343.38
1310.416	344.86
1313.673	344.11
1316.93	347.6
1320.186	348.1
1323.442	349.22
1326.697	356.44
1329.953	356.49
1333.208	358.2
1336.463	362.56
1339.717	363.36
1342.972	367.67
1346.226	370.51
1349.479	370.99
1352.733	373.49
1355.986	374.28
1359.238	374.47
1362.491	376.63
1365.743	381.54
1368.995	381.22
1372.247	380
1375.498	380.63
1378.749	385.7
1382	379.57
1385.251	382.27
1388.501	379.69
1391.751	383.25
1395	380.62
1398.25	378.03
1401.499	376.03
1404.748	376.22
1407.996	372.46
1411.244	370.16
1414.492	367.93
1417.74	366.37
1420.987	359.23
1424.234	360.33
1427.481	353.75
1430.728	354.85
1433.974	350.68
1437.22	347.01
1440.465	345.78
1443.711	344.2
1446.956	342.77
1450.201	337.1
1453.445	334.19
1456.689	334.09
1459.933	327.02
1463.177	325.29
1466.42	319.49
1469.663	316.28
1472.906	315.18
1476.148	306.61
1479.391	302.21
1482.633	298.69
1485.874	295.04
1489.115	292.84
1492.356	288.91
1495.597	288.52
1498.838	283.85
1502.078	281.95
1505.318	280.21
1508.557	279.88
1511.797	280.13
1515.036	278.49
1518.274	278.07
1521.513	274.63
1524.751	274.44
1527.989	273.71
1531.227	272.32
1534.464	273.65
1537.701	271.1
1540.938	270.18
1544.174	266.8
1547.41	265.88
1550.646	264.68
1553.882	264.54
1557.117	261.92
1560.352	260.08
1563.587	258.9
1566.821	257.18
1570.055	253.87
1573.289	252.24
1576.523	252.21
1579.756	250.21
1582.989	248.91
1586.222	248.42
1589.454	246.98
1592.686	248.89
1595.918	247.67
1599.15	247.04
1602.381	246.88
1605.612	246.96
1608.843	248.51
1612.073	247.33
1615.303	249.01
1618.533	249.21
1621.762	248.27
1624.992	248.08
1628.221	247.74
1631.449	247.48
1634.678	246.96
1637.906	248.46
1641.134	248.01
1644.361	247.2
1647.588	248.58
1650.815	246.91
1654.042	245.66
1657.269	248.07
1660.495	248.06
1663.72	245.84
1666.946	246.92
1670.171	247.39
1673.396	246.62
1676.621	246.92
1679.845	247.5
1683.069	246.98
1686.293	249.05
1689.517	250.31
1692.74	249.48
1695.963	250.54
1699.185	254.76
1702.408	255.1
1705.63	255.58
1708.852	256.83
1712.073	258.06
1715.294	258.03
1718.515	259.59
1721.736	259.03
1724.956	259.9
1728.176	260.03
1731.396	262.44
1734.616	261.14
1737.835	262.09
1741.054	260.42
1744.272	261.07
1747.491	263.32
1750.709	264.27
1753.927	264.48
1757.144	263.27
1760.361	265.09
1763.578	265.2
1766.795	264.67
1770.011	265.91
1773.227	266.03
1776.443	269.84
1779.658	271.24
1782.874	269.93
1786.089	270.8
1789.303	271.64
1792.518	275.38
1795.732	274.49
1798.945	278.04
1802.159	277.67
1805.372	278.93
1808.585	283.99
1811.797	285.15
1815.01	285.13
1818.222	287.99
1821.434	289.15
1824.645	291.08
1827.856	296.03
1831.067	299.32
1834.278	296.69
1837.488	299.36
1840.698	302.23
1843.908	298.83
1847.117	300.54
1850.326	302.88
1853.535	300.97
1856.744	307.38
1859.952	305.76
1863.16	304.69
1866.368	302.28
1869.575	308.35
1872.782	303.11
1875.989	301.24
1879.196	300.93
1882.402	299
1885.608	300.51
1888.814	302.56
1892.019	300.77
1895.224	301.15
1898.429	298.2
1901.634	300.97
1904.838	299.76
1908.042	304.73
1911.246	306.19
1914.449	307.73
1917.652	307.82
1920.855	307.31
1924.058	306.41
1927.26	305.22
1930.462	306.79
1933.664	311.54
1936.865	308.21
1940.066	309.41
1943.267	306.79
1946.467	306.74
1949.668	308.2
1952.868	313.06
1956.067	312.68
1959.267	313.24
1962.466	314.19
1965.665	312.01
1968.863	312.4
1972.061	317.55
1975.259	319.19
1978.457	322.21
1981.654	324.63
1984.852	326.3
1988.048	324.13
1991.245	326.82
1994.441	331.54
1997.637	333.26
2000.833	340.09
2004.028	344.85
2007.223	345.8
2010.418	350.41
2013.613	355.77
2016.807	359.52
2020.001	362.12
2023.194	368.05
2026.388	376.79
2029.581	383.87
2032.774	387.91
2035.966	395.38
2039.158	396.38
2042.35	405.11
2045.542	405.72
2048.733	411.07
2051.924	416.91
2055.115	423.06
2058.306	423.49
2061.496	428.23
2064.686	429.74
2067.875	436.57
2071.065	438.22
2074.254	435.01
2077.442	439.7
2080.631	443.02
2083.819	448.5
2087.007	447.4
2090.195	453.54
2093.382	457.63
2096.569	453.77
2099.756	461.13
2102.942	462.6
2106.128	466.51
2109.314	478.64
2112.5	476.56
2115.685	486.47
2118.87	487.04
2122.055	497.24
2125.239	500.71
2128.424	507.77
2131.608	510.78
2134.791	516.67
2137.974	519.75
2141.157	521.11
2144.34	521.04
2147.523	529.99
2150.705	525.75
2153.887	530.51
2157.068	533.06
2160.25	527.99
2163.431	529.13
2166.611	535.52
2169.792	546.27
2172.972	551.61
2176.152	555.11
2179.331	563.36
2182.511	573.23
2185.69	581.49
2188.868	593.07
2192.047	593.31
2195.225	610.19
2198.403	626.79
2201.58	637.9
2204.758	649.58
2207.935	662.68
2211.111	676.98
2214.288	684.45
2217.464	686.4
2220.64	692.66
2223.815	703.45
2226.991	733.06
2230.166	736.08
2233.34	747.76
2236.515	760.78
2239.689	760.77
2242.863	766.58
2246.036	789.03
2249.209	778.26
2252.382	790.29
2255.555	817.97
2258.727	819.46
2261.9	823.11
2265.071	829.34
2268.243	844.15
2271.414	853.79
2274.585	874.63
2277.756	883.31
2280.926	887.04
2284.096	912.48
2287.266	934.73
2290.436	941.21
2293.605	962.85
2296.774	994.33
2299.942	1026.59
2303.111	1030.63
2306.279	1054.17
2309.447	1066.9
2312.614	1094.73
2315.781	1127.11
2318.948	1178.59
2322.115	1157.34
2325.281	1219.94
2328.447	1194.92
2331.613	1243.96
2334.779	1229.01
2337.944	1281.24
2341.109	1296.6
2344.274	1330.12
2347.438	1377.64
2350.602	1377.88
2353.766	1420.01
2356.929	1441.81
2360.092	1428.81
2363.255	1539.05
2366.418	1529.63
2369.58	1561.23
2372.742	1658.55
2375.904	1699
2379.066	1689.07
2382.227	1653.3
2385.388	1789.44
2388.548	1790.97
2391.709	1815.94
2394.869	2032.32
2398.029	1929.98
2401.188	1989.1
2404.347	1979.59
2407.506	1947.78
2410.665	2002.73
2413.823	2128.25
2416.981	2255.34
2420.139	2182.12
2423.296	2153.42
2426.453	2250.69
2429.61	2157.45
2432.767	2268.68
2435.923	2248.77
2439.079	2447.07
2442.235	2481.56
2445.391	2457.54
2448.546	2436.52
2451.701	2371.97
2454.855	2373.36
2458.009	2523.73
2461.163	2620.63
2464.317	2717.2
2467.471	2787.11
2470.624	2777.42
2473.777	2712.44
2476.929	2641.3
2480.082	2573.83
2483.234	2541.45
2486.385	2660.88
2489.537	2671.21
2492.688	2774.79
2495.839	2691.41
2498.989	2636.4
2502.14	2652.91
2505.29	2692.43
2508.439	2732.3
2511.589	2727.29
2514.738	2962.72
2517.887	2903.09
2521.035	3070.3
2524.183	3083.51
2527.331	3105.98
2530.479	3101.6
2533.627	3122.15
