Data from N_3_DIV_IL_4N_Splice17_14-16-51-206.txt Node
Date: Sat Mar 07 14:16:51 EST 2020
User: sa697716
Spectrometer: NQ5500242
Trigger mode: 0
Integration Time (sec): 1.450000E-1
Scans to average: 20
Nonlinearity correction enabled: false
Boxcar width: 5
Storing dark spectrum: false
XAxis mode: Wavelengths
Number of Pixels in Spectrum: 512
>>>>>Begin Spectral Data<<<<<
187.83	140.37
188.298	149.46
188.766	115.6
189.233	100.46
189.701	107.06
190.169	137.02
190.636	115.66
191.104	96.75
191.571	-9.26
192.039	141.92
192.506	158.35
192.974	128.53
193.441	217
193.908	27.66
194.375	0.32
194.842	10.72
195.31	70.92
195.777	-83.63
196.244	54.24
196.711	70.8
197.177	73.83
197.644	74.61
198.111	74.33
198.578	75.58
199.045	76.33
199.511	77.08
199.978	77
200.445	77.04
200.911	77.26
201.378	77.51
201.844	77.73
202.31	77.59
202.777	77.64
203.243	77.91
203.709	76.88
204.176	76.1
204.642	75.3
205.108	75.13
205.574	74.76
206.04	74.14
206.506	73.71
206.972	73.44
207.438	72.79
207.903	71.65
208.369	70.33
208.835	69.25
209.301	68.05
209.766	66.24
210.232	64.79
210.697	63.27
211.163	61.69
211.628	60.38
212.094	58.78
212.559	57.72
213.024	56.7
213.49	55.72
213.955	54.89
214.42	54
214.885	52.72
215.35	50.98
215.815	48.48
216.28	45.76
216.745	42.5
217.21	39.25
217.675	36.24
218.14	33.6
218.604	31.26
219.069	29.23
219.534	27.58
219.998	26.32
220.463	25.17
220.927	24.19
221.392	23.37
221.856	22.69
222.32	22.16
222.785	21.63
223.249	21.18
223.713	20.72
224.177	20.37
224.642	20
225.106	19.59
225.57	19.22
226.034	18.91
226.497	18.62
226.961	18.31
227.425	18.01
227.889	17.74
228.353	17.45
228.816	17.19
229.28	16.93
229.744	16.68
230.207	16.46
230.671	16.23
231.134	16.03
231.597	15.83
232.061	15.62
232.524	15.43
232.987	15.22
233.45	15.04
233.914	14.86
234.377	14.68
234.84	14.5
235.303	14.35
235.766	14.19
236.229	14.03
236.691	13.87
237.154	13.73
237.617	13.59
238.08	13.47
238.542	13.34
239.005	13.22
239.468	13.08
239.93	12.97
240.393	12.85
240.855	12.72
241.317	12.6
241.78	12.48
242.242	12.35
242.704	12.24
243.166	12.12
243.629	12
244.091	11.89
244.553	11.78
245.015	11.66
245.477	11.55
245.939	11.43
246.4	11.34
246.862	11.23
247.324	11.14
247.786	11.03
248.247	10.93
248.709	10.83
249.17	10.74
249.632	10.66
250.093	10.57
250.555	10.49
251.016	10.42
251.477	10.33
251.939	10.26
252.4	10.19
252.861	10.13
253.322	10.06
253.783	10
254.244	9.93
254.705	9.86
255.166	9.8
255.627	9.74
256.088	9.69
256.549	9.63
257.009	9.57
257.47	9.5
257.931	9.43
258.391	9.36
258.852	9.28
259.312	9.23
259.773	9.17
260.233	9.11
260.694	9.06
261.154	8.98
261.614	8.93
262.074	8.86
262.534	8.81
262.994	8.76
263.455	8.72
263.915	8.68
264.374	8.64
264.834	8.61
265.294	8.57
265.754	8.54
266.214	8.51
266.673	8.49
267.133	8.47
267.593	8.45
268.052	8.43
268.512	8.4
268.971	8.38
269.431	8.35
269.89	8.33
270.349	8.31
270.809	8.28
271.268	8.26
271.727	8.23
272.186	8.2
272.645	8.18
273.104	8.15
273.563	8.13
274.022	8.1
274.481	8.08
274.94	8.06
275.399	8.03
275.857	8.02
276.316	8
276.775	7.98
277.233	7.96
277.692	7.93
278.15	7.92
278.609	7.9
279.067	7.88
279.525	7.87
279.984	7.85
280.442	7.83
280.9	7.82
281.358	7.8
281.816	7.79
282.274	7.77
282.732	7.75
283.19	7.74
283.648	7.73
284.106	7.71
284.564	7.7
285.021	7.69
285.479	7.68
285.937	7.66
286.394	7.65
286.852	7.64
287.309	7.63
287.767	7.61
288.224	7.58
288.682	7.55
289.139	7.52
289.596	7.49
290.053	7.45
290.511	7.41
290.968	7.38
291.425	7.35
291.882	7.32
292.339	7.28
292.796	7.26
293.252	7.24
293.709	7.21
294.166	7.2
294.623	7.18
295.079	7.16
295.536	7.14
295.992	7.12
296.449	7.1
296.905	7.08
297.362	7.06
297.818	7.04
298.274	7.02
298.731	7
299.187	6.98
299.643	6.95
300.099	6.94
300.555	6.91
301.011	6.9
301.467	6.88
301.923	6.85
302.379	6.84
302.835	6.83
303.291	6.81
303.746	6.8
304.202	6.8
304.658	6.79
305.113	6.78
305.569	6.78
306.024	6.77
306.479	6.76
306.935	6.76
307.39	6.76
307.845	6.75
308.301	6.75
308.756	6.74
309.211	6.74
309.666	6.74
310.121	6.74
310.576	6.74
311.031	6.74
311.486	6.74
311.94	6.74
312.395	6.74
312.85	6.75
313.305	6.74
313.759	6.73
314.214	6.72
314.668	6.71
315.123	6.71
315.577	6.7
316.032	6.68
316.486	6.67
316.94	6.64
317.394	6.62
317.849	6.58
318.303	6.56
318.757	6.53
319.211	6.51
319.665	6.48
320.119	6.45
320.572	6.43
321.026	6.42
321.48	6.4
321.934	6.38
322.387	6.37
322.841	6.35
323.295	6.34
323.748	6.33
324.202	6.32
324.655	6.31
325.108	6.3
325.562	6.28
326.015	6.27
326.468	6.27
326.921	6.26
327.374	6.25
327.827	6.25
328.28	6.25
328.733	6.25
329.186	6.24
329.639	6.24
330.092	6.23
330.545	6.24
330.997	6.23
331.45	6.23
331.903	6.24
332.355	6.24
332.808	6.24
333.26	6.23
333.713	6.22
334.165	6.21
334.617	6.22
335.069	6.22
335.522	6.22
335.974	6.23
336.426	6.23
336.878	6.22
337.33	6.22
337.782	6.23
338.234	6.23
338.686	6.22
339.137	6.22
339.589	6.2
340.041	6.19
340.493	6.17
340.944	6.15
341.396	6.13
341.847	6.11
342.299	6.08
342.75	6.05
343.201	6.02
343.653	6.01
344.104	5.98
344.555	5.96
345.006	5.94
345.457	5.93
345.908	5.92
346.359	5.9
346.81	5.89
347.261	5.88
347.712	5.87
348.163	5.86
348.613	5.86
349.064	5.86
349.515	5.86
349.965	5.86
350.416	5.85
350.866	5.84
351.317	5.83
351.767	5.83
352.217	5.83
352.668	5.83
353.118	5.83
353.568	5.82
354.018	5.83
354.468	5.83
354.918	5.83
355.368	5.84
355.818	5.85
356.268	5.85
356.718	5.86
357.168	5.85
357.617	5.86
358.067	5.86
358.517	5.87
358.966	5.88
359.416	5.87
359.865	5.87
360.315	5.88
360.764	5.89
361.213	5.9
361.663	5.9
362.112	5.92
362.561	5.94
363.01	5.95
363.459	5.95
363.908	5.95
364.357	5.98
364.806	5.99
365.255	6.01
365.703	6.03
366.152	6.05
366.601	6.08
367.05	6.1
367.498	6.12
367.947	6.15
368.395	6.19
368.844	6.22
369.292	6.25
369.74	6.28
370.189	6.31
370.637	6.35
371.085	6.38
371.533	6.4
371.981	6.44
372.429	6.48
372.877	6.52
373.325	6.56
373.773	6.6
374.221	6.65
374.669	6.69
375.116	6.74
375.564	6.77
376.012	6.83
376.459	6.89
376.907	6.93
377.354	6.99
377.801	7.04
378.249	7.09
378.696	7.14
379.143	7.21
379.591	7.27
380.038	7.32
380.485	7.38
380.932	7.43
381.379	7.49
381.826	7.54
382.273	7.58
382.72	7.62
383.166	7.67
383.613	7.72
384.06	7.74
384.506	7.78
384.953	7.82
385.4	7.85
385.846	7.91
386.292	7.94
386.739	7.99
387.185	8.03
387.631	8.08
388.078	8.13
388.524	8.17
388.97	8.21
389.416	8.26
389.862	8.29
390.308	8.33
390.754	8.37
391.2	8.41
391.645	8.45
392.091	8.48
392.537	8.51
392.983	8.54
393.428	8.57
393.874	8.6
394.319	8.62
394.765	8.63
395.21	8.65
395.655	8.66
396.101	8.67
396.546	8.68
396.991	8.69
397.436	8.7
397.881	8.72
398.326	8.73
398.771	8.73
399.216	8.76
399.661	8.78
400.106	8.79
400.551	8.78
400.995	8.78
401.44	8.76
401.885	8.75
402.329	8.74
402.774	8.73
403.218	8.74
403.663	8.74
404.107	8.74
404.551	8.71
404.995	8.7
405.44	8.7
405.884	8.69
406.328	8.7
406.772	8.69
407.216	8.7
407.66	8.69
408.104	8.66
408.547	8.65
408.991	8.64
409.435	8.62
409.879	8.61
410.322	8.62
410.766	8.62
411.209	8.62
411.653	8.61
412.096	8.6
412.54	8.61
412.983	8.61
413.426	8.64
413.869	8.64
414.312	8.68
414.756	8.71
415.199	8.71
415.642	8.72
416.085	8.72
416.527	8.74
416.97	8.73
417.413	8.7
417.856	8.68
418.298	8.66
418.741	8.64
419.184	8.63
419.626	8.61
420.069	8.59
420.511	8.58
420.953	8.57
421.396	8.56
421.838	8.57
422.28	8.58
422.722	8.61
423.164	8.61
423.606	8.62
424.048	8.61
424.49	8.6
424.932	8.59
425.374	8.58
425.816	8.55
426.258	8.51
426.699	8.48
427.141	8.45
427.582	8.43
428.024	8.42
428.465	8.42
428.907	8.42
429.348	8.4
429.789	8.38
430.231	8.39
430.672	8.41
431.113	8.43
431.554	8.45
431.995	8.47
432.436	8.48
432.877	8.48
433.318	8.5
433.759	8.52
434.2	8.55
434.64	8.59
435.081	8.59
435.522	8.62
435.962	8.64
436.403	8.68
436.843	8.71
437.284	8.73
437.724	8.74
438.164	8.74
438.604	8.75
439.045	8.75
439.485	8.76
439.925	8.78
440.365	8.78
440.805	8.77
441.245	8.79
441.685	8.81
442.125	8.83
442.564	8.85
443.004	8.88
443.444	8.89
443.883	8.92
444.323	8.92
444.762	8.96
445.202	8.98
445.641	9.03
446.081	9.05
446.52	9.06
446.959	9.1
447.398	9.12
447.837	9.13
448.276	9.17
448.716	9.21
449.154	9.25
449.593	9.27
450.032	9.29
450.471	9.3
450.91	9.3
451.349	9.31
451.787	9.3
452.226	9.29
452.664	9.29
453.103	9.27
453.541	9.25
453.98	9.24
454.418	9.21
454.856	9.19
455.295	9.17
455.733	9.14
456.171	9.11
456.609	9.11
457.047	9.1
457.485	9.07
457.923	9.06
458.361	9.03
458.798	9.01
459.236	9
459.674	8.99
460.111	8.97
460.549	8.98
460.987	8.98
461.424	8.97
461.862	8.95
462.299	8.96
462.736	8.95
463.173	8.95
463.611	8.95
464.048	8.94
464.485	8.94
464.922	8.93
465.359	8.93
465.796	8.92
466.233	8.93
466.67	8.94
467.106	8.93
467.543	8.93
467.98	8.93
468.416	8.93
468.853	8.94
469.29	8.95
469.726	8.96
470.162	8.96
470.599	8.97
471.035	8.94
471.471	8.94
471.907	8.94
472.344	8.94
472.78	8.95
473.216	8.94
473.652	8.93
474.088	8.92
474.523	8.91
474.959	8.91
475.395	8.9
475.831	8.9
476.266	8.91
476.702	8.9
477.138	8.9
477.573	8.89
478.008	8.9
478.444	8.87
478.879	8.88
479.314	8.87
479.75	8.86
480.185	8.85
480.62	8.85
481.055	8.83
481.49	8.82
481.925	8.8
482.36	8.8
482.795	8.8
483.229	8.8
483.664	8.79
484.099	8.79
484.534	8.79
484.968	8.79
485.403	8.8
485.837	8.81
486.271	8.83
486.706	8.84
487.14	8.86
487.574	8.87
488.009	8.9
488.443	8.92
488.877	8.95
489.311	8.98
489.745	9.01
490.179	9.04
490.613	9.07
491.046	9.11
491.48	9.15
491.914	9.2
492.348	9.25
492.781	9.31
493.215	9.37
493.648	9.43
494.082	9.49
494.515	9.55
494.948	9.63
495.382	9.71
495.815	9.79
496.248	9.88
496.681	9.97
497.114	10.07
497.547	10.16
497.98	10.26
498.413	10.36
498.846	10.48
499.279	10.6
499.711	10.72
500.144	10.85
500.577	10.98
501.009	11.11
501.442	11.25
501.874	11.38
502.306	11.54
502.739	11.7
503.171	11.87
503.603	12.04
504.036	12.22
504.468	12.41
504.9	12.6
505.332	12.8
505.764	13.01
506.196	13.21
506.627	13.46
507.059	13.67
507.491	13.9
507.923	14.14
508.354	14.39
508.786	14.65
509.217	14.91
509.649	15.19
510.08	15.47
510.512	15.76
510.943	16.05
511.374	16.34
511.805	16.65
512.237	16.95
512.668	17.27
513.099	17.59
513.53	17.9
513.961	18.23
514.391	18.56
514.822	18.9
515.253	19.23
515.684	19.56
516.114	19.91
516.545	20.25
516.975	20.61
517.406	20.95
517.836	21.3
518.267	21.65
518.697	22
519.127	22.33
519.558	22.67
519.988	23
520.418	23.34
520.848	23.64
521.278	23.97
521.708	24.37
522.138	24.67
522.567	24.98
522.997	25.27
523.427	25.54
523.857	25.82
524.286	26.09
524.716	26.37
525.145	26.62
525.575	26.87
526.004	27.12
526.433	27.25
526.863	27.48
527.292	27.69
527.721	27.91
528.15	28.12
528.579	28.3
529.008	28.49
529.437	28.65
529.866	28.81
530.295	28.99
530.724	29.14
531.152	29.28
531.581	29.43
532.01	29.56
532.438	29.67
532.867	29.8
533.295	29.92
533.723	30.02
534.152	30.13
534.58	30.23
535.008	30.29
535.436	30.39
535.865	30.47
536.293	30.52
536.721	30.58
537.149	30.65
537.576	30.69
538.004	30.73
538.432	30.77
538.86	30.8
539.287	30.82
539.715	30.89
540.143	30.91
540.57	30.93
540.998	30.96
541.425	31
541.852	31.04
542.28	31.08
542.707	31.1
543.134	31.15
543.561	31.19
543.988	31.23
544.415	31.24
544.842	31.29
545.269	31.33
545.696	31.38
546.123	31.4
546.549	31.43
546.976	31.47
547.403	31.5
547.829	31.53
548.256	31.56
548.682	31.6
549.108	31.65
549.535	31.67
549.961	31.7
550.387	31.72
550.813	31.75
551.24	31.76
551.666	31.76
552.092	31.78
552.518	31.78
552.943	31.76
553.369	31.74
553.795	31.7
554.221	31.68
554.646	31.64
555.072	31.59
555.498	31.55
555.923	31.48
556.349	31.42
556.774	31.35
557.199	31.28
557.625	31.2
558.05	31.13
558.475	31.06
558.9	30.97
559.325	30.88
559.75	30.79
560.175	30.7
560.6	30.6
561.025	30.49
561.449	30.37
561.874	30.23
562.299	30.13
562.723	29.99
563.148	29.84
563.572	29.65
563.997	29.48
564.421	29.3
564.846	29.12
565.27	28.96
565.694	28.79
566.118	28.62
566.542	28.44
566.966	28.23
567.39	28.05
567.814	27.85
568.238	27.68
568.662	27.51
569.086	27.33
569.509	27.13
569.933	26.93
570.357	26.75
570.78	26.55
571.204	26.38
571.627	26.2
572.05	26.03
572.474	25.88
572.897	25.72
573.32	25.56
573.743	25.41
574.166	25.25
574.589	25.11
575.012	24.97
575.435	24.84
575.858	24.7
576.281	24.59
576.704	24.47
577.126	24.35
577.549	24.23
577.972	24.12
578.394	24
578.817	23.91
579.239	23.81
579.661	23.72
580.084	23.63
580.506	23.55
580.928	23.46
581.35	23.36
581.772	23.27
582.194	23.2
582.616	23.12
583.038	23.03
583.46	22.94
583.882	22.87
584.303	22.76
584.725	22.66
585.147	22.58
585.568	22.49
585.99	22.42
586.411	22.34
586.833	22.27
587.254	22.18
587.675	22.11
588.096	22.03
588.518	21.97
588.939	21.94
589.36	21.88
589.781	21.83
590.202	21.79
590.623	21.72
591.043	21.68
591.464	21.63
591.885	21.6
592.305	21.57
592.726	21.53
593.147	21.48
593.567	21.43
593.987	21.38
594.408	21.33
594.828	21.29
595.248	21.27
595.669	21.23
596.089	21.2
596.509	21.15
596.929	21.1
597.349	21.06
597.769	21.01
598.189	20.96
598.608	20.93
599.028	20.89
599.448	20.83
599.867	20.78
600.287	20.73
600.706	20.68
601.126	20.62
601.545	20.58
601.965	20.53
602.384	20.48
602.803	20.42
603.222	20.35
603.641	20.28
604.061	20.21
604.48	20.14
604.898	20.05
605.317	19.97
605.736	19.89
606.155	19.81
606.574	19.72
606.992	19.64
607.411	19.56
607.829	19.45
608.248	19.36
608.666	19.25
609.085	19.15
609.503	19.07
609.921	18.98
610.339	18.89
610.758	18.79
611.176	18.7
611.594	18.61
612.012	18.51
612.43	18.44
612.847	18.35
613.265	18.26
613.683	18.19
614.101	18.11
614.518	18.01
614.936	17.92
615.353	17.84
615.771	17.75
616.188	17.67
616.606	17.6
617.023	17.54
617.44	17.49
617.857	17.44
618.274	17.38
618.691	17.31
619.108	17.27
619.525	17.22
619.942	17.19
620.359	17.15
620.776	17.11
621.192	17.07
621.609	17.02
622.026	16.98
622.442	16.95
622.859	16.92
623.275	16.9
623.691	16.88
624.108	16.85
624.524	16.82
624.94	16.79
625.356	16.77
625.772	16.75
626.188	16.74
626.604	16.73
627.02	16.72
627.436	16.7
627.852	16.68
628.268	16.65
628.683	16.65
629.099	16.63
629.514	16.61
629.93	16.6
630.345	16.57
630.761	16.52
631.176	16.48
631.591	16.43
632.007	16.38
632.422	16.32
632.837	16.27
633.252	16.19
633.667	16.12
634.082	16.03
634.497	15.94
634.911	15.84
635.326	15.75
635.741	15.65
636.155	15.54
636.57	15.42
636.984	15.31
637.399	15.17
637.813	15.04
638.228	14.89
638.642	14.75
639.056	14.61
639.47	14.47
639.884	14.32
640.298	14.17
640.712	14.03
641.126	13.89
641.54	13.74
641.954	13.6
642.368	13.47
642.781	13.33
643.195	13.21
643.609	13.08
644.022	12.95
644.436	12.84
644.849	12.73
645.262	12.62
645.676	12.51
646.089	12.41
646.502	12.32
646.915	12.24
647.328	12.17
647.741	12.1
648.154	12.03
648.567	11.97
648.98	11.9
649.393	11.85
649.805	11.8
650.218	11.74
650.631	11.71
651.043	11.66
651.456	11.61
651.868	11.56
652.28	11.51
652.693	11.46
653.105	11.41
653.517	11.36
653.929	11.31
654.341	11.26
654.753	11.19
655.165	11.12
655.577	11.06
655.989	10.98
656.401	10.9
656.813	10.82
657.224	10.74
657.636	10.65
658.047	10.57
658.459	10.47
658.87	10.38
659.282	10.29
659.693	10.2
660.104	10.1
660.515	10.02
660.926	9.93
661.338	9.84
661.749	9.76
662.159	9.68
662.57	9.6
662.981	9.54
663.392	9.46
663.803	9.39
664.213	9.32
664.624	9.26
665.035	9.2
665.445	9.15
665.855	9.1
666.266	9.05
666.676	9.01
667.086	8.97
667.497	8.93
667.907	8.91
668.317	8.88
668.727	8.86
669.137	8.85
669.547	8.83
669.956	8.82
670.366	8.82
670.776	8.81
671.186	8.82
671.595	8.81
672.005	8.82
672.414	8.83
672.824	8.83
673.233	8.85
673.642	8.87
674.052	8.9
674.461	8.92
674.87	8.96
675.279	8.99
675.688	9.02
676.097	9.08
676.506	9.11
676.915	9.16
677.323	9.2
677.732	9.26
678.141	9.32
678.549	9.38
678.958	9.44
679.366	9.52
679.775	9.6
680.183	9.69
680.592	9.78
681	9.89
681.408	10.01
681.816	10.14
682.224	10.27
682.632	10.42
683.04	10.59
683.448	10.77
683.856	10.97
684.264	11.18
684.671	11.43
685.079	11.68
685.487	11.99
685.894	12.3
686.302	12.65
686.709	13.01
687.116	13.41
687.524	13.82
687.931	14.28
688.338	14.76
688.745	15.27
689.152	15.8
689.559	16.37
689.966	16.94
690.373	17.53
690.78	18.14
691.187	18.78
691.593	19.44
692	20.1
692.407	20.77
692.813	21.48
693.22	22.15
693.626	22.85
694.032	23.55
694.439	24.25
694.845	24.97
695.251	25.68
695.657	26.38
696.063	27.08
696.469	27.8
696.875	28.5
697.281	29.17
697.687	29.85
698.093	30.53
698.498	31.19
698.904	31.85
699.31	32.48
699.715	33.1
700.12	33.72
700.526	34.34
700.931	34.94
701.337	35.52
701.742	36.09
702.147	36.64
702.552	37.21
702.957	37.73
703.362	38.27
703.767	38.78
704.172	39.3
704.577	39.79
704.981	40.26
705.386	40.73
705.791	41.2
706.195	41.68
706.6	42.16
707.004	42.6
707.408	43.06
707.813	43.49
708.217	43.92
708.621	44.38
709.025	44.78
709.43	45.19
709.834	45.6
710.237	46
710.641	46.38
711.045	46.75
711.449	47.13
711.853	47.5
712.256	47.87
712.66	48.23
713.064	48.55
713.467	48.9
713.87	49.23
714.274	49.54
714.677	49.87
715.08	50.16
715.484	50.47
715.887	50.8
716.29	51.08
716.693	51.37
717.096	51.65
717.499	51.96
717.901	52.27
718.304	52.57
718.707	52.84
719.109	53.14
719.512	53.41
719.915	53.66
720.317	53.87
720.719	54.08
721.122	54.32
721.524	54.54
721.926	54.75
722.328	54.96
722.731	55.15
723.133	55.35
723.535	55.52
723.937	55.72
724.338	55.91
724.74	56.11
725.142	56.34
725.544	56.5
725.945	56.66
726.347	56.82
726.748	56.97
727.15	57.08
727.551	57.25
727.952	57.39
728.354	57.53
728.755	57.66
729.156	57.76
729.557	57.83
729.958	57.95
730.359	58.06
730.76	58.18
731.161	58.29
731.562	58.42
731.962	58.51
732.363	58.6
732.763	58.68
733.164	58.76
733.564	58.84
733.965	58.92
734.365	59.01
734.766	59.1
735.166	59.16
735.566	59.25
735.966	59.31
736.366	59.35
736.766	59.39
737.166	59.45
737.566	59.5
737.966	59.55
738.365	59.59
738.765	59.64
739.165	59.68
739.564	59.7
739.964	59.74
740.363	59.75
740.763	59.82
741.162	59.89
741.561	59.92
741.96	59.95
742.36	60.01
742.759	60.05
743.158	60.08
743.557	60.11
743.955	60.16
744.354	60.16
744.753	60.24
745.152	60.27
745.55	60.29
745.949	60.34
746.348	60.39
746.746	60.4
747.144	60.44
747.543	60.49
747.941	60.54
748.339	60.52
748.737	60.56
749.136	60.58
749.534	60.57
749.932	60.56
750.33	60.58
750.727	60.61
751.125	60.63
751.523	60.59
751.921	60.55
752.318	60.56
752.716	60.6
753.113	60.58
753.511	60.56
753.908	60.59
754.305	60.59
754.703	60.57
755.1	60.55
755.497	60.53
755.894	60.55
756.291	60.56
756.688	60.54
757.085	60.54
757.482	60.53
757.878	60.5
758.275	60.47
758.672	60.47
759.068	60.45
759.465	60.44
759.861	60.46
760.258	60.46
760.654	60.49
761.05	60.49
761.447	60.48
761.843	60.47
762.239	60.5
762.635	60.49
763.031	60.48
763.427	60.48
763.822	60.47
764.218	60.47
764.614	60.46
765.01	60.41
765.405	60.4
765.801	60.36
766.196	60.37
766.592	60.35
766.987	60.37
767.382	60.36
767.778	60.36
768.173	60.36
768.568	60.34
768.963	60.37
769.358	60.43
769.753	60.43
770.148	60.44
770.542	60.46
770.937	60.49
771.332	60.48
771.726	60.47
772.121	60.51
772.515	60.53
772.91	60.52
773.304	60.53
773.699	60.5
774.093	60.51
774.487	60.53
774.881	60.55
775.275	60.53
775.669	60.53
776.063	60.56
776.457	60.54
776.851	60.51
777.245	60.5
777.638	60.48
778.032	60.49
778.425	60.51
778.819	60.5
779.212	60.51
779.606	60.54
779.999	60.53
780.392	60.55
780.786	60.54
781.179	60.57
781.572	60.59
781.965	60.62
782.358	60.63
782.751	60.6
783.143	60.62
783.536	60.61
783.929	60.62
784.322	60.66
784.714	60.68
785.107	60.72
785.499	60.72
785.891	60.75
786.284	60.77
786.676	60.78
787.068	60.8
787.46	60.81
787.852	60.81
788.245	60.79
788.636	60.8
789.028	60.8
789.42	60.78
789.812	60.78
790.204	60.77
790.595	60.74
790.987	60.73
791.378	60.74
791.77	60.76
792.161	60.77
792.553	60.81
792.944	60.8
793.335	60.84
793.726	60.85
794.117	60.84
794.508	60.84
794.899	60.87
795.29	60.89
795.681	60.87
796.072	60.89
796.463	60.89
796.853	60.87
797.244	60.87
797.634	60.86
798.025	60.9
798.415	60.91
798.806	60.89
799.196	60.88
799.586	60.9
799.976	60.95
800.366	60.96
800.756	61
801.146	61.05
801.536	61.08
801.926	61.08
802.316	61.09
802.706	61.12
803.095	61.17
803.485	61.19
803.874	61.17
804.264	61.17
804.653	61.16
805.043	61.17
805.432	61.16
805.821	61.18
806.21	61.23
806.599	61.25
806.988	61.26
807.377	61.3
807.766	61.32
808.155	61.36
808.544	61.38
808.933	61.43
809.321	61.45
809.71	61.46
810.098	61.47
810.487	61.44
810.875	61.45
811.264	61.48
811.652	61.48
812.04	61.5
812.428	61.55
812.816	61.57
813.204	61.56
813.592	61.55
813.98	61.58
814.368	61.6
814.756	61.64
815.144	61.64
815.531	61.64
815.919	61.65
816.306	61.68
816.694	61.67
817.081	61.66
817.469	61.68
817.856	61.69
818.243	61.67
818.63	61.68
819.017	61.7
819.404	61.7
819.791	61.73
820.178	61.74
820.565	61.7
820.952	61.7
821.339	61.68
821.725	61.7
822.112	61.73
822.498	61.78
822.885	61.77
823.271	61.73
823.657	61.71
824.044	61.7
824.43	61.69
824.816	61.69
825.202	61.69
825.588	61.72
825.974	61.7
826.36	61.69
826.746	61.63
827.132	61.63
827.517	61.64
827.903	61.66
828.289	61.64
828.674	61.66
829.06	61.64
829.445	61.64
829.83	61.58
830.216	61.56
830.601	61.56
830.986	61.57
831.371	61.52
831.756	61.52
832.141	61.47
832.526	61.46
832.911	61.42
833.295	61.42
833.68	61.4
834.065	61.41
834.449	61.39
834.834	61.36
835.218	61.33
835.603	61.33
835.987	61.32
836.371	61.33
836.755	61.32
837.139	61.31
837.524	61.31
837.908	61.32
838.291	61.32
838.675	61.29
839.059	61.28
839.443	61.24
839.827	61.22
840.21	61.19
840.594	61.2
840.977	61.16
841.361	61.16
841.744	61.14
842.127	61.09
842.511	61.08
842.894	61.09
843.277	61.1
843.66	61.1
844.043	61.13
844.426	61.13
844.809	61.14
845.191	61.17
845.574	61.16
845.957	61.19
846.339	61.22
846.722	61.23
847.104	61.23
847.487	61.23
847.869	61.22
848.252	61.21
848.634	61.2
849.016	61.19
849.398	61.19
849.78	61.21
850.162	61.19
850.544	61.18
850.926	61.2
851.307	61.2
851.689	61.21
852.071	61.24
852.452	61.24
852.834	61.3
853.215	61.29
853.597	61.31
853.978	61.29
854.359	61.31
854.741	61.34
855.122	61.34
855.503	61.34
855.884	61.34
856.265	61.34
856.646	61.37
857.026	61.35
857.407	61.37
857.788	61.36
858.169	61.4
858.549	61.4
858.93	61.37
859.31	61.38
859.69	61.39
860.071	61.43
860.451	61.44
860.831	61.45
861.211	61.44
861.591	61.42
861.971	61.42
862.351	61.42
862.731	61.45
863.111	61.44
863.491	61.43
863.87	61.44
864.25	61.41
864.629	61.42
865.009	61.42
865.388	61.42
865.768	61.44
866.147	61.45
866.526	61.46
866.905	61.44
867.284	61.45
867.663	61.45
868.042	61.47
868.421	61.47
868.8	61.48
869.179	61.48
869.558	61.49
869.936	61.5
870.315	61.5
870.693	61.48
871.072	61.5
871.45	61.53
871.828	61.55
872.207	61.54
872.585	61.54
872.963	61.55
873.341	61.56
873.719	61.55
874.097	61.54
874.475	61.56
874.853	61.58
875.23	61.59
875.608	61.57
875.986	61.57
876.363	61.56
876.741	61.59
877.118	61.59
877.495	61.6
877.873	61.63
878.25	61.67
878.627	61.67
879.004	61.67
879.381	61.69
879.758	61.67
880.135	61.7
880.512	61.69
880.889	61.66
881.265	61.63
881.642	61.63
882.019	61.62
882.395	61.57
882.772	61.54
883.148	61.51
883.524	61.48
883.901	61.49
884.277	61.46
884.653	61.44
885.029	61.42
885.405	61.45
885.781	61.42
886.157	61.39
886.532	61.42
886.908	61.41
887.284	61.4
887.659	61.39
888.035	61.38
888.411	61.39
888.786	61.38
889.161	61.4
889.537	61.38
889.912	61.37
890.287	61.36
890.662	61.32
891.037	61.32
891.412	61.32
891.787	61.3
892.162	61.29
892.536	61.26
892.911	61.24
893.286	61.22
893.66	61.18
894.035	61.17
894.409	61.17
894.784	61.17
895.158	61.15
895.532	61.15
895.906	61.13
896.281	61.12
896.655	61.11
897.029	61.11
897.402	61.1
897.776	61.1
898.15	61.12
898.524	61.15
898.898	61.16
899.271	61.18
899.645	61.19
900.018	61.24
900.392	61.28
900.765	61.33
901.138	61.37
901.511	61.41
901.884	61.47
902.258	61.49
902.631	61.46
903.003	61.49
903.376	61.48
903.749	61.49
904.122	61.47
904.495	61.48
904.867	61.49
905.24	61.51
905.612	61.52
905.985	61.49
906.357	61.47
906.729	61.5
907.102	61.49
907.474	61.53
907.846	61.52
908.218	61.54
908.59	61.6
908.962	61.59
909.334	61.6
909.705	61.58
910.077	61.63
910.449	61.65
910.82	61.65
911.192	61.64
911.563	61.61
911.935	61.63
912.306	61.64
912.677	61.61
913.048	61.61
913.419	61.58
913.79	61.59
914.161	61.58
914.532	61.56
914.903	61.58
915.274	61.61
915.645	61.64
916.015	61.65
916.386	61.63
916.756	61.62
917.127	61.64
917.497	61.64
917.868	61.64
918.238	61.64
918.608	61.68
918.978	61.67
919.348	61.67
919.718	61.64
920.088	61.65
920.458	61.64
920.828	61.63
921.198	61.61
921.567	61.64
921.937	61.67
922.306	61.64
922.676	61.62
923.045	61.62
923.415	61.59
923.784	61.6
924.153	61.62
924.522	61.66
924.891	61.66
925.26	61.67
925.629	61.7
925.998	61.68
926.367	61.73
926.736	61.73
927.104	61.73
927.473	61.73
927.842	61.7
928.21	61.68
928.578	61.63
928.947	61.61
929.315	61.57
929.683	61.52
930.051	61.47
930.42	61.43
930.788	61.36
931.156	61.3
931.523	61.26
931.891	61.28
932.259	61.24
932.627	61.22
932.994	61.18
933.362	61.09
933.729	61.04
934.097	60.98
934.464	60.9
934.831	60.88
935.199	60.86
935.566	60.79
935.933	60.72
936.3	60.67
936.667	60.65
937.034	60.62
937.401	60.68
937.767	60.65
938.134	60.67
938.501	60.76
938.867	60.84
939.234	60.89
939.6	60.99
939.967	61.08
940.333	61.14
940.699	61.18
941.065	61.25
941.431	61.29
941.798	61.37
942.163	61.45
942.529	61.45
942.895	61.43
943.261	61.43
943.627	61.42
943.992	61.39
944.358	61.42
944.723	61.4
945.089	61.35
945.454	61.45
945.82	61.48
946.185	61.51
946.55	61.45
946.915	61.48
947.28	61.52
947.645	61.5
948.01	61.51
948.375	61.48
948.74	61.5
949.104	61.54
949.469	61.45
949.834	61.4
950.198	61.36
950.562	61.35
950.927	61.31
951.291	61.21
951.655	61.2
952.02	61.17
952.384	61.12
952.748	61.07
953.112	61.03
953.476	60.98
953.839	60.89
954.203	60.85
954.567	60.86
954.931	60.78
955.294	60.72
955.658	60.78
956.021	60.69
956.385	60.65
956.748	60.56
957.111	60.51
957.474	60.49
957.837	60.5
958.2	60.45
958.563	60.38
958.926	60.4
959.289	60.38
959.652	60.23
960.015	60.2
960.377	60.18
960.74	60.23
961.102	60.21
961.465	60.24
961.827	60.23
962.189	60.28
962.552	60.3
962.914	60.23
963.276	60.3
963.638	60.37
964	60.38
964.362	60.39
964.724	60.35
965.085	60.36
965.447	60.35
965.809	60.35
966.17	60.28
966.532	60.31
966.893	60.34
967.255	60.28
967.616	60.19
967.977	60.23
968.338	60.22
968.699	60.18
969.061	60.15
969.421	60.17
969.782	60.15
970.143	60.12
970.504	60.08
970.865	60.13
971.225	60.09
971.586	60.08
971.946	60.06
972.307	60.06
972.667	60.11
973.027	60.12
973.388	60.1
973.748	60.12
974.108	60.19
974.468	60.16
974.828	60.15
975.188	60.2
975.548	60.28
975.907	60.26
976.267	60.27
976.627	60.28
976.986	60.25
977.346	60.19
977.705	60.21
978.064	60.14
978.424	60.17
978.783	60.07
979.142	60.11
979.501	60.1
979.86	60.15
980.219	60.15
980.578	60.17
980.937	60.21
981.296	60.23
981.654	60.16
982.013	60.22
982.371	60.22
982.73	60.23
983.088	60.2
983.447	60.15
983.805	60.13
984.163	60.15
984.521	60.13
984.879	60.1
985.237	60.13
985.595	60.1
985.953	60.07
986.311	60.01
986.669	60.03
987.026	60
987.384	60.04
987.741	60.03
988.099	60.05
988.456	60.05
988.814	60.08
989.171	60.07
989.528	60.22
989.885	60.26
990.242	60.31
990.599	60.37
990.956	60.44
991.313	60.47
991.67	60.5
992.027	60.49
992.383	60.53
992.74	60.56
993.096	60.55
993.453	60.48
993.809	60.46
994.165	60.56
994.522	60.56
994.878	60.63
995.234	60.63
995.59	60.59
995.946	60.71
996.302	60.73
996.658	60.76
997.013	60.8
997.369	60.83
997.725	60.9
998.08	60.99
998.436	61.1
998.791	61.04
999.147	61.06
999.502	61.22
999.857	61.16
1000.212	61.08
1000.567	61.13
1000.922	61.09
1001.277	61.13
1001.632	61.09
1001.987	61.04
1002.342	60.97
1002.696	60.93
1003.051	61.09
1003.406	61.11
1003.76	61.07
1004.114	61.02
1004.469	61.05
1004.823	61.43
1005.177	61.5
1005.531	61.61
1005.885	61.57
1006.239	61.55
1006.593	61.64
1006.947	61.64
1007.301	61.53
1007.655	61.7
1008.008	61.94
1008.362	62.12
1008.715	62.05
1009.069	62.07
1009.422	62.03
1009.776	62.11
1010.129	62.39
1010.482	62.35
1010.835	62.48
1011.188	62.68
1011.541	62.72
1011.894	62.82
1012.247	62.71
1012.6	62.66
1012.952	62.68
1013.305	62.8
1013.657	62.91
1014.01	62.87
1014.362	63.12
1014.715	63.02
1015.067	63
1015.419	63.16
1015.771	63.01
1016.123	63.16
1016.475	63.3
1016.827	63.38
1017.179	63.5
1017.531	63.63
1017.883	63.55
1018.234	63.62
1018.586	63.77
1018.938	63.94
1019.289	63.7
1019.64	63.88
1019.992	63.92
1020.343	63.94
1020.694	64.13
1021.045	64.15
1021.396	64.2
1021.747	64.43
1022.098	64.53
1022.449	64.49
1022.8	64.51
1023.151	64.88
1023.501	64.98
1023.852	64.99
1024.202	64.75
1024.553	64.61
1024.903	64.62
1025.253	64.77
1025.604	64.7
1025.954	64.64
1026.304	65.11
1026.654	65.32
1027.004	65.28
1027.354	65.56
1027.703	65.7
1028.053	66.06
1028.403	66.22
1028.753	66.17
1029.102	66.19
1029.452	66.44
1029.801	66.68
1030.15	66.44
1030.499	66.23
897.758	970.67
901.051	979.5
904.343	977.12
907.636	993.89
910.928	968.16
914.22	965.46
917.511	952.29
920.803	910.16
924.094	906.68
927.384	886.56
930.675	851.44
933.965	848.72
937.255	795.87
940.544	765.32
943.834	733.52
947.123	726.3
950.411	687.26
953.7	673.07
956.988	638.2
960.276	613.14
963.563	604.9
966.851	583.42
970.138	578.42
973.424	563.37
976.711	563.48
979.997	535.59
983.283	533.49
986.568	521.42
989.853	508.82
993.138	499.8
996.423	482.04
999.708	469.97
1002.992	464.73
1006.275	444.15
1009.559	440.28
1012.842	427.38
1016.125	414.61
1019.408	405.89
1022.69	402.85
1025.972	394.46
1029.254	385.14
1032.536	378.9
1035.817	371.87
1039.098	368.61
1042.379	362.7
1045.659	358.99
1048.939	350.98
1052.219	345.06
1055.498	341.94
1058.778	333.38
1062.057	326.52
1065.335	324.29
1068.614	321.07
1071.892	317.62
1075.17	307.55
1078.447	302.9
1081.724	299.66
1085.001	296.34
1088.278	293.37
1091.554	286.66
1094.83	286.74
1098.106	284.95
1101.382	282.31
1104.657	279.95
1107.932	275.84
1111.206	278.4
1114.481	270.46
1117.755	268.86
1121.029	267.22
1124.302	265.26
1127.575	262.21
1130.848	259.53
1134.121	256.76
1137.393	255.53
1140.665	250.69
1143.937	248.47
1147.208	246.06
1150.48	246.25
1153.75	242.85
1157.021	240.47
1160.291	240.18
1163.561	236.58
1166.831	236.89
1170.101	235.05
1173.37	235.21
1176.639	235.61
1179.907	233.44
1183.176	231.68
1186.444	231.72
1189.711	231.78
1192.979	230.71
1196.246	229.36
1199.513	231.15
1202.78	229.05
1206.046	228.98
1209.312	226.16
1212.578	226.52
1215.843	228.17
1219.108	227.37
1222.373	231.32
1225.638	232.65
1228.902	235.5
1232.166	234.64
1235.43	235.23
1238.693	239.22
1241.956	240.26
1245.219	243.92
1248.482	244.22
1251.744	244.36
1255.006	244.43
1258.268	238.65
1261.529	236.91
1264.79	236.5
1268.051	235.68
1271.312	233.52
1274.572	230.12
1277.832	228.84
1281.092	225.09
1284.351	223.62
1287.61	223.95
1290.869	219.78
1294.128	218.92
1297.386	218.26
1300.644	216
1303.902	217.33
1307.159	215.86
1310.416	216.18
1313.673	214.99
1316.93	217.33
1320.186	216.68
1323.442	216.84
1326.697	220.47
1329.953	221.84
1333.208	222.77
1336.463	225.05
1339.717	224.7
1342.972	228.74
1346.226	229.58
1349.479	230.56
1352.733	231.06
1355.986	232.75
1359.238	231.88
1362.491	233.3
1365.743	234.88
1368.995	235.01
1372.247	232.94
1375.498	233.05
1378.749	232.67
1382	229.88
1385.251	230.05
1388.501	228.53
1391.751	227.51
1395	226.81
1398.25	224.71
1401.499	221.18
1404.748	220.61
1407.996	218.13
1411.244	217.24
1414.492	215.52
1417.74	212.79
1420.987	210.3
1424.234	209.11
1427.481	207.08
1430.728	206.74
1433.974	204.24
1437.22	203.16
1440.465	202.45
1443.711	200.79
1446.956	198.92
1450.201	197.03
1453.445	196.12
1456.689	194.48
1459.933	191.54
1463.177	189.3
1466.42	187.36
1469.663	185.81
1472.906	184.71
1476.148	179.47
1479.391	178.6
1482.633	177.5
1485.874	175.06
1489.115	174.11
1492.356	172.11
1495.597	172.17
1498.838	170.66
1502.078	169.25
1505.318	168.61
1508.557	169
1511.797	170
1515.036	168.3
1518.274	167.75
1521.513	167.35
1524.751	167.09
1527.989	167.41
1531.227	166.71
1534.464	167.44
1537.701	167.11
1540.938	166.65
1544.174	164.8
1547.41	164.91
1550.646	164.59
1553.882	164.79
1557.117	162.87
1560.352	161.92
1563.587	161.92
1566.821	160.83
1570.055	159.96
1573.289	157.79
1576.523	158.39
1579.756	157.35
1582.989	156.1
1586.222	156.23
1589.454	155.59
1592.686	156.85
1595.918	156.58
1599.15	155.93
1602.381	156.68
1605.612	156.2
1608.843	157.56
1612.073	156.66
1615.303	157.87
1618.533	158.42
1621.762	157.87
1624.992	158.34
1628.221	157.96
1631.449	157.57
1634.678	157.43
1637.906	158.46
1641.134	157.94
1644.361	157.68
1647.588	158.44
1650.815	157.66
1654.042	157.15
1657.269	158.32
1660.495	158.23
1663.72	157.98
1666.946	158.76
1670.171	159.37
1673.396	158.3
1676.621	158.35
1679.845	159.03
1683.069	159.06
1686.293	159.84
1689.517	160.78
1692.74	160.34
1695.963	160.9
1699.185	162.17
1702.408	161.96
1705.63	162.11
1708.852	162.86
1712.073	163.79
1715.294	163.56
1718.515	164.23
1721.736	163.83
1724.956	164.12
1728.176	164.24
1731.396	164.9
1734.616	163.81
1737.835	164.77
1741.054	163.72
1744.272	163.65
1747.491	164.84
1750.709	165.3
1753.927	165.01
1757.144	164.86
1760.361	164.94
1763.578	165.45
1766.795	164.89
1770.011	166.73
1773.227	166.43
1776.443	168.07
1779.658	168.72
1782.874	168.59
1786.089	168.28
1789.303	168.81
1792.518	170.55
1795.732	170.38
1798.945	171.7
1802.159	172.01
1805.372	171.88
1808.585	174.36
1811.797	175.43
1815.01	176.35
1818.222	176.86
1821.434	179.42
1824.645	179.51
1827.856	182.07
1831.067	183.37
1834.278	183.39
1837.488	185
1840.698	185.7
1843.908	184.26
1847.117	184.68
1850.326	185.25
1853.535	183.95
1856.744	185.4
1859.952	185.02
1863.16	183.47
1866.368	182.02
1869.575	181.73
1872.782	178.43
1875.989	176.81
1879.196	176.23
1882.402	174
1885.608	173.39
1888.814	173.05
1892.019	171.81
1895.224	170.64
1898.429	169.46
1901.634	169.46
1904.838	169.69
1908.042	170.7
1911.246	171.46
1914.449	171.49
1917.652	171.78
1920.855	171.21
1924.058	171.65
1927.26	170.38
1930.462	170.96
1933.664	173.06
1936.865	171.35
1940.066	170.74
1943.267	169.82
1946.467	170.06
1949.668	170.87
1952.868	172.8
1956.067	173.59
1959.267	172.87
1962.466	173.54
1965.665	172.58
1968.863	173.55
1972.061	176.79
1975.259	178.78
1978.457	179.78
1981.654	181.56
1984.852	181.88
1988.048	181.67
1991.245	183.32
1994.441	186.1
1997.637	188.12
2000.833	191.91
2004.028	193.66
2007.223	194.23
2010.418	195.68
2013.613	200.11
2016.807	201.93
2020.001	203.91
2023.194	207.01
2026.388	211.43
2029.581	216.72
2032.774	217.39
2035.966	222.09
2039.158	222.77
2042.35	227.28
2045.542	228.64
2048.733	232.73
2051.924	234.31
2055.115	238.34
2058.306	238.88
2061.496	241.11
2064.686	240.43
2067.875	245.56
2071.065	246.57
2074.254	244.37
2077.442	248.95
2080.631	249.94
2083.819	251.04
2087.007	253.77
2090.195	257.06
2093.382	259.12
2096.569	257.76
2099.756	262.52
2102.942	262.82
2106.128	264.67
2109.314	272.17
2112.5	270.42
2115.685	275.8
2118.87	276.3
2122.055	281.61
2125.239	282.05
2128.424	285.47
2131.608	288.28
2134.791	292.52
2137.974	293.75
2141.157	294.7
2144.34	294.95
2147.523	300.21
2150.705	299.02
2153.887	301.87
2157.068	301.7
2160.25	300.21
2163.431	302.16
2166.611	305.87
2169.792	309.91
2172.972	313.72
2176.152	316.02
2179.331	319.68
2182.511	323.15
2185.69	327.53
2188.868	334.45
2192.047	334.81
2195.225	344.92
2198.403	352.72
2201.58	358.28
2204.758	365.47
2207.935	371.02
2211.111	379.71
2214.288	383.35
2217.464	384.47
2220.64	390.72
2223.815	394.63
2226.991	410.92
2230.166	410.85
2233.34	416.33
2236.515	422.51
2239.689	423.09
2242.863	428.11
2246.036	436.67
2249.209	432.57
2252.382	440.02
2255.555	451.27
2258.727	453.42
2261.9	457.2
2265.071	461.19
2268.243	470.5
2271.414	477.06
2274.585	485.19
2277.756	488.05
2280.926	492.89
2284.096	506.64
2287.266	517.99
2290.436	520.51
2293.605	531.93
2296.774	547.38
2299.942	564.19
2303.111	566.15
2306.279	577.09
2309.447	586.78
2312.614	602.89
2315.781	619.47
2318.948	646.45
2322.115	635.92
2325.281	673.76
2328.447	661.06
2331.613	684.69
2334.779	679.24
2337.944	705.64
2341.109	713.34
2344.274	733.2
2347.438	757.71
2350.602	760.08
2353.766	782.79
2356.929	796.84
2360.092	788.56
2363.255	844.37
2366.418	843.79
2369.58	860.68
2372.742	917.22
2375.904	939.52
2379.066	934.05
2382.227	914.56
2385.388	987.96
2388.548	989.75
2391.709	1000.42
2394.869	1112
2398.029	1067.12
2401.188	1095.85
2404.347	1086.89
2407.506	1065.03
2410.665	1093.4
2413.823	1155.78
2416.981	1223.87
2420.139	1187.21
2423.296	1173.29
2426.453	1229.66
2429.61	1187.26
2432.767	1235.86
2435.923	1224.54
2439.079	1339.24
2442.235	1367.01
2445.391	1357.62
2448.546	1347.31
2451.701	1310.1
2454.855	1305.36
2458.009	1391.96
2461.163	1442.05
2464.317	1490.22
2467.471	1530.13
2470.624	1527.05
2473.777	1487.43
2476.929	1439.2
2480.082	1393.09
2483.234	1383.2
2486.385	1453.08
2489.537	1462.46
2492.688	1505.09
2495.839	1463.81
2498.989	1433.47
2502.14	1438.35
2505.29	1455
2508.439	1479.05
2511.589	1479.44
2514.738	1616.53
2517.887	1577.05
2521.035	1667.06
2524.183	1676.97
2527.331	1689.74
2530.479	1681.05
2533.627	1692.37
