Data from N_3_DEC_NC_4N_Splice17_14-00-46-916.txt Node
Date: Sat Mar 07 14:00:46 EST 2020
User: sa697716
Spectrometer: NQ5500242
Trigger mode: 0
Integration Time (sec): 1.450000E-1
Scans to average: 20
Nonlinearity correction enabled: false
Boxcar width: 5
Storing dark spectrum: false
XAxis mode: Wavelengths
Number of Pixels in Spectrum: 512
>>>>>Begin Spectral Data<<<<<
187.83	138.33
188.298	149.79
188.766	138.87
189.233	124.22
189.701	125.29
190.169	140.19
190.636	160.51
191.104	277.61
191.571	388.47
192.039	396.64
192.506	416.27
192.974	70.87
193.441	91.86
193.908	88.75
194.375	107.68
194.842	105.38
195.31	86.76
195.777	52.13
196.244	39.19
196.711	40.29
197.177	44.59
197.644	44.31
198.111	44
198.578	44
199.045	44.38
199.511	44.23
199.978	44.37
200.445	44.78
200.911	44.84
201.378	45.12
201.844	45.25
202.31	44.65
202.777	44.55
203.243	44.62
203.709	44.5
204.176	44.04
204.642	43.74
205.108	43.55
205.574	43.13
206.04	42.62
206.506	41.74
206.972	41.66
207.438	41.3
207.903	41.03
208.369	40.02
208.835	39.19
209.301	38.43
209.766	37.33
210.232	36.18
210.697	35.25
211.163	34.44
211.628	33.79
212.094	32.83
212.559	32.2
213.024	31.19
213.49	30.72
213.955	30.07
214.42	29.26
214.885	28.62
215.35	27.65
215.815	26.4
216.28	24.81
216.745	23
217.21	21.31
217.675	19.59
218.14	18.23
218.604	16.95
219.069	15.94
219.534	15.05
219.998	14.24
220.463	13.64
220.927	13.03
221.392	12.61
221.856	12.25
222.32	11.94
222.785	11.73
223.249	11.45
223.713	11.23
224.177	11.04
224.642	10.88
225.106	10.7
225.57	10.52
226.034	10.37
226.497	10.2
226.961	10.07
227.425	9.91
227.889	9.76
228.353	9.64
228.816	9.52
229.28	9.38
229.744	9.26
230.207	9.16
230.671	9.05
231.134	8.95
231.597	8.87
232.061	8.77
232.524	8.67
232.987	8.59
233.45	8.51
233.914	8.42
234.377	8.34
234.84	8.26
235.303	8.2
235.766	8.13
236.229	8.05
236.691	7.98
237.154	7.92
237.617	7.87
238.08	7.8
238.542	7.73
239.005	7.68
239.468	7.61
239.93	7.56
240.393	7.51
240.855	7.45
241.317	7.41
241.78	7.34
242.242	7.28
242.704	7.25
243.166	7.2
243.629	7.16
244.091	7.11
244.553	7.07
245.015	7.02
245.477	6.97
245.939	6.92
246.4	6.88
246.862	6.85
247.324	6.81
247.786	6.75
248.247	6.71
248.709	6.65
249.17	6.6
249.632	6.58
250.093	6.53
250.555	6.5
251.016	6.47
251.477	6.42
251.939	6.39
252.4	6.36
252.861	6.33
253.322	6.3
253.783	6.28
254.244	6.25
254.705	6.21
255.166	6.19
255.627	6.15
256.088	6.13
256.549	6.11
257.009	6.07
257.47	6.04
257.931	6
258.391	5.97
258.852	5.94
259.312	5.92
259.773	5.9
260.233	5.88
260.694	5.86
261.154	5.83
261.614	5.81
262.074	5.8
262.534	5.77
262.994	5.76
263.455	5.75
263.915	5.73
264.374	5.72
264.834	5.71
265.294	5.69
265.754	5.68
266.214	5.67
266.673	5.67
267.133	5.66
267.593	5.66
268.052	5.66
268.512	5.65
268.971	5.65
269.431	5.64
269.89	5.63
270.349	5.62
270.809	5.61
271.268	5.6
271.727	5.59
272.186	5.58
272.645	5.58
273.104	5.56
273.563	5.56
274.022	5.55
274.481	5.55
274.94	5.54
275.399	5.53
275.857	5.52
276.316	5.51
276.775	5.5
277.233	5.49
277.692	5.48
278.15	5.47
278.609	5.47
279.067	5.46
279.525	5.45
279.984	5.44
280.442	5.43
280.9	5.43
281.358	5.42
281.816	5.41
282.274	5.4
282.732	5.39
283.19	5.37
283.648	5.36
284.106	5.34
284.564	5.33
285.021	5.32
285.479	5.32
285.937	5.3
286.394	5.3
286.852	5.29
287.309	5.29
287.767	5.28
288.224	5.28
288.682	5.27
289.139	5.27
289.596	5.26
290.053	5.25
290.511	5.23
290.968	5.22
291.425	5.21
291.882	5.2
292.339	5.19
292.796	5.18
293.252	5.17
293.709	5.16
294.166	5.14
294.623	5.13
295.079	5.12
295.536	5.11
295.992	5.11
296.449	5.09
296.905	5.08
297.362	5.07
297.818	5.06
298.274	5.06
298.731	5.05
299.187	5.04
299.643	5.03
300.099	5.02
300.555	5.01
301.011	5
301.467	5
301.923	4.99
302.379	4.99
302.835	4.99
303.291	4.98
303.746	4.97
304.202	4.97
304.658	4.97
305.113	4.96
305.569	4.96
306.024	4.96
306.479	4.95
306.935	4.93
307.39	4.92
307.845	4.91
308.301	4.91
308.756	4.91
309.211	4.9
309.666	4.91
310.121	4.9
310.576	4.9
311.031	4.9
311.486	4.91
311.94	4.91
312.395	4.91
312.85	4.92
313.305	4.92
313.759	4.92
314.214	4.92
314.668	4.91
315.123	4.92
315.577	4.92
316.032	4.91
316.486	4.91
316.94	4.91
317.394	4.91
317.849	4.89
318.303	4.89
318.757	4.88
319.211	4.88
319.665	4.87
320.119	4.85
320.572	4.84
321.026	4.82
321.48	4.81
321.934	4.8
322.387	4.78
322.841	4.78
323.295	4.78
323.748	4.77
324.202	4.77
324.655	4.76
325.108	4.77
325.562	4.78
326.015	4.78
326.468	4.78
326.921	4.77
327.374	4.77
327.827	4.76
328.28	4.74
328.733	4.75
329.186	4.75
329.639	4.74
330.092	4.74
330.545	4.73
330.997	4.72
331.45	4.73
331.903	4.74
332.355	4.74
332.808	4.74
333.26	4.74
333.713	4.73
334.165	4.72
334.617	4.73
335.069	4.72
335.522	4.73
335.974	4.74
336.426	4.74
336.878	4.73
337.33	4.73
337.782	4.72
338.234	4.74
338.686	4.74
339.137	4.75
339.589	4.75
340.041	4.75
340.493	4.75
340.944	4.73
341.396	4.72
341.847	4.72
342.299	4.7
342.75	4.7
343.201	4.67
343.653	4.67
344.104	4.65
344.555	4.64
345.006	4.63
345.457	4.62
345.908	4.62
346.359	4.62
346.81	4.62
347.261	4.62
347.712	4.62
348.163	4.61
348.613	4.61
349.064	4.62
349.515	4.62
349.965	4.62
350.416	4.61
350.866	4.61
351.317	4.61
351.767	4.62
352.217	4.63
352.668	4.64
353.118	4.64
353.568	4.64
354.018	4.64
354.468	4.65
354.918	4.65
355.368	4.67
355.818	4.67
356.268	4.67
356.718	4.67
357.168	4.66
357.617	4.66
358.067	4.66
358.517	4.66
358.966	4.67
359.416	4.67
359.865	4.67
360.315	4.68
360.764	4.69
361.213	4.69
361.663	4.69
362.112	4.7
362.561	4.72
363.01	4.72
363.459	4.72
363.908	4.72
364.357	4.73
364.806	4.73
365.255	4.74
365.703	4.74
366.152	4.75
366.601	4.76
367.05	4.77
367.498	4.77
367.947	4.78
368.395	4.79
368.844	4.81
369.292	4.81
369.74	4.82
370.189	4.84
370.637	4.84
371.085	4.84
371.533	4.84
371.981	4.85
372.429	4.86
372.877	4.87
373.325	4.88
373.773	4.89
374.221	4.9
374.669	4.91
375.116	4.91
375.564	4.92
376.012	4.94
376.459	4.96
376.907	4.98
377.354	5.01
377.801	5.03
378.249	5.05
378.696	5.07
379.143	5.09
379.591	5.1
380.038	5.12
380.485	5.15
380.932	5.17
381.379	5.2
381.826	5.22
382.273	5.23
382.72	5.25
383.166	5.27
383.613	5.29
384.06	5.31
384.506	5.34
384.953	5.37
385.4	5.41
385.846	5.44
386.292	5.47
386.739	5.5
387.185	5.53
387.631	5.57
388.078	5.6
388.524	5.64
388.97	5.68
389.416	5.71
389.862	5.75
390.308	5.79
390.754	5.83
391.2	5.87
391.645	5.9
392.091	5.96
392.537	6.01
392.983	6.04
393.428	6.09
393.874	6.14
394.319	6.19
394.765	6.24
395.21	6.28
395.655	6.31
396.101	6.36
396.546	6.4
396.991	6.43
397.436	6.47
397.881	6.52
398.326	6.56
398.771	6.6
399.216	6.63
399.661	6.67
400.106	6.7
400.551	6.73
400.995	6.75
401.44	6.78
401.885	6.8
402.329	6.82
402.774	6.84
403.218	6.88
403.663	6.9
404.107	6.93
404.551	6.96
404.995	6.97
405.44	6.99
405.884	7.01
406.328	7.03
406.772	7.03
407.216	7.03
407.66	7.03
408.104	7.02
408.547	7.02
408.991	7.03
409.435	7.03
409.879	7.03
410.322	7.04
410.766	7.06
411.209	7.08
411.653	7.1
412.096	7.13
412.54	7.14
412.983	7.15
413.426	7.17
413.869	7.18
414.312	7.22
414.756	7.25
415.199	7.26
415.642	7.28
416.085	7.3
416.527	7.29
416.97	7.29
417.413	7.3
417.856	7.31
418.298	7.3
418.741	7.31
419.184	7.31
419.626	7.29
420.069	7.29
420.511	7.28
420.953	7.28
421.396	7.3
421.838	7.3
422.28	7.3
422.722	7.3
423.164	7.31
423.606	7.31
424.048	7.31
424.49	7.31
424.932	7.3
425.374	7.29
425.816	7.25
426.258	7.23
426.699	7.21
427.141	7.2
427.582	7.19
428.024	7.18
428.465	7.16
428.907	7.13
429.348	7.11
429.789	7.1
430.231	7.1
430.672	7.1
431.113	7.1
431.554	7.11
431.995	7.12
432.436	7.12
432.877	7.11
433.318	7.13
433.759	7.16
434.2	7.18
434.64	7.19
435.081	7.2
435.522	7.22
435.962	7.24
436.403	7.26
436.843	7.26
437.284	7.27
437.724	7.29
438.164	7.3
438.604	7.3
439.045	7.31
439.485	7.31
439.925	7.32
440.365	7.33
440.805	7.33
441.245	7.34
441.685	7.37
442.125	7.4
442.564	7.42
443.004	7.44
443.444	7.47
443.883	7.49
444.323	7.52
444.762	7.55
445.202	7.57
445.641	7.61
446.081	7.64
446.52	7.67
446.959	7.72
447.398	7.74
447.837	7.78
448.276	7.81
448.716	7.84
449.154	7.87
449.593	7.9
450.032	7.94
450.471	7.94
450.91	7.95
451.349	7.95
451.787	7.94
452.226	7.96
452.664	7.96
453.103	7.96
453.541	7.96
453.98	7.97
454.418	7.96
454.856	7.95
455.295	7.95
455.733	7.94
456.171	7.94
456.609	7.94
457.047	7.92
457.485	7.91
457.923	7.89
458.361	7.89
458.798	7.87
459.236	7.88
459.674	7.86
460.111	7.86
460.549	7.87
460.987	7.87
461.424	7.88
461.862	7.89
462.299	7.9
462.736	7.9
463.173	7.9
463.611	7.9
464.048	7.89
464.485	7.9
464.922	7.9
465.359	7.88
465.796	7.89
466.233	7.88
466.67	7.88
467.106	7.88
467.543	7.87
467.98	7.87
468.416	7.87
468.853	7.88
469.29	7.87
469.726	7.88
470.162	7.89
470.599	7.89
471.035	7.88
471.471	7.88
471.907	7.88
472.344	7.9
472.78	7.9
473.216	7.9
473.652	7.91
474.088	7.9
474.523	7.91
474.959	7.92
475.395	7.9
475.831	7.91
476.266	7.91
476.702	7.91
477.138	7.92
477.573	7.93
478.008	7.94
478.444	7.94
478.879	7.96
479.314	7.95
479.75	7.96
480.185	7.97
480.62	7.97
481.055	7.98
481.49	7.98
481.925	7.99
482.36	8
482.795	8
483.229	8.02
483.664	8.04
484.099	8.05
484.534	8.06
484.968	8.08
485.403	8.1
485.837	8.13
486.271	8.16
486.706	8.19
487.14	8.22
487.574	8.25
488.009	8.28
488.443	8.31
488.877	8.37
489.311	8.41
489.745	8.46
490.179	8.52
490.613	8.58
491.046	8.63
491.48	8.68
491.914	8.75
492.348	8.81
492.781	8.89
493.215	8.96
493.648	9.02
494.082	9.11
494.515	9.18
494.948	9.26
495.382	9.34
495.815	9.44
496.248	9.53
496.681	9.63
497.114	9.73
497.547	9.83
497.98	9.94
498.413	10.04
498.846	10.15
499.279	10.27
499.711	10.39
500.144	10.53
500.577	10.66
501.009	10.78
501.442	10.92
501.874	11.07
502.306	11.2
502.739	11.37
503.171	11.52
503.603	11.68
504.036	11.85
504.468	12.01
504.9	12.16
505.332	12.32
505.764	12.51
506.196	12.68
506.627	12.85
507.059	13.05
507.491	13.23
507.923	13.43
508.354	13.63
508.786	13.83
509.217	14.04
509.649	14.25
510.08	14.46
510.512	14.67
510.943	14.89
511.374	15.11
511.805	15.32
512.237	15.54
512.668	15.76
513.099	15.97
513.53	16.2
513.961	16.42
514.391	16.66
514.822	16.89
515.253	17.11
515.684	17.32
516.114	17.53
516.545	17.76
516.975	17.97
517.406	18.2
517.836	18.4
518.267	18.62
518.697	18.82
519.127	19.01
519.558	19.21
519.988	19.4
520.418	19.6
520.848	19.79
521.278	19.97
521.708	20.3
522.138	20.47
522.567	20.65
522.997	20.81
523.427	20.98
523.857	21.14
524.286	21.3
524.716	21.45
525.145	21.59
525.575	21.75
526.004	21.89
526.433	21.87
526.863	22
527.292	22.13
527.721	22.24
528.15	22.34
528.579	22.45
529.008	22.56
529.437	22.66
529.866	22.75
530.295	22.83
530.724	22.92
531.152	23
531.581	23.07
532.01	23.15
532.438	23.23
532.867	23.29
533.295	23.35
533.723	23.41
534.152	23.47
534.58	23.54
535.008	23.57
535.436	23.62
535.865	23.66
536.293	23.7
536.721	23.73
537.149	23.76
537.576	23.79
538.004	23.82
538.432	23.84
538.86	23.84
539.287	23.85
539.715	23.89
540.143	23.89
540.57	23.92
540.998	23.93
541.425	23.95
541.852	23.96
542.28	23.98
542.707	24.01
543.134	24.03
543.561	24.06
543.988	24.09
544.415	24.09
544.842	24.1
545.269	24.12
545.696	24.14
546.123	24.16
546.549	24.18
546.976	24.21
547.403	24.22
547.829	24.22
548.256	24.25
548.682	24.24
549.108	24.27
549.535	24.29
549.961	24.28
550.387	24.29
550.813	24.29
551.24	24.28
551.666	24.28
552.092	24.29
552.518	24.29
552.943	24.27
553.369	24.27
553.795	24.26
554.221	24.24
554.646	24.24
555.072	24.23
555.498	24.2
555.923	24.19
556.349	24.15
556.774	24.11
557.199	24.09
557.625	24.06
558.05	24.02
558.475	23.98
558.9	23.95
559.325	23.93
559.75	23.89
560.175	23.87
560.6	23.82
561.025	23.78
561.449	23.73
561.874	23.66
562.299	23.6
562.723	23.52
563.148	23.45
563.572	23.36
563.997	23.26
564.421	23.16
564.846	23.07
565.27	22.98
565.694	22.88
566.118	22.8
566.542	22.71
566.966	22.61
567.39	22.52
567.814	22.41
568.238	22.31
568.662	22.21
569.086	22.12
569.509	22.02
569.933	21.93
570.357	21.83
570.78	21.72
571.204	21.62
571.627	21.53
572.05	21.44
572.474	21.37
572.897	21.3
573.32	21.22
573.743	21.13
574.166	21.05
574.589	20.97
575.012	20.89
575.435	20.83
575.858	20.75
576.281	20.67
576.704	20.61
577.126	20.54
577.549	20.47
577.972	20.38
578.394	20.31
578.817	20.25
579.239	20.2
579.661	20.12
580.084	20.08
580.506	20.02
580.928	19.98
581.35	19.92
581.772	19.86
582.194	19.81
582.616	19.77
583.038	19.73
583.46	19.67
583.882	19.62
584.303	19.57
584.725	19.52
585.147	19.49
585.568	19.45
585.99	19.39
586.411	19.35
586.833	19.31
587.254	19.27
587.675	19.23
588.096	19.18
588.518	19.13
588.939	19.1
589.36	19.05
589.781	19.01
590.202	18.98
590.623	18.96
591.043	18.92
591.464	18.88
591.885	18.85
592.305	18.83
592.726	18.81
593.147	18.78
593.567	18.75
593.987	18.73
594.408	18.7
594.828	18.66
595.248	18.64
595.669	18.63
596.089	18.6
596.509	18.57
596.929	18.52
597.349	18.49
597.769	18.46
598.189	18.43
598.608	18.41
599.028	18.39
599.448	18.35
599.867	18.31
600.287	18.27
600.706	18.24
601.126	18.21
601.545	18.19
601.965	18.17
602.384	18.14
602.803	18.11
603.222	18.07
603.641	18.02
604.061	17.98
604.48	17.94
604.898	17.89
605.317	17.85
605.736	17.8
606.155	17.75
606.574	17.7
606.992	17.65
607.411	17.6
607.829	17.53
608.248	17.46
608.666	17.41
609.085	17.36
609.503	17.31
609.921	17.25
610.339	17.19
610.758	17.15
611.176	17.09
611.594	17.04
612.012	16.97
612.43	16.93
612.847	16.9
613.265	16.84
613.683	16.78
614.101	16.72
614.518	16.66
614.936	16.61
615.353	16.54
615.771	16.49
616.188	16.44
616.606	16.4
617.023	16.34
617.44	16.29
617.857	16.25
618.274	16.21
618.691	16.17
619.108	16.13
619.525	16.09
619.942	16.05
620.359	16.02
620.776	15.99
621.192	15.96
621.609	15.94
622.026	15.92
622.442	15.88
622.859	15.87
623.275	15.86
623.691	15.85
624.108	15.83
624.524	15.82
624.94	15.81
625.356	15.79
625.772	15.77
626.188	15.76
626.604	15.75
627.02	15.74
627.436	15.72
627.852	15.71
628.268	15.7
628.683	15.7
629.099	15.69
629.514	15.67
629.93	15.65
630.345	15.64
630.761	15.61
631.176	15.57
631.591	15.54
632.007	15.5
632.422	15.44
632.837	15.39
633.252	15.32
633.667	15.26
634.082	15.2
634.497	15.13
634.911	15.05
635.326	14.96
635.741	14.88
636.155	14.8
636.57	14.7
636.984	14.61
637.399	14.5
637.813	14.4
638.228	14.29
638.642	14.17
639.056	14.05
639.47	13.95
639.884	13.84
640.298	13.72
640.712	13.6
641.126	13.48
641.54	13.36
641.954	13.24
642.368	13.11
642.781	13
643.195	12.88
643.609	12.78
644.022	12.66
644.436	12.54
644.849	12.43
645.262	12.32
645.676	12.23
646.089	12.14
646.502	12.07
646.915	12
647.328	11.92
647.741	11.86
648.154	11.78
648.567	11.73
648.98	11.67
649.393	11.62
649.805	11.59
650.218	11.54
650.631	11.51
651.043	11.46
651.456	11.42
651.868	11.38
652.28	11.33
652.693	11.29
653.105	11.24
653.517	11.19
653.929	11.14
654.341	11.06
654.753	11
655.165	10.94
655.577	10.87
655.989	10.79
656.401	10.71
656.813	10.64
657.224	10.56
657.636	10.47
658.047	10.39
658.459	10.3
658.87	10.21
659.282	10.11
659.693	10
660.104	9.89
660.515	9.78
660.926	9.68
661.338	9.56
661.749	9.46
662.159	9.36
662.57	9.26
662.981	9.16
663.392	9.06
663.803	8.97
664.213	8.88
664.624	8.8
665.035	8.72
665.445	8.65
665.855	8.59
666.266	8.52
666.676	8.47
667.086	8.41
667.497	8.35
667.907	8.3
668.317	8.25
668.727	8.21
669.137	8.17
669.547	8.14
669.956	8.11
670.366	8.08
670.776	8.05
671.186	8.03
671.595	8.01
672.005	7.99
672.414	7.98
672.824	7.97
673.233	7.97
673.642	7.97
674.052	7.97
674.461	7.98
674.87	7.98
675.279	8.01
675.688	8.03
676.097	8.06
676.506	8.1
676.915	8.13
677.323	8.18
677.732	8.21
678.141	8.26
678.549	8.3
678.958	8.37
679.366	8.45
679.775	8.51
680.183	8.6
680.592	8.71
681	8.83
681.408	8.96
681.816	9.11
682.224	9.29
682.632	9.47
683.04	9.67
683.448	9.88
683.856	10.1
684.264	10.36
684.671	10.62
685.079	10.89
685.487	11.19
685.894	11.5
686.302	11.83
686.709	12.18
687.116	12.53
687.524	12.92
687.931	13.31
688.338	13.74
688.745	14.16
689.152	14.58
689.559	15.04
689.966	15.49
690.373	15.94
690.78	16.4
691.187	16.85
691.593	17.3
692	17.74
692.407	18.18
692.813	18.61
693.22	19.02
693.626	19.46
694.032	19.88
694.439	20.3
694.845	20.7
695.251	21.12
695.657	21.51
696.063	21.92
696.469	22.3
696.875	22.67
697.281	23.04
697.687	23.41
698.093	23.77
698.498	24.1
698.904	24.44
699.31	24.76
699.715	25.07
700.12	25.4
700.526	25.68
700.931	25.98
701.337	26.26
701.742	26.53
702.147	26.8
702.552	27.05
702.957	27.3
703.362	27.52
703.767	27.74
704.172	27.96
704.577	28.15
704.981	28.38
705.386	28.58
705.791	28.77
706.195	28.97
706.6	29.16
707.004	29.33
707.408	29.53
707.813	29.72
708.217	29.89
708.621	30.07
709.025	30.24
709.43	30.39
709.834	30.55
710.237	30.7
710.641	30.85
711.045	30.98
711.449	31.15
711.853	31.31
712.256	31.42
712.66	31.57
713.064	31.68
713.467	31.81
713.87	31.93
714.274	32.05
714.677	32.17
715.08	32.28
715.484	32.4
715.887	32.5
716.29	32.59
716.693	32.73
717.096	32.83
717.499	32.94
717.901	33.05
718.304	33.15
718.707	33.26
719.109	33.37
719.512	33.48
719.915	33.57
720.317	33.67
720.719	33.73
721.122	33.8
721.524	33.86
721.926	33.94
722.328	34.02
722.731	34.1
723.133	34.17
723.535	34.23
723.937	34.28
724.338	34.33
724.74	34.39
725.142	34.53
725.544	34.57
725.945	34.67
726.347	34.69
726.748	34.71
727.15	34.75
727.551	34.8
727.952	34.83
728.354	34.87
728.755	34.92
729.156	34.93
729.557	34.87
729.958	34.91
730.359	34.93
730.76	35
731.161	35.03
731.562	35.07
731.962	35.08
732.363	35.1
732.763	35.13
733.164	35.16
733.564	35.2
733.965	35.25
734.365	35.27
734.766	35.29
735.166	35.31
735.566	35.35
735.966	35.39
736.366	35.41
736.766	35.44
737.166	35.47
737.566	35.47
737.966	35.5
738.365	35.52
738.765	35.54
739.165	35.56
739.564	35.54
739.964	35.55
740.363	35.54
740.763	35.53
741.162	35.54
741.561	35.52
741.96	35.52
742.36	35.54
742.759	35.54
743.158	35.52
743.557	35.51
743.955	35.53
744.354	35.55
744.753	35.59
745.152	35.62
745.55	35.66
745.949	35.67
746.348	35.71
746.746	35.71
747.144	35.74
747.543	35.77
747.941	35.78
748.339	35.77
748.737	35.77
749.136	35.76
749.534	35.76
749.932	35.74
750.33	35.73
750.727	35.75
751.125	35.73
751.523	35.71
751.921	35.72
752.318	35.72
752.716	35.74
753.113	35.73
753.511	35.71
753.908	35.72
754.305	35.72
754.703	35.73
755.1	35.71
755.497	35.71
755.894	35.71
756.291	35.71
756.688	35.7
757.085	35.7
757.482	35.68
757.878	35.7
758.275	35.69
758.672	35.67
759.068	35.69
759.465	35.67
759.861	35.68
760.258	35.68
760.654	35.66
761.05	35.66
761.447	35.66
761.843	35.65
762.239	35.65
762.635	35.63
763.031	35.65
763.427	35.62
763.822	35.62
764.218	35.61
764.614	35.63
765.01	35.63
765.405	35.63
765.801	35.62
766.196	35.63
766.592	35.63
766.987	35.63
767.382	35.62
767.778	35.62
768.173	35.6
768.568	35.62
768.963	35.6
769.358	35.6
769.753	35.6
770.148	35.59
770.542	35.59
770.937	35.57
771.332	35.55
771.726	35.54
772.121	35.55
772.515	35.55
772.91	35.52
773.304	35.51
773.699	35.5
774.093	35.47
774.487	35.48
774.881	35.49
775.275	35.48
775.669	35.48
776.063	35.47
776.457	35.45
776.851	35.43
777.245	35.41
777.638	35.4
778.032	35.44
778.425	35.48
778.819	35.49
779.212	35.5
779.606	35.52
779.999	35.52
780.392	35.55
780.786	35.55
781.179	35.56
781.572	35.59
781.965	35.6
782.358	35.59
782.751	35.57
783.143	35.56
783.536	35.54
783.929	35.56
784.322	35.58
784.714	35.57
785.107	35.59
785.499	35.61
785.891	35.61
786.284	35.6
786.676	35.58
787.068	35.58
787.46	35.57
787.852	35.59
788.245	35.57
788.636	35.57
789.028	35.59
789.42	35.57
789.812	35.56
790.204	35.58
790.595	35.6
790.987	35.61
791.378	35.63
791.77	35.63
792.161	35.62
792.553	35.64
792.944	35.65
793.335	35.65
793.726	35.67
794.117	35.67
794.508	35.65
794.899	35.65
795.29	35.66
795.681	35.66
796.072	35.67
796.463	35.68
796.853	35.67
797.244	35.66
797.634	35.64
798.025	35.66
798.415	35.66
798.806	35.64
799.196	35.64
799.586	35.66
799.976	35.67
800.366	35.66
800.756	35.65
801.146	35.66
801.536	35.67
801.926	35.7
802.316	35.69
802.706	35.7
803.095	35.71
803.485	35.72
803.874	35.72
804.264	35.7
804.653	35.71
805.043	35.71
805.432	35.7
805.821	35.69
806.21	35.68
806.599	35.69
806.988	35.69
807.377	35.71
807.766	35.7
808.155	35.7
808.544	35.72
808.933	35.73
809.321	35.72
809.71	35.74
810.098	35.72
810.487	35.71
810.875	35.69
811.264	35.69
811.652	35.7
812.04	35.69
812.428	35.72
812.816	35.71
813.204	35.7
813.592	35.7
813.98	35.69
814.368	35.72
814.756	35.72
815.144	35.71
815.531	35.73
815.919	35.71
816.306	35.72
816.694	35.68
817.081	35.69
817.469	35.7
817.856	35.69
818.243	35.7
818.63	35.68
819.017	35.69
819.404	35.68
819.791	35.67
820.178	35.69
820.565	35.69
820.952	35.7
821.339	35.67
821.725	35.69
822.112	35.74
822.498	35.74
822.885	35.77
823.271	35.76
823.657	35.76
824.044	35.77
824.43	35.75
824.816	35.75
825.202	35.75
825.588	35.75
825.974	35.73
826.36	35.68
826.746	35.67
827.132	35.66
827.517	35.67
827.903	35.69
828.289	35.69
828.674	35.69
829.06	35.68
829.445	35.66
829.83	35.65
830.216	35.62
830.601	35.62
830.986	35.62
831.371	35.58
831.756	35.57
832.141	35.54
832.526	35.51
832.911	35.5
833.295	35.5
833.68	35.5
834.065	35.49
834.449	35.5
834.834	35.49
835.218	35.49
835.603	35.48
835.987	35.45
836.371	35.44
836.755	35.42
837.139	35.4
837.524	35.38
837.908	35.39
838.291	35.4
838.675	35.38
839.059	35.37
839.443	35.35
839.827	35.34
840.21	35.35
840.594	35.36
840.977	35.37
841.361	35.35
841.744	35.31
842.127	35.29
842.511	35.26
842.894	35.27
843.277	35.27
843.66	35.24
844.043	35.24
844.426	35.22
844.809	35.21
845.191	35.22
845.574	35.23
845.957	35.26
846.339	35.25
846.722	35.26
847.104	35.25
847.487	35.24
847.869	35.26
848.252	35.26
848.634	35.26
849.016	35.28
849.398	35.26
849.78	35.25
850.162	35.24
850.544	35.23
850.926	35.23
851.307	35.21
851.689	35.2
852.071	35.2
852.452	35.21
852.834	35.21
853.215	35.2
853.597	35.19
853.978	35.18
854.359	35.19
854.741	35.19
855.122	35.18
855.503	35.19
855.884	35.19
856.265	35.19
856.646	35.19
857.026	35.22
857.407	35.22
857.788	35.21
858.169	35.24
858.549	35.23
858.93	35.23
859.31	35.23
859.69	35.23
860.071	35.25
860.451	35.25
860.831	35.23
861.211	35.19
861.591	35.18
861.971	35.18
862.351	35.19
862.731	35.2
863.111	35.18
863.491	35.19
863.87	35.19
864.25	35.15
864.629	35.14
865.009	35.14
865.388	35.14
865.768	35.15
866.147	35.16
866.526	35.13
866.905	35.14
867.284	35.15
867.663	35.14
868.042	35.15
868.421	35.17
868.8	35.18
869.179	35.2
869.558	35.23
869.936	35.23
870.315	35.2
870.693	35.2
871.072	35.21
871.45	35.21
871.828	35.2
872.207	35.21
872.585	35.22
872.963	35.22
873.341	35.2
873.719	35.19
874.097	35.16
874.475	35.19
874.853	35.2
875.23	35.2
875.608	35.2
875.986	35.21
876.363	35.21
876.741	35.22
877.118	35.24
877.495	35.24
877.873	35.23
878.25	35.26
878.627	35.26
879.004	35.26
879.381	35.27
879.758	35.26
880.135	35.25
880.512	35.22
880.889	35.22
881.265	35.19
881.642	35.19
882.019	35.19
882.395	35.17
882.772	35.15
883.148	35.13
883.524	35.1
883.901	35.11
884.277	35.1
884.653	35.09
885.029	35.08
885.405	35.08
885.781	35.06
886.157	35.05
886.532	35.04
886.908	35.04
887.284	35.04
887.659	35.01
888.035	34.99
888.411	34.97
888.786	34.98
889.161	34.98
889.537	34.97
889.912	34.96
890.287	34.96
890.662	34.95
891.037	34.96
891.412	34.94
891.787	34.93
892.162	34.93
892.536	34.92
892.911	34.9
893.286	34.87
893.66	34.85
894.035	34.85
894.409	34.82
894.784	34.82
895.158	34.81
895.532	34.81
895.906	34.8
896.281	34.8
896.655	34.8
897.029	34.8
897.402	34.8
897.776	34.8
898.15	34.79
898.524	34.83
898.898	34.83
899.271	34.83
899.645	34.84
900.018	34.85
900.392	34.87
900.765	34.88
901.138	34.88
901.511	34.89
901.884	34.92
902.258	34.94
902.631	34.93
903.003	34.93
903.376	34.92
903.749	34.91
904.122	34.92
904.495	34.94
904.867	34.96
905.24	34.97
905.612	35
905.985	34.99
906.357	35
906.729	35
907.102	35.01
907.474	35
907.846	35
908.218	34.97
908.59	34.96
908.962	34.95
909.334	34.95
909.705	34.93
910.077	34.94
910.449	34.93
910.82	34.93
911.192	34.91
911.563	34.93
911.935	34.94
912.306	34.98
912.677	34.98
913.048	34.99
913.419	34.97
913.79	34.98
914.161	34.99
914.532	34.99
914.903	34.99
915.274	35.02
915.645	35.01
916.015	35.02
916.386	35.02
916.756	35
917.127	35
917.497	35.02
917.868	35.01
918.238	35.02
918.608	35.07
918.978	35.09
919.348	35.09
919.718	35.13
920.088	35.16
920.458	35.14
920.828	35.17
921.198	35.13
921.567	35.14
921.937	35.16
922.306	35.14
922.676	35.13
923.045	35.15
923.415	35.15
923.784	35.15
924.153	35.14
924.522	35.14
924.891	35.15
925.26	35.18
925.629	35.18
925.998	35.19
926.367	35.18
926.736	35.18
927.104	35.16
927.473	35.16
927.842	35.14
928.21	35.13
928.578	35.12
928.947	35.12
929.315	35.11
929.683	35.11
930.051	35.08
930.42	35.08
930.788	35.05
931.156	35.03
931.523	35.03
931.891	35.07
932.259	35.09
932.627	35.11
932.994	35.11
933.362	35.11
933.729	35.11
934.097	35.13
934.464	35.14
934.831	35.14
935.199	35.15
935.566	35.2
935.933	35.14
936.3	35.09
936.667	35.04
937.034	35.03
937.401	35.02
937.767	35.04
938.134	35.05
938.501	35.06
938.867	35.12
939.234	35.15
939.6	35.07
939.967	35.13
940.333	35.12
940.699	35.17
941.065	35.17
941.431	35.25
941.798	35.24
942.163	35.23
942.529	35.24
942.895	35.21
943.261	35.16
943.627	35.21
943.992	35.19
944.358	35.27
944.723	35.28
945.089	35.24
945.454	35.2
945.82	35.18
946.185	35.18
946.55	35.13
946.915	35.06
947.28	35.07
947.645	35.08
948.01	35.06
948.375	35.04
948.74	35
949.104	35.02
949.469	34.98
949.834	34.97
950.198	34.95
950.562	34.95
950.927	34.99
951.291	34.93
951.655	34.84
952.02	34.84
952.384	34.79
952.748	34.75
953.112	34.75
953.476	34.74
953.839	34.74
954.203	34.67
954.567	34.65
954.931	34.59
955.294	34.62
955.658	34.66
956.021	34.64
956.385	34.64
956.748	34.64
957.111	34.61
957.474	34.6
957.837	34.52
958.2	34.54
958.563	34.5
958.926	34.53
959.289	34.52
959.652	34.47
960.015	34.5
960.377	34.48
960.74	34.47
961.102	34.49
961.465	34.56
961.827	34.67
962.189	34.69
962.552	34.74
962.914	34.71
963.276	34.74
963.638	34.75
964	34.74
964.362	34.75
964.724	34.76
965.085	34.74
965.447	34.67
965.809	34.6
966.17	34.56
966.532	34.55
966.893	34.6
967.255	34.58
967.616	34.63
967.977	34.61
968.338	34.6
968.699	34.61
969.061	34.61
969.421	34.61
969.782	34.59
970.143	34.63
970.504	34.65
970.865	34.65
971.225	34.62
971.586	34.53
971.946	34.53
972.307	34.54
972.667	34.57
973.027	34.61
973.388	34.63
973.748	34.67
974.108	34.74
974.468	34.7
974.828	34.7
975.188	34.76
975.548	34.78
975.907	34.78
976.267	34.84
976.627	34.83
976.986	34.79
977.346	34.75
977.705	34.74
978.064	34.72
978.424	34.74
978.783	34.73
979.142	34.71
979.501	34.7
979.86	34.78
980.219	34.75
980.578	34.76
980.937	34.73
981.296	34.81
981.654	34.82
982.013	34.78
982.371	34.8
982.73	34.82
983.088	34.79
983.447	34.86
983.805	34.79
984.163	34.81
984.521	34.8
984.879	34.8
985.237	34.8
985.595	34.9
985.953	34.92
986.311	34.86
986.669	34.83
987.026	34.9
987.384	34.87
987.741	34.88
988.099	34.96
988.456	34.92
988.814	34.99
989.171	35.01
989.528	34.98
989.885	35.02
990.242	35.1
990.599	35.17
990.956	35.22
991.313	35.3
991.67	35.39
992.027	35.44
992.383	35.58
992.74	35.65
993.096	35.65
993.453	35.61
993.809	35.63
994.165	35.71
994.522	35.72
994.878	35.69
995.234	35.66
995.59	35.61
995.946	35.52
996.302	35.49
996.658	35.52
997.013	35.51
997.369	35.62
997.725	35.59
998.08	35.62
998.436	35.62
998.791	35.66
999.147	35.65
999.502	35.74
999.857	35.74
1000.212	35.65
1000.567	35.59
1000.922	35.7
1001.277	35.69
1001.632	35.76
1001.987	35.72
1002.342	35.73
1002.696	35.69
1003.051	35.88
1003.406	35.95
1003.76	35.98
1004.114	36.11
1004.469	36.22
1004.823	36.42
1005.177	36.39
1005.531	36.45
1005.885	36.52
1006.239	36.59
1006.593	36.64
1006.947	36.53
1007.301	36.34
1007.655	36.4
1008.008	36.44
1008.362	36.51
1008.715	36.34
1009.069	36.33
1009.422	36.39
1009.776	36.43
1010.129	36.46
1010.482	36.54
1010.835	36.52
1011.188	36.66
1011.541	36.75
1011.894	36.71
1012.247	36.6
1012.6	36.43
1012.952	36.48
1013.305	36.39
1013.657	36.43
1014.01	36.43
1014.362	36.38
1014.715	36.5
1015.067	36.54
1015.419	36.51
1015.771	36.49
1016.123	36.45
1016.475	36.59
1016.827	36.72
1017.179	36.81
1017.531	36.85
1017.883	37
1018.234	37.29
1018.586	37.35
1018.938	37.53
1019.289	37.32
1019.64	37.55
1019.992	37.85
1020.343	37.96
1020.694	37.9
1021.045	37.9
1021.396	37.87
1021.747	38
1022.098	37.86
1022.449	37.92
1022.8	37.69
1023.151	37.85
1023.501	37.78
1023.852	37.65
1024.202	37.7
1024.553	37.69
1024.903	37.95
1025.253	38.23
1025.604	38.12
1025.954	38.04
1026.304	38.11
1026.654	38.44
1027.004	38.45
1027.354	38.45
1027.703	38.31
1028.053	38.3
1028.403	38.66
1028.753	38.15
1029.102	38.31
1029.452	38.57
1029.801	39.03
1030.15	38.99
1030.499	38.84
897.758	1406.23
901.051	1411.05
904.343	1414.16
907.636	1438.06
910.928	1399.58
914.22	1397.61
917.511	1375.01
920.803	1318.79
924.094	1309.75
927.384	1280.3
930.675	1223.62
933.965	1217.91
937.255	1148.52
940.544	1097.56
943.834	1043.81
947.123	1034.1
950.411	972.95
953.7	953.48
956.988	901.93
960.276	862.57
963.563	849.57
966.851	818.92
970.138	811.63
973.424	784.54
976.711	791.4
979.997	750.57
983.283	746.71
986.568	730.5
989.853	707.23
993.138	694.3
996.423	670.72
999.708	650.46
1002.992	644.47
1006.275	612.72
1009.559	607.79
1012.842	583.86
1016.125	569.32
1019.408	558.01
1022.69	551.92
1025.972	540.43
1029.254	527.75
1032.536	518.12
1035.817	507.52
1039.098	500.54
1042.379	490.66
1045.659	485.3
1048.939	472.81
1052.219	463.28
1055.498	456.59
1058.778	444.83
1062.057	435.33
1065.335	429.45
1068.614	424.4
1071.892	420.26
1075.17	406.15
1078.447	399.66
1081.724	394.97
1085.001	393.3
1088.278	385.21
1091.554	377.41
1094.83	377.71
1098.106	375.04
1101.382	370.51
1104.657	366.91
1107.932	360.91
1111.206	363.13
1114.481	353.83
1117.755	350.97
1121.029	346.87
1124.302	346.03
1127.575	340.21
1130.848	335.86
1134.121	331.69
1137.393	331.09
1140.665	325.04
1143.937	322.23
1147.208	319.55
1150.48	319.65
1153.75	315
1157.021	310.61
1160.291	310.91
1163.561	305.89
1166.831	305.64
1170.101	303.61
1173.37	302.72
1176.639	303.37
1179.907	299.65
1183.176	296.71
1186.444	295.63
1189.711	296.33
1192.979	294.67
1196.246	292.93
1199.513	295.25
1202.78	293.49
1206.046	293.23
1209.312	290.25
1212.578	290.15
1215.843	293.65
1219.108	291.2
1222.373	297.37
1225.638	298.81
1228.902	303.79
1232.166	303.99
1235.43	305.44
1238.693	309.71
1241.956	311.18
1245.219	316.32
1248.482	316.44
1251.744	316.24
1255.006	318.11
1258.268	309.94
1261.529	306.92
1264.79	304.87
1268.051	303.26
1271.312	299.86
1274.572	295.66
1277.832	293.32
1281.092	288.31
1284.351	286.24
1287.61	285.99
1290.869	280.7
1294.128	279.26
1297.386	279.28
1300.644	276.07
1303.902	277.17
1307.159	275.56
1310.416	276.04
1313.673	275.47
1316.93	277.91
1320.186	278.23
1323.442	278.73
1326.697	284.28
1329.953	285.14
1333.208	286.16
1336.463	290.29
1339.717	289.94
1342.972	293.96
1346.226	296.39
1349.479	297.09
1352.733	298.79
1355.986	300.03
1359.238	300.33
1362.491	302.04
1365.743	304.89
1368.995	304.96
1372.247	303.61
1375.498	303.41
1378.749	306.01
1382	302.37
1385.251	304.4
1388.501	302.71
1391.751	304.55
1395	303.14
1398.25	300.42
1401.499	299.66
1404.748	299.69
1407.996	297.46
1411.244	296.77
1414.492	295.24
1417.74	293.68
1420.987	287.67
1424.234	288.83
1427.481	283.87
1430.728	284.23
1433.974	281.69
1437.22	279.33
1440.465	278.1
1443.711	275.78
1446.956	274.03
1450.201	269.76
1453.445	267.34
1456.689	266.86
1459.933	261.88
1463.177	260.26
1466.42	256.29
1469.663	253.59
1472.906	251.71
1476.148	244.72
1479.391	242.02
1482.633	239.77
1485.874	236.92
1489.115	234.93
1492.356	231.81
1495.597	230.77
1498.838	227.32
1502.078	225.54
1505.318	224.01
1508.557	223.9
1511.797	223.8
1515.036	222.19
1518.274	221.45
1521.513	218.96
1524.751	218.72
1527.989	218.24
1531.227	217
1534.464	217.41
1537.701	215.95
1540.938	215.34
1544.174	211.93
1547.41	211.9
1550.646	210.75
1553.882	210.21
1557.117	207.61
1560.352	206.2
1563.587	205.57
1566.821	204.09
1570.055	202.28
1573.289	200.53
1576.523	200.04
1579.756	198.7
1582.989	197.49
1586.222	197.05
1589.454	196.1
1592.686	197.98
1595.918	196.72
1599.15	195.85
1602.381	196.21
1605.612	195.53
1608.843	196.31
1612.073	196.55
1615.303	197.42
1618.533	197.67
1621.762	196.76
1624.992	197.63
1628.221	196.71
1631.449	196.74
1634.678	196.18
1637.906	197.21
1641.134	197.18
1644.361	196.87
1647.588	197.26
1650.815	196.56
1654.042	195.69
1657.269	197.25
1660.495	196.58
1663.72	196.12
1666.946	196.61
1670.171	197.69
1673.396	197.07
1676.621	197.04
1679.845	197.38
1683.069	197.42
1686.293	198.76
1689.517	199.6
1692.74	199.42
1695.963	200.37
1699.185	202.4
1702.408	202.77
1705.63	203.36
1708.852	204.34
1712.073	204.84
1715.294	205.23
1718.515	206.12
1721.736	205.65
1724.956	206.58
1728.176	206.58
1731.396	208.06
1734.616	207.23
1737.835	208.13
1741.054	206.48
1744.272	206.78
1747.491	208.79
1750.709	209.66
1753.927	209.65
1757.144	209.01
1760.361	210.05
1763.578	210.43
1766.795	209.59
1770.011	211.21
1773.227	211.31
1776.443	214.17
1779.658	215.51
1782.874	214.53
1786.089	215.33
1789.303	216.05
1792.518	219.12
1795.732	218.55
1798.945	221.51
1802.159	221.84
1805.372	222.08
1808.585	226.15
1811.797	226.81
1815.01	226.82
1818.222	229.54
1821.434	230.84
1824.645	231.39
1827.856	235.07
1831.067	237.64
1834.278	236.42
1837.488	238.14
1840.698	240.27
1843.908	237.84
1847.117	239.26
1850.326	240.91
1853.535	240.42
1856.744	243.54
1859.952	244
1863.16	242.45
1866.368	240.84
1869.575	244.03
1872.782	241.02
1875.989	240.41
1879.196	240.06
1882.402	238.77
1885.608	239.99
1888.814	240.52
1892.019	240.85
1895.224	240.52
1898.429	240.04
1901.634	241.82
1904.838	241.36
1908.042	244.65
1911.246	245.5
1914.449	247.27
1917.652	247.51
1920.855	247.23
1924.058	247.4
1927.26	245.89
1930.462	246.82
1933.664	249.7
1936.865	247.9
1940.066	248.17
1943.267	246.55
1946.467	246.66
1949.668	247.8
1952.868	251.44
1956.067	251.06
1959.267	251.61
1962.466	252.57
1965.665	250.73
1968.863	251.55
1972.061	254.82
1975.259	257.36
1978.457	258.81
1981.654	260.9
1984.852	261.45
1988.048	260.05
1991.245	262.91
1994.441	265.14
1997.637	267.28
2000.833	273.16
2004.028	276.27
2007.223	277.25
2010.418	280.34
2013.613	284.54
2016.807	287.68
2020.001	290.45
2023.194	294.52
2026.388	301.22
2029.581	307.32
2032.774	309.39
2035.966	315.03
2039.158	315.61
2042.35	322.33
2045.542	323.86
2048.733	329.42
2051.924	333.78
2055.115	339.03
2058.306	340.11
2061.496	342.53
2064.686	344.39
2067.875	350.31
2071.065	351.66
2074.254	349.7
2077.442	354.33
2080.631	355.16
2083.819	359.05
2087.007	358.25
2090.195	362.34
2093.382	366.36
2096.569	364.32
2099.756	369.25
2102.942	370.31
2106.128	373.09
2109.314	383.68
2112.5	381.51
2115.685	390.08
2118.87	390.6
2122.055	399.8
2125.239	401.96
2128.424	406.24
2131.608	408.65
2134.791	413.66
2137.974	415.08
2141.157	416.85
2144.34	415.03
2147.523	422.96
2150.705	419.84
2153.887	422.47
2157.068	422.76
2160.25	418.97
2163.431	420.79
2166.611	425.74
2169.792	434.78
2172.972	440
2176.152	442.83
2179.331	448.89
2182.511	454.85
2185.69	460.66
2188.868	471.55
2192.047	471.67
2195.225	485.97
2198.403	498.74
2201.58	507.81
2204.758	516.86
2207.935	526.47
2211.111	538.23
2214.288	544.13
2217.464	546.01
2220.64	554.94
2223.815	561.81
2226.991	585.3
2230.166	587.59
2233.34	596.87
2236.515	605.33
2239.689	604.2
2242.863	609.75
2246.036	626.66
2249.209	620.18
2252.382	631.05
2255.555	648.97
2258.727	651.58
2261.9	658.15
2265.071	663.16
2268.243	672.7
2271.414	682.66
2274.585	698.26
2277.756	705.29
2280.926	707.89
2284.096	726.46
2287.266	740.81
2290.436	748.39
2293.605	766.08
2296.774	786.96
2299.942	811.64
2303.111	817.97
2306.279	835.99
2309.447	848.5
2312.614	869.95
2315.781	894.13
2318.948	937.36
2322.115	923.38
2325.281	974.33
2328.447	953
2331.613	990.79
2334.779	980.92
2337.944	1022.95
2341.109	1032.88
2344.274	1062.38
2347.438	1100.65
2350.602	1101.4
2353.766	1133.28
2356.929	1151.76
2360.092	1139.93
2363.255	1225.92
2366.418	1223.36
2369.58	1247.91
2372.742	1329.04
2375.904	1362.56
2379.066	1352.45
2382.227	1323.28
2385.388	1434.65
2388.548	1434.18
2391.709	1452.92
2394.869	1620.37
2398.029	1551.38
2401.188	1592.64
2404.347	1585.76
2407.506	1553.82
2410.665	1599.4
2413.823	1693.11
2416.981	1793.37
2420.139	1743.26
2423.296	1721.64
2426.453	1798.99
2429.61	1735.11
2432.767	1812.53
2435.923	1797.82
2439.079	1961.35
2442.235	1993.53
2445.391	1972.22
2448.546	1961.34
2451.701	1909.91
2454.855	1900.7
2458.009	2028.07
2461.163	2109.15
2464.317	2175.81
2467.471	2232.3
2470.624	2230.29
2473.777	2176.5
2476.929	2113.63
2480.082	2055.62
2483.234	2033.18
2486.385	2130.56
2489.537	2141.57
2492.688	2213.61
2495.839	2151.12
2498.989	2105.63
2502.14	2115.48
2505.29	2143.43
2508.439	2169.12
2511.589	2167.41
2514.738	2364.66
2517.887	2315.11
2521.035	2444.84
2524.183	2461.22
2527.331	2481.42
2530.479	2468.88
2533.627	2488.56
