Data from N_3_DEC_VA_2N_Splice17_14-19-41-036.txt Node
Date: Sat Mar 07 14:19:41 EST 2020
User: sa697716
Spectrometer: NQ5500242
Trigger mode: 0
Integration Time (sec): 1.450000E-1
Scans to average: 20
Nonlinearity correction enabled: false
Boxcar width: 5
Storing dark spectrum: false
XAxis mode: Wavelengths
Number of Pixels in Spectrum: 512
>>>>>Begin Spectral Data<<<<<
187.83	155.27
188.298	166.71
188.766	148.48
189.233	128.14
189.701	116.62
190.169	114.62
190.636	101.56
191.104	95.29
191.571	-57.86
192.039	26.28
192.506	323.95
192.974	154.56
193.441	281.27
193.908	144.5
194.375	117.55
194.842	41.18
195.31	78.71
195.777	98.01
196.244	75.58
196.711	83.67
197.177	86.89
197.644	87.73
198.111	87.17
198.578	86.83
199.045	87.28
199.511	87.61
199.978	87.89
200.445	87.77
200.911	87.72
201.378	88.22
201.844	88.09
202.31	87.87
202.777	87.82
203.243	87.79
203.709	87.76
204.176	87.22
204.642	86.59
205.108	85.82
205.574	85.38
206.04	84.81
206.506	83.93
206.972	83.41
207.438	82.53
207.903	81.42
208.369	80.02
208.835	78.2
209.301	76.47
209.766	74.33
210.232	72.46
210.697	70.42
211.163	68.7
211.628	67.13
212.094	65.52
212.559	63.98
213.024	62.53
213.49	61.04
213.955	59.81
214.42	58.68
214.885	57.36
215.35	55.6
215.815	52.95
216.28	49.57
216.745	45.71
217.21	41.95
217.675	38.46
218.14	35.36
218.604	32.63
219.069	30.34
219.534	28.33
219.998	26.73
220.463	25.42
220.927	24.23
221.392	23.31
221.856	22.55
222.32	21.89
222.785	21.31
223.249	20.79
223.713	20.34
224.177	19.91
224.642	19.53
225.106	19.09
225.57	18.66
226.034	18.34
226.497	18.02
226.961	17.7
227.425	17.41
227.889	17.12
228.353	16.84
228.816	16.58
229.28	16.31
229.744	16.07
230.207	15.86
230.671	15.65
231.134	15.42
231.597	15.22
232.061	15.01
232.524	14.81
232.987	14.62
233.45	14.43
233.914	14.23
234.377	14.04
234.84	13.86
235.303	13.7
235.766	13.55
236.229	13.41
236.691	13.27
237.154	13.13
237.617	13
238.08	12.86
238.542	12.74
239.005	12.63
239.468	12.53
239.93	12.42
240.393	12.3
240.855	12.16
241.317	12.03
241.78	11.91
242.242	11.78
242.704	11.67
243.166	11.55
243.629	11.44
244.091	11.31
244.553	11.2
245.015	11.1
245.477	10.99
245.939	10.89
246.4	10.8
246.862	10.7
247.324	10.62
247.786	10.51
248.247	10.43
248.709	10.32
249.17	10.23
249.632	10.14
250.093	10.05
250.555	9.97
251.016	9.9
251.477	9.81
251.939	9.74
252.4	9.67
252.861	9.6
253.322	9.54
253.783	9.49
254.244	9.44
254.705	9.38
255.166	9.33
255.627	9.28
256.088	9.23
256.549	9.18
257.009	9.12
257.47	9.06
257.931	9.01
258.391	8.94
258.852	8.87
259.312	8.81
259.773	8.75
260.233	8.7
260.694	8.64
261.154	8.57
261.614	8.51
262.074	8.45
262.534	8.4
262.994	8.35
263.455	8.31
263.915	8.27
264.374	8.23
264.834	8.2
265.294	8.15
265.754	8.12
266.214	8.09
266.673	8.06
267.133	8.04
267.593	8.02
268.052	7.99
268.512	7.97
268.971	7.94
269.431	7.91
269.89	7.89
270.349	7.87
270.809	7.84
271.268	7.82
271.727	7.8
272.186	7.78
272.645	7.76
273.104	7.74
273.563	7.71
274.022	7.69
274.481	7.68
274.94	7.66
275.399	7.63
275.857	7.62
276.316	7.6
276.775	7.58
277.233	7.57
277.692	7.55
278.15	7.54
278.609	7.53
279.067	7.51
279.525	7.5
279.984	7.48
280.442	7.47
280.9	7.46
281.358	7.45
281.816	7.44
282.274	7.42
282.732	7.42
283.19	7.4
283.648	7.39
284.106	7.38
284.564	7.37
285.021	7.37
285.479	7.35
285.937	7.34
286.394	7.32
286.852	7.31
287.309	7.3
287.767	7.26
288.224	7.24
288.682	7.22
289.139	7.18
289.596	7.16
290.053	7.12
290.511	7.08
290.968	7.05
291.425	7.03
291.882	6.99
292.339	6.97
292.796	6.95
293.252	6.93
293.709	6.91
294.166	6.89
294.623	6.86
295.079	6.85
295.536	6.83
295.992	6.8
296.449	6.78
296.905	6.77
297.362	6.75
297.818	6.73
298.274	6.72
298.731	6.7
299.187	6.68
299.643	6.66
300.099	6.64
300.555	6.63
301.011	6.61
301.467	6.6
301.923	6.58
302.379	6.57
302.835	6.57
303.291	6.57
303.746	6.56
304.202	6.56
304.658	6.56
305.113	6.56
305.569	6.56
306.024	6.56
306.479	6.56
306.935	6.55
307.39	6.55
307.845	6.55
308.301	6.55
308.756	6.54
309.211	6.53
309.666	6.54
310.121	6.54
310.576	6.54
311.031	6.55
311.486	6.55
311.94	6.56
312.395	6.55
312.85	6.55
313.305	6.54
313.759	6.54
314.214	6.54
314.668	6.53
315.123	6.51
315.577	6.51
316.032	6.49
316.486	6.47
316.94	6.45
317.394	6.43
317.849	6.41
318.303	6.39
318.757	6.36
319.211	6.34
319.665	6.31
320.119	6.29
320.572	6.27
321.026	6.26
321.48	6.24
321.934	6.21
322.387	6.19
322.841	6.18
323.295	6.18
323.748	6.17
324.202	6.16
324.655	6.16
325.108	6.15
325.562	6.14
326.015	6.13
326.468	6.13
326.921	6.12
327.374	6.13
327.827	6.13
328.28	6.12
328.733	6.11
329.186	6.11
329.639	6.11
330.092	6.1
330.545	6.1
330.997	6.1
331.45	6.11
331.903	6.11
332.355	6.12
332.808	6.11
333.26	6.11
333.713	6.11
334.165	6.12
334.617	6.13
335.069	6.13
335.522	6.13
335.974	6.14
336.426	6.13
336.878	6.12
337.33	6.12
337.782	6.13
338.234	6.13
338.686	6.12
339.137	6.12
339.589	6.1
340.041	6.1
340.493	6.08
340.944	6.06
341.396	6.05
341.847	6.04
342.299	6.02
342.75	5.99
343.201	5.97
343.653	5.96
344.104	5.94
344.555	5.92
345.006	5.89
345.457	5.87
345.908	5.85
346.359	5.85
346.81	5.84
347.261	5.82
347.712	5.82
348.163	5.8
348.613	5.79
349.064	5.77
349.515	5.77
349.965	5.76
350.416	5.76
350.866	5.76
351.317	5.74
351.767	5.74
352.217	5.74
352.668	5.74
353.118	5.75
353.568	5.74
354.018	5.75
354.468	5.76
354.918	5.76
355.368	5.76
355.818	5.77
356.268	5.78
356.718	5.78
357.168	5.77
357.617	5.77
358.067	5.77
358.517	5.79
358.966	5.79
359.416	5.79
359.865	5.79
360.315	5.8
360.764	5.8
361.213	5.8
361.663	5.79
362.112	5.8
362.561	5.81
363.01	5.8
363.459	5.78
363.908	5.76
364.357	5.75
364.806	5.74
365.255	5.74
365.703	5.74
366.152	5.74
366.601	5.74
367.05	5.73
367.498	5.72
367.947	5.72
368.395	5.73
368.844	5.73
369.292	5.73
369.74	5.74
370.189	5.72
370.637	5.71
371.085	5.7
371.533	5.69
371.981	5.69
372.429	5.68
372.877	5.68
373.325	5.68
373.773	5.68
374.221	5.67
374.669	5.65
375.116	5.66
375.564	5.65
376.012	5.66
376.459	5.66
376.907	5.67
377.354	5.67
377.801	5.66
378.249	5.66
378.696	5.67
379.143	5.68
379.591	5.68
380.038	5.69
380.485	5.69
380.932	5.69
381.379	5.7
381.826	5.69
382.273	5.7
382.72	5.69
383.166	5.69
383.613	5.69
384.06	5.68
384.506	5.68
384.953	5.68
385.4	5.69
385.846	5.7
386.292	5.7
386.739	5.71
387.185	5.72
387.631	5.73
388.078	5.74
388.524	5.75
388.97	5.76
389.416	5.77
389.862	5.79
390.308	5.81
390.754	5.82
391.2	5.84
391.645	5.87
392.091	5.9
392.537	5.94
392.983	5.96
393.428	5.98
393.874	6.02
394.319	6.04
394.765	6.06
395.21	6.07
395.655	6.1
396.101	6.13
396.546	6.14
396.991	6.17
397.436	6.19
397.881	6.23
398.326	6.27
398.771	6.31
399.216	6.34
399.661	6.38
400.106	6.41
400.551	6.42
400.995	6.43
401.44	6.44
401.885	6.44
402.329	6.45
402.774	6.47
403.218	6.5
403.663	6.52
404.107	6.54
404.551	6.56
404.995	6.57
405.44	6.58
405.884	6.62
406.328	6.64
406.772	6.67
407.216	6.68
407.66	6.69
408.104	6.68
408.547	6.68
408.991	6.69
409.435	6.69
409.879	6.72
410.322	6.74
410.766	6.77
411.209	6.81
411.653	6.83
412.096	6.86
412.54	6.89
412.983	6.91
413.426	6.98
413.869	7.01
414.312	7.06
414.756	7.09
415.199	7.11
415.642	7.12
416.085	7.14
416.527	7.14
416.97	7.14
417.413	7.15
417.856	7.15
418.298	7.13
418.741	7.12
419.184	7.11
419.626	7.12
420.069	7.12
420.511	7.13
420.953	7.13
421.396	7.15
421.838	7.17
422.28	7.18
422.722	7.21
423.164	7.22
423.606	7.24
424.048	7.25
424.49	7.25
424.932	7.27
425.374	7.25
425.816	7.23
426.258	7.19
426.699	7.15
427.141	7.14
427.582	7.14
428.024	7.15
428.465	7.15
428.907	7.14
429.348	7.13
429.789	7.12
430.231	7.16
430.672	7.19
431.113	7.24
431.554	7.28
431.995	7.31
432.436	7.3
432.877	7.3
433.318	7.33
433.759	7.36
434.2	7.38
434.64	7.42
435.081	7.43
435.522	7.46
435.962	7.48
436.403	7.51
436.843	7.52
437.284	7.52
437.724	7.55
438.164	7.54
438.604	7.56
439.045	7.59
439.485	7.59
439.925	7.59
440.365	7.6
440.805	7.59
441.245	7.61
441.685	7.65
442.125	7.68
442.564	7.7
443.004	7.73
443.444	7.75
443.883	7.75
444.323	7.76
444.762	7.8
445.202	7.8
445.641	7.82
446.081	7.84
446.52	7.84
446.959	7.88
447.398	7.9
447.837	7.91
448.276	7.93
448.716	7.95
449.154	7.96
449.593	7.98
450.032	8
450.471	8
450.91	7.99
451.349	8
451.787	7.99
452.226	7.98
452.664	7.96
453.103	7.94
453.541	7.92
453.98	7.92
454.418	7.87
454.856	7.85
455.295	7.84
455.733	7.8
456.171	7.76
456.609	7.74
457.047	7.71
457.485	7.7
457.923	7.68
458.361	7.66
458.798	7.65
459.236	7.64
459.674	7.62
460.111	7.6
460.549	7.61
460.987	7.63
461.424	7.62
461.862	7.63
462.299	7.63
462.736	7.62
463.173	7.63
463.611	7.62
464.048	7.62
464.485	7.61
464.922	7.62
465.359	7.62
465.796	7.62
466.233	7.63
466.67	7.63
467.106	7.64
467.543	7.63
467.98	7.63
468.416	7.64
468.853	7.65
469.29	7.65
469.726	7.65
470.162	7.65
470.599	7.65
471.035	7.63
471.471	7.62
471.907	7.61
472.344	7.61
472.78	7.6
473.216	7.59
473.652	7.58
474.088	7.56
474.523	7.56
474.959	7.55
475.395	7.53
475.831	7.53
476.266	7.53
476.702	7.51
477.138	7.5
477.573	7.49
478.008	7.49
478.444	7.47
478.879	7.47
479.314	7.45
479.75	7.43
480.185	7.42
480.62	7.4
481.055	7.39
481.49	7.38
481.925	7.37
482.36	7.36
482.795	7.35
483.229	7.34
483.664	7.35
484.099	7.34
484.534	7.34
484.968	7.35
485.403	7.35
485.837	7.36
486.271	7.38
486.706	7.38
487.14	7.39
487.574	7.4
488.009	7.42
488.443	7.42
488.877	7.44
489.311	7.46
489.745	7.48
490.179	7.52
490.613	7.55
491.046	7.58
491.48	7.62
491.914	7.66
492.348	7.71
492.781	7.76
493.215	7.81
493.648	7.87
494.082	7.93
494.515	7.99
494.948	8.04
495.382	8.11
495.815	8.18
496.248	8.25
496.681	8.33
497.114	8.41
497.547	8.48
497.98	8.57
498.413	8.65
498.846	8.75
499.279	8.84
499.711	8.95
500.144	9.06
500.577	9.17
501.009	9.29
501.442	9.41
501.874	9.54
502.306	9.68
502.739	9.84
503.171	10
503.603	10.15
504.036	10.32
504.468	10.48
504.9	10.64
505.332	10.82
505.764	11
506.196	11.2
506.627	11.4
507.059	11.61
507.491	11.82
507.923	12.04
508.354	12.28
508.786	12.52
509.217	12.77
509.649	13.03
510.08	13.28
510.512	13.55
510.943	13.82
511.374	14.11
511.805	14.39
512.237	14.68
512.668	14.98
513.099	15.27
513.53	15.57
513.961	15.88
514.391	16.2
514.822	16.52
515.253	16.84
515.684	17.16
516.114	17.48
516.545	17.79
516.975	18.12
517.406	18.44
517.836	18.78
518.267	19.11
518.697	19.44
519.127	19.75
519.558	20.07
519.988	20.41
520.418	20.73
520.848	21.06
521.278	21.39
521.708	21.78
522.138	22.08
522.567	22.37
522.997	22.66
523.427	22.95
523.857	23.24
524.286	23.5
524.716	23.76
525.145	24.02
525.575	24.26
526.004	24.5
526.433	24.64
526.863	24.85
527.292	25.06
527.721	25.25
528.15	25.44
528.579	25.62
529.008	25.8
529.437	25.97
529.866	26.11
530.295	26.27
530.724	26.4
531.152	26.55
531.581	26.69
532.01	26.82
532.438	26.94
532.867	27.06
533.295	27.16
533.723	27.25
534.152	27.32
534.58	27.42
535.008	27.48
535.436	27.56
535.865	27.62
536.293	27.68
536.721	27.73
537.149	27.79
537.576	27.84
538.004	27.89
538.432	27.93
538.86	27.97
539.287	27.98
539.715	28.02
540.143	28.03
540.57	28.06
540.998	28.09
541.425	28.13
541.852	28.14
542.28	28.17
542.707	28.19
543.134	28.2
543.561	28.24
543.988	28.28
544.415	28.32
544.842	28.36
545.269	28.39
545.696	28.41
546.123	28.42
546.549	28.45
546.976	28.51
547.403	28.54
547.829	28.59
548.256	28.61
548.682	28.64
549.108	28.65
549.535	28.68
549.961	28.71
550.387	28.73
550.813	28.75
551.24	28.77
551.666	28.75
552.092	28.73
552.518	28.72
552.943	28.7
553.369	28.68
553.795	28.65
554.221	28.61
554.646	28.56
555.072	28.53
555.498	28.49
555.923	28.41
556.349	28.34
556.774	28.28
557.199	28.22
557.625	28.14
558.05	28.05
558.475	27.98
558.9	27.89
559.325	27.82
559.75	27.72
560.175	27.61
560.6	27.5
561.025	27.39
561.449	27.28
561.874	27.12
562.299	26.99
562.723	26.86
563.148	26.7
563.572	26.53
563.997	26.36
564.421	26.17
564.846	25.99
565.27	25.82
565.694	25.65
566.118	25.45
566.542	25.29
566.966	25.09
567.39	24.89
567.814	24.7
568.238	24.51
568.662	24.31
569.086	24.13
569.509	23.94
569.933	23.75
570.357	23.54
570.78	23.35
571.204	23.17
571.627	23.01
572.05	22.82
572.474	22.66
572.897	22.5
573.32	22.35
573.743	22.2
574.166	22.05
574.589	21.9
575.012	21.78
575.435	21.65
575.858	21.5
576.281	21.36
576.704	21.24
577.126	21.11
577.549	21
577.972	20.87
578.394	20.76
578.817	20.65
579.239	20.55
579.661	20.45
580.084	20.35
580.506	20.26
580.928	20.19
581.35	20.09
581.772	19.99
582.194	19.89
582.616	19.81
583.038	19.73
583.46	19.64
583.882	19.56
584.303	19.48
584.725	19.42
585.147	19.34
585.568	19.25
585.99	19.18
586.411	19.11
586.833	19.05
587.254	18.97
587.675	18.91
588.096	18.85
588.518	18.79
588.939	18.74
589.36	18.67
589.781	18.62
590.202	18.57
590.623	18.52
591.043	18.47
591.464	18.43
591.885	18.38
592.305	18.33
592.726	18.29
593.147	18.24
593.567	18.2
593.987	18.15
594.408	18.09
594.828	18.04
595.248	18.01
595.669	17.98
596.089	17.94
596.509	17.91
596.929	17.88
597.349	17.82
597.769	17.78
598.189	17.72
598.608	17.69
599.028	17.66
599.448	17.62
599.867	17.57
600.287	17.53
600.706	17.47
601.126	17.41
601.545	17.36
601.965	17.31
602.384	17.24
602.803	17.19
603.222	17.11
603.641	17.05
604.061	16.98
604.48	16.91
604.898	16.82
605.317	16.75
605.736	16.68
606.155	16.62
606.574	16.54
606.992	16.46
607.411	16.38
607.829	16.28
608.248	16.19
608.666	16.11
609.085	16.03
609.503	15.95
609.921	15.87
610.339	15.77
610.758	15.68
611.176	15.59
611.594	15.51
612.012	15.44
612.43	15.37
612.847	15.3
613.265	15.22
613.683	15.14
614.101	15.06
614.518	14.98
614.936	14.91
615.353	14.83
615.771	14.77
616.188	14.69
616.606	14.62
617.023	14.56
617.44	14.51
617.857	14.45
618.274	14.39
618.691	14.34
619.108	14.29
619.525	14.24
619.942	14.2
620.359	14.15
620.776	14.1
621.192	14.07
621.609	14.03
622.026	13.99
622.442	13.97
622.859	13.94
623.275	13.91
623.691	13.89
624.108	13.88
624.524	13.85
624.94	13.84
625.356	13.83
625.772	13.82
626.188	13.81
626.604	13.8
627.02	13.77
627.436	13.75
627.852	13.74
628.268	13.72
628.683	13.7
629.099	13.69
629.514	13.68
629.93	13.65
630.345	13.6
630.761	13.56
631.176	13.52
631.591	13.47
632.007	13.42
632.422	13.36
632.837	13.3
633.252	13.22
633.667	13.14
634.082	13.05
634.497	12.97
634.911	12.88
635.326	12.79
635.741	12.69
636.155	12.59
636.57	12.49
636.984	12.38
637.399	12.26
637.813	12.13
638.228	12
638.642	11.88
639.056	11.74
639.47	11.62
639.884	11.5
640.298	11.37
640.712	11.24
641.126	11.12
641.54	10.98
641.954	10.86
642.368	10.74
642.781	10.63
643.195	10.53
643.609	10.43
644.022	10.32
644.436	10.22
644.849	10.11
645.262	10.01
645.676	9.93
646.089	9.86
646.502	9.79
646.915	9.73
647.328	9.67
647.741	9.6
648.154	9.53
648.567	9.48
648.98	9.44
649.393	9.4
649.805	9.36
650.218	9.32
650.631	9.29
651.043	9.25
651.456	9.21
651.868	9.17
652.28	9.14
652.693	9.11
653.105	9.07
653.517	9.02
653.929	8.98
654.341	8.94
654.753	8.89
655.165	8.83
655.577	8.77
655.989	8.71
656.401	8.65
656.813	8.59
657.224	8.51
657.636	8.43
658.047	8.37
658.459	8.29
658.87	8.22
659.282	8.14
659.693	8.07
660.104	8
660.515	7.93
660.926	7.86
661.338	7.79
661.749	7.73
662.159	7.67
662.57	7.61
662.981	7.56
663.392	7.5
663.803	7.45
664.213	7.41
664.624	7.35
665.035	7.31
665.445	7.27
665.855	7.23
666.266	7.21
666.676	7.19
667.086	7.15
667.497	7.14
667.907	7.12
668.317	7.1
668.727	7.09
669.137	7.08
669.547	7.09
669.956	7.08
670.366	7.09
670.776	7.08
671.186	7.09
671.595	7.1
672.005	7.1
672.414	7.12
672.824	7.13
673.233	7.15
673.642	7.17
674.052	7.19
674.461	7.22
674.87	7.24
675.279	7.28
675.688	7.31
676.097	7.35
676.506	7.39
676.915	7.42
677.323	7.46
677.732	7.51
678.141	7.56
678.549	7.6
678.958	7.65
679.366	7.71
679.775	7.76
680.183	7.82
680.592	7.9
681	8
681.408	8.1
681.816	8.2
682.224	8.3
682.632	8.43
683.04	8.57
683.448	8.72
683.856	8.87
684.264	9.06
684.671	9.27
685.079	9.48
685.487	9.73
685.894	9.99
686.302	10.28
686.709	10.59
687.116	10.92
687.524	11.28
687.931	11.69
688.338	12.12
688.745	12.57
689.152	13.05
689.559	13.56
689.966	14.08
690.373	14.63
690.78	15.21
691.187	15.8
691.593	16.42
692	17.06
692.407	17.67
692.813	18.33
693.22	18.99
693.626	19.65
694.032	20.32
694.439	21
694.845	21.69
695.251	22.39
695.657	23.09
696.063	23.78
696.469	24.47
696.875	25.2
697.281	25.9
697.687	26.6
698.093	27.3
698.498	27.97
698.904	28.67
699.31	29.34
699.715	30.01
700.12	30.66
700.526	31.31
700.931	31.95
701.337	32.56
701.742	33.15
702.147	33.74
702.552	34.33
702.957	34.89
703.362	35.43
703.767	35.98
704.172	36.53
704.577	37.06
704.981	37.6
705.386	38.11
705.791	38.63
706.195	39.14
706.6	39.65
707.004	40.13
707.408	40.66
707.813	41.16
708.217	41.61
708.621	42.08
709.025	42.52
709.43	42.92
709.834	43.38
710.237	43.79
710.641	44.2
711.045	44.63
711.449	45.06
711.853	45.46
712.256	45.85
712.66	46.25
713.064	46.63
713.467	47.01
713.87	47.41
714.274	47.75
714.677	48.16
715.08	48.5
715.484	48.87
715.887	49.21
716.29	49.54
716.693	49.86
717.096	50.2
717.499	50.54
717.901	50.87
718.304	51.18
718.707	51.49
719.109	51.78
719.512	52.11
719.915	52.38
720.317	52.64
720.719	52.89
721.122	53.18
721.524	53.44
721.926	53.69
722.328	53.95
722.731	54.18
723.133	54.44
723.535	54.64
723.937	54.86
724.338	55.06
724.74	55.27
725.142	55.51
725.544	55.68
725.945	55.88
726.347	56.02
726.748	56.17
727.15	56.32
727.551	56.46
727.952	56.62
728.354	56.76
728.755	56.9
729.156	57.05
729.557	57.14
729.958	57.25
730.359	57.38
730.76	57.52
731.161	57.64
731.562	57.78
731.962	57.88
732.363	58
732.763	58.1
733.164	58.2
733.564	58.28
733.965	58.38
734.365	58.49
734.766	58.57
735.166	58.65
735.566	58.72
735.966	58.8
736.366	58.88
736.766	58.95
737.166	59.04
737.566	59.1
737.966	59.16
738.365	59.22
738.765	59.25
739.165	59.3
739.564	59.37
739.964	59.43
740.363	59.46
740.763	59.51
741.162	59.55
741.561	59.57
741.96	59.6
742.36	59.65
742.759	59.68
743.158	59.71
743.557	59.72
743.955	59.76
744.354	59.8
744.753	59.87
745.152	59.93
745.55	59.97
745.949	60.01
746.348	60.06
746.746	60.1
747.144	60.16
747.543	60.2
747.941	60.28
748.339	60.28
748.737	60.31
749.136	60.31
749.534	60.3
749.932	60.33
750.33	60.33
750.727	60.36
751.125	60.36
751.523	60.38
751.921	60.4
752.318	60.37
752.716	60.36
753.113	60.34
753.511	60.32
753.908	60.34
754.305	60.32
754.703	60.32
755.1	60.28
755.497	60.27
755.894	60.25
756.291	60.22
756.688	60.2
757.085	60.2
757.482	60.19
757.878	60.17
758.275	60.15
758.672	60.15
759.068	60.16
759.465	60.17
759.861	60.19
760.258	60.2
760.654	60.19
761.05	60.22
761.447	60.25
761.843	60.25
762.239	60.27
762.635	60.25
763.031	60.23
763.427	60.21
763.822	60.21
764.218	60.22
764.614	60.23
765.01	60.25
765.405	60.26
765.801	60.22
766.196	60.24
766.592	60.22
766.987	60.24
767.382	60.25
767.778	60.26
768.173	60.26
768.568	60.22
768.963	60.22
769.358	60.23
769.753	60.2
770.148	60.2
770.542	60.2
770.937	60.22
771.332	60.2
771.726	60.19
772.121	60.17
772.515	60.17
772.91	60.16
773.304	60.17
773.699	60.19
774.093	60.19
774.487	60.19
774.881	60.2
775.275	60.19
775.669	60.23
776.063	60.25
776.457	60.26
776.851	60.24
777.245	60.24
777.638	60.23
778.032	60.2
778.425	60.24
778.819	60.21
779.212	60.2
779.606	60.22
779.999	60.22
780.392	60.23
780.786	60.24
781.179	60.29
781.572	60.33
781.965	60.35
782.358	60.37
782.751	60.36
783.143	60.41
783.536	60.41
783.929	60.39
784.322	60.4
784.714	60.44
785.107	60.45
785.499	60.42
785.891	60.42
786.284	60.43
786.676	60.45
787.068	60.45
787.46	60.46
787.852	60.47
788.245	60.5
788.636	60.49
789.028	60.47
789.42	60.45
789.812	60.48
790.204	60.48
790.595	60.47
790.987	60.45
791.378	60.44
791.77	60.46
792.161	60.47
792.553	60.5
792.944	60.51
793.335	60.52
793.726	60.56
794.117	60.5
794.508	60.5
794.899	60.52
795.29	60.56
795.681	60.54
796.072	60.56
796.463	60.57
796.853	60.55
797.244	60.55
797.634	60.56
798.025	60.57
798.415	60.61
798.806	60.62
799.196	60.62
799.586	60.61
799.976	60.66
800.366	60.66
800.756	60.71
801.146	60.73
801.536	60.76
801.926	60.75
802.316	60.75
802.706	60.77
803.095	60.81
803.485	60.83
803.874	60.85
804.264	60.87
804.653	60.87
805.043	60.85
805.432	60.87
805.821	60.88
806.21	60.92
806.599	60.94
806.988	60.96
807.377	60.98
807.766	60.97
808.155	60.94
808.544	60.95
808.933	60.96
809.321	60.99
809.71	61.01
810.098	61.02
810.487	61.02
810.875	61.02
811.264	61.01
811.652	61.03
812.04	61.05
812.428	61.12
812.816	61.11
813.204	61.14
813.592	61.14
813.98	61.14
814.368	61.14
814.756	61.16
815.144	61.15
815.531	61.18
815.919	61.17
816.306	61.18
816.694	61.16
817.081	61.2
817.469	61.19
817.856	61.21
818.243	61.21
818.63	61.19
819.017	61.17
819.404	61.17
819.791	61.14
820.178	61.15
820.565	61.12
820.952	61.13
821.339	61.08
821.725	61.08
822.112	61.07
822.498	61.08
822.885	61.11
823.271	61.11
823.657	61.08
824.044	61.1
824.43	61.1
824.816	61.12
825.202	61.09
825.588	61.08
825.974	61.05
826.36	61.01
826.746	61
827.132	60.97
827.517	60.97
827.903	60.99
828.289	60.96
828.674	60.94
829.06	60.92
829.445	60.91
829.83	60.9
830.216	60.87
830.601	60.86
830.986	60.84
831.371	60.8
831.756	60.78
832.141	60.75
832.526	60.73
832.911	60.7
833.295	60.67
833.68	60.65
834.065	60.61
834.449	60.59
834.834	60.56
835.218	60.53
835.603	60.53
835.987	60.49
836.371	60.46
836.755	60.41
837.139	60.37
837.524	60.39
837.908	60.4
838.291	60.41
838.675	60.42
839.059	60.41
839.443	60.4
839.827	60.37
840.21	60.38
840.594	60.37
840.977	60.39
841.361	60.38
841.744	60.34
842.127	60.31
842.511	60.27
842.894	60.26
843.277	60.27
843.66	60.23
844.043	60.26
844.426	60.23
844.809	60.24
845.191	60.24
845.574	60.24
845.957	60.23
846.339	60.21
846.722	60.22
847.104	60.25
847.487	60.22
847.869	60.23
848.252	60.21
848.634	60.24
849.016	60.24
849.398	60.25
849.78	60.26
850.162	60.26
850.544	60.26
850.926	60.27
851.307	60.26
851.689	60.27
852.071	60.29
852.452	60.27
852.834	60.27
853.215	60.26
853.597	60.27
853.978	60.26
854.359	60.26
854.741	60.27
855.122	60.26
855.503	60.25
855.884	60.24
856.265	60.24
856.646	60.26
857.026	60.28
857.407	60.28
857.788	60.26
858.169	60.25
858.549	60.26
858.93	60.25
859.31	60.26
859.69	60.28
860.071	60.31
860.451	60.3
860.831	60.28
861.211	60.23
861.591	60.21
861.971	60.19
862.351	60.24
862.731	60.24
863.111	60.23
863.491	60.23
863.87	60.22
864.25	60.2
864.629	60.2
865.009	60.22
865.388	60.25
865.768	60.28
866.147	60.29
866.526	60.27
866.905	60.28
867.284	60.3
867.663	60.3
868.042	60.31
868.421	60.32
868.8	60.32
869.179	60.33
869.558	60.32
869.936	60.31
870.315	60.3
870.693	60.31
871.072	60.32
871.45	60.31
871.828	60.33
872.207	60.33
872.585	60.29
872.963	60.32
873.341	60.3
873.719	60.31
874.097	60.3
874.475	60.33
874.853	60.3
875.23	60.29
875.608	60.3
875.986	60.29
876.363	60.3
876.741	60.34
877.118	60.33
877.495	60.35
877.873	60.37
878.25	60.4
878.627	60.43
879.004	60.44
879.381	60.47
879.758	60.43
880.135	60.41
880.512	60.4
880.889	60.38
881.265	60.36
881.642	60.35
882.019	60.34
882.395	60.31
882.772	60.28
883.148	60.26
883.524	60.23
883.901	60.23
884.277	60.24
884.653	60.19
885.029	60.14
885.405	60.12
885.781	60.11
886.157	60.1
886.532	60.1
886.908	60.06
887.284	60.05
887.659	60.01
888.035	60
888.411	59.95
888.786	59.97
889.161	59.99
889.537	60
889.912	60
890.287	59.98
890.662	59.94
891.037	59.96
891.412	59.94
891.787	59.92
892.162	59.93
892.536	59.91
892.911	59.89
893.286	59.86
893.66	59.83
894.035	59.81
894.409	59.79
894.784	59.77
895.158	59.74
895.532	59.74
895.906	59.73
896.281	59.71
896.655	59.7
897.029	59.69
897.402	59.68
897.776	59.68
898.15	59.69
898.524	59.71
898.898	59.73
899.271	59.75
899.645	59.76
900.018	59.78
900.392	59.77
900.765	59.81
901.138	59.8
901.511	59.82
901.884	59.83
902.258	59.83
902.631	59.84
903.003	59.84
903.376	59.85
903.749	59.87
904.122	59.89
904.495	59.94
904.867	59.97
905.24	60.06
905.612	60.13
905.985	60.14
906.357	60.16
906.729	60.17
907.102	60.19
907.474	60.21
907.846	60.2
908.218	60.18
908.59	60.19
908.962	60.19
909.334	60.17
909.705	60.13
910.077	60.14
910.449	60.13
910.82	60.12
911.192	60.12
911.563	60.1
911.935	60.11
912.306	60.14
912.677	60.16
913.048	60.16
913.419	60.11
913.79	60.13
914.161	60.14
914.532	60.16
914.903	60.19
915.274	60.21
915.645	60.25
916.015	60.27
916.386	60.26
916.756	60.22
917.127	60.24
917.497	60.28
917.868	60.3
918.238	60.29
918.608	60.32
918.978	60.33
919.348	60.34
919.718	60.3
920.088	60.28
920.458	60.29
920.828	60.31
921.198	60.27
921.567	60.24
921.937	60.25
922.306	60.24
922.676	60.24
923.045	60.21
923.415	60.2
923.784	60.21
924.153	60.24
924.522	60.26
924.891	60.26
925.26	60.3
925.629	60.35
925.998	60.31
926.367	60.33
926.736	60.31
927.104	60.3
927.473	60.27
927.842	60.25
928.21	60.24
928.578	60.19
928.947	60.22
929.315	60.15
929.683	60.08
930.051	60.06
930.42	60.02
930.788	59.97
931.156	59.94
931.523	59.92
931.891	59.93
932.259	59.88
932.627	59.89
932.994	59.82
933.362	59.82
933.729	59.82
934.097	59.8
934.464	59.78
934.831	59.77
935.199	59.78
935.566	59.77
935.933	59.73
936.3	59.7
936.667	59.68
937.034	59.65
937.401	59.7
937.767	59.72
938.134	59.74
938.501	59.77
938.867	59.8
939.234	59.84
939.6	59.9
939.967	59.95
940.333	60.04
940.699	60.11
941.065	60.11
941.431	60.15
941.798	60.19
942.163	60.21
942.529	60.32
942.895	60.39
943.261	60.38
943.627	60.42
943.992	60.43
944.358	60.48
944.723	60.46
945.089	60.5
945.454	60.57
945.82	60.55
946.185	60.57
946.55	60.5
946.915	60.45
947.28	60.46
947.645	60.46
948.01	60.44
948.375	60.41
948.74	60.44
949.104	60.48
949.469	60.39
949.834	60.41
950.198	60.43
950.562	60.45
950.927	60.43
951.291	60.32
951.655	60.25
952.02	60.24
952.384	60.18
952.748	60.13
953.112	60.07
953.476	59.99
953.839	59.93
954.203	59.84
954.567	59.72
954.931	59.7
955.294	59.64
955.658	59.67
956.021	59.63
956.385	59.51
956.748	59.44
957.111	59.38
957.474	59.42
957.837	59.37
958.2	59.34
958.563	59.36
958.926	59.34
959.289	59.45
959.652	59.34
960.015	59.3
960.377	59.32
960.74	59.37
961.102	59.35
961.465	59.35
961.827	59.36
962.189	59.4
962.552	59.37
962.914	59.35
963.276	59.26
963.638	59.31
964	59.27
964.362	59.34
964.724	59.28
965.085	59.27
965.447	59.25
965.809	59.32
966.17	59.3
966.532	59.33
966.893	59.34
967.255	59.36
967.616	59.35
967.977	59.43
968.338	59.37
968.699	59.44
969.061	59.49
969.421	59.54
969.782	59.55
970.143	59.57
970.504	59.58
970.865	59.64
971.225	59.6
971.586	59.66
971.946	59.64
972.307	59.65
972.667	59.65
973.027	59.64
973.388	59.61
973.748	59.62
974.108	59.67
974.468	59.69
974.828	59.69
975.188	59.73
975.548	59.65
975.907	59.69
976.267	59.77
976.627	59.75
976.986	59.75
977.346	59.73
977.705	59.67
978.064	59.59
978.424	59.59
978.783	59.54
979.142	59.55
979.501	59.56
979.86	59.59
980.219	59.55
980.578	59.62
980.937	59.68
981.296	59.63
981.654	59.71
982.013	59.77
982.371	59.8
982.73	59.82
983.088	59.83
983.447	59.88
983.805	59.89
984.163	59.89
984.521	59.83
984.879	59.82
985.237	59.86
985.595	59.87
985.953	59.8
986.311	59.72
986.669	59.74
987.026	59.76
987.384	59.8
987.741	59.77
988.099	59.83
988.456	59.87
988.814	59.91
989.171	59.94
989.528	59.96
989.885	60.04
990.242	60.11
990.599	60.19
990.956	60.25
991.313	60.32
991.67	60.44
992.027	60.55
992.383	60.66
992.74	60.66
993.096	60.68
993.453	60.72
993.809	60.73
994.165	60.78
994.522	60.8
994.878	60.8
995.234	60.75
995.59	60.61
995.946	60.57
996.302	60.57
996.658	60.71
997.013	60.75
997.369	60.75
997.725	60.86
998.08	60.9
998.436	60.94
998.791	61.03
999.147	61.03
999.502	61.13
999.857	61.19
1000.212	61.14
1000.567	61.14
1000.922	61.16
1001.277	61.17
1001.632	61.09
1001.987	61.06
1002.342	61.01
1002.696	61
1003.051	61.26
1003.406	61.47
1003.76	61.43
1004.114	61.41
1004.469	61.53
1004.823	61.92
1005.177	62.1
1005.531	62.24
1005.885	62.46
1006.239	62.58
1006.593	62.64
1006.947	62.54
1007.301	62.5
1007.655	62.49
1008.008	62.65
1008.362	62.56
1008.715	62.45
1009.069	62.44
1009.422	62.53
1009.776	62.56
1010.129	62.64
1010.482	62.83
1010.835	62.95
1011.188	63.01
1011.541	63.31
1011.894	63.41
1012.247	63.53
1012.6	63.44
1012.952	63.5
1013.305	63.6
1013.657	63.56
1014.01	63.66
1014.362	63.61
1014.715	63.71
1015.067	63.97
1015.419	63.98
1015.771	64.04
1016.123	64.16
1016.475	64.35
1016.827	64.39
1017.179	64.52
1017.531	64.68
1017.883	64.82
1018.234	65.07
1018.586	65.16
1018.938	65.21
1019.289	65.27
1019.64	65.39
1019.992	65.27
1020.343	65.49
1020.694	65.54
1021.045	65.4
1021.396	65.56
1021.747	65.51
1022.098	65.46
1022.449	65.58
1022.8	65.8
1023.151	65.92
1023.501	66.12
1023.852	66.49
1024.202	66.48
1024.553	66.54
1024.903	66.88
1025.253	67.2
1025.604	67.36
1025.954	67.24
1026.304	67.44
1026.654	67.35
1027.004	67.48
1027.354	67.37
1027.703	67.46
1028.053	67.44
1028.403	67.87
1028.753	67.59
1029.102	67.52
1029.452	67.63
1029.801	68.05
1030.15	67.9
1030.499	67.86
897.758	959.48
901.051	958.3
904.343	964.65
907.636	980.93
910.928	956.98
914.22	953.45
917.511	942.3
920.803	903.34
924.094	898.38
927.384	878.31
930.675	845.32
933.965	841.82
937.255	794.29
940.544	759.44
943.834	727.26
947.123	719.7
950.411	680.41
953.7	665.99
956.988	631.66
960.276	608.46
963.563	598.4
966.851	574.61
970.138	570
973.424	556.08
976.711	555.77
979.997	528.84
983.283	526.19
986.568	516.25
989.853	500.61
993.138	490.77
996.423	474.03
999.708	461.4
1002.992	456.62
1006.275	436.88
1009.559	433.77
1012.842	419.93
1016.125	408.66
1019.408	400.66
1022.69	396.78
1025.972	389.08
1029.254	380.74
1032.536	373.29
1035.817	367.18
1039.098	363.66
1042.379	357.43
1045.659	352.42
1048.939	344.84
1052.219	337.45
1055.498	335.27
1058.778	326.5
1062.057	320.63
1065.335	317.63
1068.614	314.91
1071.892	311
1075.17	301.92
1078.447	297.01
1081.724	294.91
1085.001	293.01
1088.278	287.7
1091.554	281.72
1094.83	283.23
1098.106	280.77
1101.382	278.19
1104.657	275.24
1107.932	271.61
1111.206	272.99
1114.481	266.7
1117.755	264.71
1121.029	262.42
1124.302	261.74
1127.575	257.71
1130.848	253.89
1134.121	252.09
1137.393	250.64
1140.665	246.01
1143.937	244.07
1147.208	242.51
1150.48	241.88
1153.75	238.31
1157.021	236.04
1160.291	236.92
1163.561	233.62
1166.831	233.68
1170.101	231.83
1173.37	231.75
1176.639	232.37
1179.907	231.13
1183.176	228.44
1186.444	228.03
1189.711	228.27
1192.979	227.73
1196.246	226.04
1199.513	227.04
1202.78	225.26
1206.046	225.33
1209.312	222.63
1212.578	223.12
1215.843	223.77
1219.108	223.96
1222.373	227.51
1225.638	228.93
1228.902	231.4
1232.166	230.58
1235.43	231.84
1238.693	234.67
1241.956	236.34
1245.219	240.39
1248.482	239.94
1251.744	240.35
1255.006	240.16
1258.268	235.59
1261.529	233.81
1264.79	232.93
1268.051	232.46
1271.312	229.31
1274.572	227.29
1277.832	224.58
1281.092	221.05
1284.351	220.05
1287.61	220
1290.869	216.4
1294.128	215.22
1297.386	214.21
1300.644	211.89
1303.902	213.07
1307.159	213.45
1310.416	213.19
1313.673	212.47
1316.93	214.68
1320.186	214.2
1323.442	214.61
1326.697	217.42
1329.953	218.53
1333.208	219.36
1336.463	222.22
1339.717	222.24
1342.972	223.93
1346.226	225.45
1349.479	226.58
1352.733	227.03
1355.986	229.07
1359.238	228.66
1362.491	229.87
1365.743	231.89
1368.995	232.69
1372.247	230.65
1375.498	230.85
1378.749	231.38
1382	229.61
1385.251	229.99
1388.501	228.48
1391.751	227.59
1395	226.66
1398.25	224.78
1401.499	222.01
1404.748	220.98
1407.996	219.48
1411.244	217.89
1414.492	216.78
1417.74	213.59
1420.987	210.45
1424.234	209.91
1427.481	207.71
1430.728	207.69
1433.974	205
1437.22	203.51
1440.465	202.86
1443.711	200.72
1446.956	199.82
1450.201	196.74
1453.445	195.85
1456.689	194.95
1459.933	191.75
1463.177	190.31
1466.42	187.65
1469.663	186.38
1472.906	185.2
1476.148	180.84
1479.391	179
1482.633	177.58
1485.874	176.58
1489.115	175.11
1492.356	173.2
1495.597	173.3
1498.838	171.44
1502.078	170.31
1505.318	169.94
1508.557	170.05
1511.797	170.39
1515.036	169.16
1518.274	168.76
1521.513	167.45
1524.751	167.52
1527.989	167.7
1531.227	166.92
1534.464	167.23
1537.701	167.12
1540.938	166.56
1544.174	163.95
1547.41	164.67
1550.646	164.52
1553.882	164.22
1557.117	162.53
1560.352	161.82
1563.587	161.41
1566.821	160.17
1570.055	159.82
1573.289	157.54
1576.523	157.8
1579.756	157.72
1582.989	156.28
1586.222	156.13
1589.454	155.92
1592.686	156.78
1595.918	156.28
1599.15	155.58
1602.381	156.32
1605.612	155.22
1608.843	156.42
1612.073	156.12
1615.303	156.75
1618.533	157
1621.762	156.93
1624.992	157.08
1628.221	157.02
1631.449	156.45
1634.678	156.93
1637.906	157.29
1641.134	157.18
1644.361	156.86
1647.588	157.37
1650.815	156.93
1654.042	156.28
1657.269	156.96
1660.495	156.61
1663.72	156.33
1666.946	156.9
1670.171	157.15
1673.396	157.19
1676.621	156.94
1679.845	157.78
1683.069	157.66
1686.293	158.39
1689.517	159.06
1692.74	158.78
1695.963	159.47
1699.185	160.86
1702.408	160.9
1705.63	160.97
1708.852	161.08
1712.073	161.6
1715.294	161.33
1718.515	162.57
1721.736	162.4
1724.956	162.77
1728.176	163.04
1731.396	163.47
1734.616	162.79
1737.835	163.7
1741.054	162.69
1744.272	163.29
1747.491	164.6
1750.709	164.82
1753.927	164.38
1757.144	164.08
1760.361	164.23
1763.578	164.86
1766.795	164.75
1770.011	166.07
1773.227	165.77
1776.443	167.46
1779.658	167.84
1782.874	167.61
1786.089	167.62
1789.303	168
1792.518	169.73
1795.732	169.6
1798.945	170.51
1802.159	171.01
1805.372	170.81
1808.585	173.23
1811.797	173.92
1815.01	174.18
1818.222	175.43
1821.434	178.13
1824.645	178.12
1827.856	180.81
1831.067	182.5
1834.278	181.67
1837.488	182.73
1840.698	183.99
1843.908	182.55
1847.117	183.02
1850.326	184.1
1853.535	182.75
1856.744	184.16
1859.952	183.91
1863.16	182.12
1866.368	180.84
1869.575	181.85
1872.782	178.2
1875.989	177.33
1879.196	176.3
1882.402	174.97
1885.608	173.98
1888.814	173.56
1892.019	172.14
1895.224	171.31
1898.429	169.46
1901.634	169.38
1904.838	169.24
1908.042	170.95
1911.246	170.67
1914.449	170.9
1917.652	170.64
1920.855	170.55
1924.058	170.73
1927.26	169.02
1930.462	169.51
1933.664	171.8
1936.865	170.56
1940.066	169.96
1943.267	168.67
1946.467	169.38
1949.668	169.62
1952.868	171.6
1956.067	172.54
1959.267	172.01
1962.466	172.71
1965.665	172.2
1968.863	173.01
1972.061	176.12
1975.259	177.96
1978.457	179.1
1981.654	180.46
1984.852	181.57
1988.048	180.96
1991.245	182.88
1994.441	185.24
1997.637	187.12
2000.833	191.23
2004.028	193.53
2007.223	193.9
2010.418	195.43
2013.613	199.79
2016.807	201.19
2020.001	203.16
2023.194	206.82
2026.388	211.78
2029.581	217
2032.774	218.17
2035.966	221.81
2039.158	222.5
2042.35	226.46
2045.542	229.09
2048.733	231.67
2051.924	235.25
2055.115	239.25
2058.306	239.44
2061.496	239.87
2064.686	241.35
2067.875	246.29
2071.065	247.21
2074.254	245.07
2077.442	249.54
2080.631	249.54
2083.819	252.53
2087.007	252.39
2090.195	256.68
2093.382	258.59
2096.569	257.83
2099.756	260.95
2102.942	261.29
2106.128	263.2
2109.314	270.73
2112.5	269.08
2115.685	275.19
2118.87	275.53
2122.055	280.94
2125.239	280.59
2128.424	284.24
2131.608	285.91
2134.791	289.6
2137.974	290.69
2141.157	292.44
2144.34	291.83
2147.523	297.55
2150.705	295.88
2153.887	298.95
2157.068	299.9
2160.25	297.87
2163.431	300.86
2166.611	304.48
2169.792	309.5
2172.972	313.36
2176.152	315.93
2179.331	319.93
2182.511	323.27
2185.69	326.08
2188.868	333.31
2192.047	333.79
2195.225	344.15
2198.403	351.35
2201.58	356.92
2204.758	363.99
2207.935	370.45
2211.111	376.64
2214.288	380.67
2217.464	381.67
2220.64	387.55
2223.815	390.81
2226.991	406.83
2230.166	406.73
2233.34	411.12
2236.515	420.07
2239.689	421.28
2242.863	423.78
2246.036	433.79
2249.209	430.47
2252.382	438.73
2255.555	450.96
2258.727	454.32
2261.9	456.66
2265.071	460.69
2268.243	469.3
2271.414	473.75
2274.585	481.54
2277.756	486.47
2280.926	491.69
2284.096	503.04
2287.266	513.21
2290.436	518.92
2293.605	528.9
2296.774	544.54
2299.942	559.81
2303.111	562.9
2306.279	575.16
2309.447	582.55
2312.614	599.21
2315.781	612.62
2318.948	643.58
2322.115	633.5
2325.281	666.88
2328.447	652.74
2331.613	677.2
2334.779	672.83
2337.944	698.5
2341.109	705.71
2344.274	727.44
2347.438	748.38
2350.602	754.16
2353.766	770.61
2356.929	785.19
2360.092	779.17
2363.255	835.25
2366.418	834.39
2369.58	849.3
2372.742	907.39
2375.904	928.32
2379.066	921.18
2382.227	905.74
2385.388	972.58
2388.548	979.23
2391.709	986.95
2394.869	1096.09
2398.029	1052.37
2401.188	1080.94
2404.347	1076.55
2407.506	1052.55
2410.665	1083.75
2413.823	1148.54
2416.981	1213.41
2420.139	1180.73
2423.296	1164.1
2426.453	1221.83
2429.61	1177.55
2432.767	1229.56
2435.923	1217.9
2439.079	1328.21
2442.235	1352.28
2445.391	1339.74
2448.546	1326.63
2451.701	1293.74
2454.855	1286.38
2458.009	1372.7
2461.163	1419.62
2464.317	1465.26
2467.471	1500.86
2470.624	1501.31
2473.777	1464.06
2476.929	1417.64
2480.082	1375.58
2483.234	1367.27
2486.385	1432.03
2489.537	1441.88
2492.688	1487.55
2495.839	1453.47
2498.989	1422.81
2502.14	1428.1
2505.29	1444.6
2508.439	1460.55
2511.589	1461.85
2514.738	1599.48
2517.887	1559.03
2521.035	1644.67
2524.183	1670.08
2527.331	1680.08
2530.479	1665.9
2533.627	1683.31
