Data from N_3_DEC_NC_4N_Splice17_14-00-31-686.txt Node
Date: Sat Mar 07 14:00:31 EST 2020
User: sa697716
Spectrometer: NQ5500242
Trigger mode: 0
Integration Time (sec): 1.450000E-1
Scans to average: 20
Nonlinearity correction enabled: false
Boxcar width: 5
Storing dark spectrum: false
XAxis mode: Wavelengths
Number of Pixels in Spectrum: 512
>>>>>Begin Spectral Data<<<<<
187.83	212.47
188.298	221.38
188.766	206.05
189.233	168.6
189.701	171.89
190.169	199.4
190.636	177.36
191.104	99.85
191.571	-214.41
192.039	-116.59
192.506	-190.32
192.974	84.42
193.441	72.22
193.908	70.6
194.375	55.43
194.842	-0.14
195.31	27.08
195.777	-96.46
196.244	13.32
196.711	36.95
197.177	42.91
197.644	42.81
198.111	42.04
198.578	42.41
199.045	42.58
199.511	42.76
199.978	43.05
200.445	43.06
200.911	42.87
201.378	42.88
201.844	42.58
202.31	42.18
202.777	42.4
203.243	42.64
203.709	42.43
204.176	41.95
204.642	41.56
205.108	41.54
205.574	41.45
206.04	41.01
206.506	40.98
206.972	40.92
207.438	40.84
207.903	40.06
208.369	39.17
208.835	38.53
209.301	37.86
209.766	36.94
210.232	35.71
210.697	34.57
211.163	33.85
211.628	32.93
212.094	32.2
212.559	31.33
213.024	30.69
213.49	30.24
213.955	29.58
214.42	28.99
214.885	28.13
215.35	27.29
215.815	26.09
216.28	24.58
216.745	22.87
217.21	21.17
217.675	19.53
218.14	18.15
218.604	16.83
219.069	15.77
219.534	14.85
219.998	14.15
220.463	13.54
220.927	12.98
221.392	12.5
221.856	12.14
222.32	11.79
222.785	11.53
223.249	11.27
223.713	11.07
224.177	10.87
224.642	10.7
225.106	10.52
225.57	10.3
226.034	10.16
226.497	10.03
226.961	9.9
227.425	9.79
227.889	9.66
228.353	9.55
228.816	9.42
229.28	9.3
229.744	9.18
230.207	9.07
230.671	8.99
231.134	8.88
231.597	8.81
232.061	8.71
232.524	8.63
232.987	8.53
233.45	8.47
233.914	8.39
234.377	8.31
234.84	8.25
235.303	8.19
235.766	8.13
236.229	8.07
236.691	8
237.154	7.94
237.617	7.87
238.08	7.82
238.542	7.75
239.005	7.7
239.468	7.65
239.93	7.59
240.393	7.54
240.855	7.49
241.317	7.43
241.78	7.37
242.242	7.31
242.704	7.26
243.166	7.22
243.629	7.17
244.091	7.11
244.553	7.06
245.015	7.01
245.477	6.97
245.939	6.92
246.4	6.88
246.862	6.83
247.324	6.8
247.786	6.76
248.247	6.71
248.709	6.65
249.17	6.61
249.632	6.58
250.093	6.55
250.555	6.51
251.016	6.48
251.477	6.43
251.939	6.41
252.4	6.37
252.861	6.34
253.322	6.3
253.783	6.28
254.244	6.26
254.705	6.22
255.166	6.18
255.627	6.15
256.088	6.13
256.549	6.1
257.009	6.07
257.47	6.04
257.931	6.01
258.391	5.99
258.852	5.95
259.312	5.92
259.773	5.89
260.233	5.88
260.694	5.86
261.154	5.82
261.614	5.8
262.074	5.78
262.534	5.77
262.994	5.75
263.455	5.74
263.915	5.73
264.374	5.71
264.834	5.7
265.294	5.68
265.754	5.68
266.214	5.68
266.673	5.67
267.133	5.66
267.593	5.65
268.052	5.65
268.512	5.64
268.971	5.64
269.431	5.63
269.89	5.62
270.349	5.62
270.809	5.61
271.268	5.6
271.727	5.59
272.186	5.58
272.645	5.57
273.104	5.56
273.563	5.55
274.022	5.54
274.481	5.54
274.94	5.53
275.399	5.52
275.857	5.51
276.316	5.51
276.775	5.5
277.233	5.49
277.692	5.49
278.15	5.47
278.609	5.46
279.067	5.45
279.525	5.44
279.984	5.43
280.442	5.42
280.9	5.41
281.358	5.4
281.816	5.4
282.274	5.39
282.732	5.38
283.19	5.36
283.648	5.35
284.106	5.34
284.564	5.34
285.021	5.34
285.479	5.32
285.937	5.31
286.394	5.31
286.852	5.3
287.309	5.3
287.767	5.29
288.224	5.29
288.682	5.28
289.139	5.28
289.596	5.26
290.053	5.24
290.511	5.23
290.968	5.22
291.425	5.2
291.882	5.17
292.339	5.16
292.796	5.15
293.252	5.14
293.709	5.14
294.166	5.13
294.623	5.11
295.079	5.1
295.536	5.1
295.992	5.09
296.449	5.08
296.905	5.08
297.362	5.07
297.818	5.07
298.274	5.07
298.731	5.05
299.187	5.04
299.643	5.03
300.099	5.03
300.555	5.02
301.011	5.01
301.467	5.01
301.923	5
302.379	4.99
302.835	4.99
303.291	4.98
303.746	4.98
304.202	4.98
304.658	4.98
305.113	4.97
305.569	4.96
306.024	4.96
306.479	4.94
306.935	4.93
307.39	4.93
307.845	4.92
308.301	4.91
308.756	4.9
309.211	4.9
309.666	4.9
310.121	4.9
310.576	4.9
311.031	4.9
311.486	4.9
311.94	4.91
312.395	4.91
312.85	4.91
313.305	4.91
313.759	4.91
314.214	4.91
314.668	4.9
315.123	4.91
315.577	4.91
316.032	4.91
316.486	4.91
316.94	4.91
317.394	4.9
317.849	4.9
318.303	4.89
318.757	4.87
319.211	4.87
319.665	4.85
320.119	4.83
320.572	4.82
321.026	4.8
321.48	4.79
321.934	4.77
322.387	4.76
322.841	4.75
323.295	4.75
323.748	4.75
324.202	4.75
324.655	4.75
325.108	4.76
325.562	4.76
326.015	4.76
326.468	4.76
326.921	4.76
327.374	4.76
327.827	4.76
328.28	4.75
328.733	4.76
329.186	4.75
329.639	4.75
330.092	4.74
330.545	4.74
330.997	4.73
331.45	4.74
331.903	4.75
332.355	4.76
332.808	4.76
333.26	4.75
333.713	4.75
334.165	4.75
334.617	4.75
335.069	4.75
335.522	4.76
335.974	4.76
336.426	4.76
336.878	4.76
337.33	4.75
337.782	4.76
338.234	4.78
338.686	4.78
339.137	4.77
339.589	4.76
340.041	4.76
340.493	4.74
340.944	4.73
341.396	4.72
341.847	4.7
342.299	4.69
342.75	4.67
343.201	4.66
343.653	4.65
344.104	4.63
344.555	4.62
345.006	4.61
345.457	4.61
345.908	4.62
346.359	4.62
346.81	4.62
347.261	4.62
347.712	4.62
348.163	4.61
348.613	4.61
349.064	4.62
349.515	4.62
349.965	4.62
350.416	4.61
350.866	4.61
351.317	4.61
351.767	4.62
352.217	4.62
352.668	4.61
353.118	4.62
353.568	4.62
354.018	4.62
354.468	4.63
354.918	4.64
355.368	4.64
355.818	4.65
356.268	4.66
356.718	4.66
357.168	4.65
357.617	4.65
358.067	4.65
358.517	4.68
358.966	4.68
359.416	4.68
359.865	4.69
360.315	4.69
360.764	4.69
361.213	4.69
361.663	4.69
362.112	4.71
362.561	4.72
363.01	4.71
363.459	4.7
363.908	4.7
364.357	4.7
364.806	4.7
365.255	4.7
365.703	4.72
366.152	4.73
366.601	4.74
367.05	4.75
367.498	4.75
367.947	4.76
368.395	4.78
368.844	4.79
369.292	4.79
369.74	4.8
370.189	4.8
370.637	4.8
371.085	4.8
371.533	4.8
371.981	4.82
372.429	4.83
372.877	4.84
373.325	4.85
373.773	4.87
374.221	4.88
374.669	4.89
375.116	4.9
375.564	4.91
376.012	4.93
376.459	4.95
376.907	4.97
377.354	4.98
377.801	5.01
378.249	5.03
378.696	5.05
379.143	5.07
379.591	5.09
380.038	5.12
380.485	5.16
380.932	5.18
381.379	5.21
381.826	5.23
382.273	5.26
382.72	5.26
383.166	5.29
383.613	5.31
384.06	5.33
384.506	5.37
384.953	5.4
385.4	5.42
385.846	5.46
386.292	5.48
386.739	5.5
387.185	5.53
387.631	5.58
388.078	5.61
388.524	5.64
388.97	5.67
389.416	5.71
389.862	5.76
390.308	5.8
390.754	5.85
391.2	5.89
391.645	5.94
392.091	5.98
392.537	6.02
392.983	6.06
393.428	6.12
393.874	6.16
394.319	6.21
394.765	6.24
395.21	6.27
395.655	6.31
396.101	6.35
396.546	6.39
396.991	6.43
397.436	6.47
397.881	6.53
398.326	6.56
398.771	6.61
399.216	6.64
399.661	6.68
400.106	6.72
400.551	6.73
400.995	6.75
401.44	6.76
401.885	6.79
402.329	6.81
402.774	6.82
403.218	6.85
403.663	6.88
404.107	6.89
404.551	6.9
404.995	6.91
405.44	6.93
405.884	6.96
406.328	6.98
406.772	6.98
407.216	6.99
407.66	6.99
408.104	6.99
408.547	6.99
408.991	7
409.435	7.01
409.879	7.02
410.322	7.03
410.766	7.05
411.209	7.06
411.653	7.08
412.096	7.08
412.54	7.1
412.983	7.11
413.426	7.17
413.869	7.17
414.312	7.2
414.756	7.22
415.199	7.22
415.642	7.24
416.085	7.26
416.527	7.28
416.97	7.3
417.413	7.3
417.856	7.31
418.298	7.28
418.741	7.29
419.184	7.29
419.626	7.29
420.069	7.31
420.511	7.31
420.953	7.3
421.396	7.3
421.838	7.29
422.28	7.28
422.722	7.3
423.164	7.3
423.606	7.3
424.048	7.31
424.49	7.31
424.932	7.3
425.374	7.27
425.816	7.25
426.258	7.23
426.699	7.21
427.141	7.19
427.582	7.17
428.024	7.16
428.465	7.14
428.907	7.12
429.348	7.09
429.789	7.07
430.231	7.07
430.672	7.07
431.113	7.09
431.554	7.09
431.995	7.1
432.436	7.1
432.877	7.09
433.318	7.11
433.759	7.13
434.2	7.15
434.64	7.15
435.081	7.16
435.522	7.17
435.962	7.17
436.403	7.2
436.843	7.22
437.284	7.23
437.724	7.25
438.164	7.23
438.604	7.24
439.045	7.25
439.485	7.28
439.925	7.28
440.365	7.29
440.805	7.3
441.245	7.31
441.685	7.33
442.125	7.36
442.564	7.38
443.004	7.41
443.444	7.42
443.883	7.45
444.323	7.46
444.762	7.49
445.202	7.51
445.641	7.56
446.081	7.6
446.52	7.62
446.959	7.65
447.398	7.69
447.837	7.74
448.276	7.76
448.716	7.78
449.154	7.82
449.593	7.85
450.032	7.89
450.471	7.89
450.91	7.88
451.349	7.92
451.787	7.91
452.226	7.91
452.664	7.92
453.103	7.92
453.541	7.92
453.98	7.93
454.418	7.92
454.856	7.91
455.295	7.92
455.733	7.91
456.171	7.89
456.609	7.89
457.047	7.87
457.485	7.86
457.923	7.86
458.361	7.86
458.798	7.85
459.236	7.85
459.674	7.83
460.111	7.83
460.549	7.84
460.987	7.84
461.424	7.84
461.862	7.84
462.299	7.85
462.736	7.85
463.173	7.84
463.611	7.83
464.048	7.84
464.485	7.85
464.922	7.85
465.359	7.86
465.796	7.86
466.233	7.86
466.67	7.86
467.106	7.86
467.543	7.85
467.98	7.84
468.416	7.85
468.853	7.85
469.29	7.85
469.726	7.84
470.162	7.84
470.599	7.84
471.035	7.85
471.471	7.85
471.907	7.86
472.344	7.87
472.78	7.89
473.216	7.89
473.652	7.91
474.088	7.91
474.523	7.92
474.959	7.93
475.395	7.93
475.831	7.92
476.266	7.94
476.702	7.94
477.138	7.95
477.573	7.95
478.008	7.96
478.444	7.95
478.879	7.96
479.314	7.96
479.75	7.97
480.185	7.97
480.62	7.97
481.055	7.97
481.49	7.97
481.925	7.99
482.36	7.99
482.795	7.99
483.229	7.99
483.664	8.01
484.099	8.01
484.534	8.02
484.968	8.05
485.403	8.08
485.837	8.1
486.271	8.13
486.706	8.15
487.14	8.18
487.574	8.22
488.009	8.26
488.443	8.3
488.877	8.35
489.311	8.39
489.745	8.44
490.179	8.5
490.613	8.55
491.046	8.61
491.48	8.67
491.914	8.73
492.348	8.8
492.781	8.88
493.215	8.95
493.648	9.03
494.082	9.1
494.515	9.17
494.948	9.26
495.382	9.34
495.815	9.44
496.248	9.52
496.681	9.63
497.114	9.72
497.547	9.82
497.98	9.92
498.413	10.02
498.846	10.14
499.279	10.25
499.711	10.36
500.144	10.49
500.577	10.6
501.009	10.73
501.442	10.85
501.874	10.99
502.306	11.14
502.739	11.3
503.171	11.45
503.603	11.6
504.036	11.77
504.468	11.93
504.9	12.09
505.332	12.26
505.764	12.43
506.196	12.61
506.627	12.79
507.059	12.97
507.491	13.14
507.923	13.34
508.354	13.54
508.786	13.73
509.217	13.95
509.649	14.16
510.08	14.37
510.512	14.59
510.943	14.8
511.374	15.02
511.805	15.24
512.237	15.46
512.668	15.68
513.099	15.89
513.53	16.11
513.961	16.34
514.391	16.56
514.822	16.8
515.253	17.02
515.684	17.23
516.114	17.44
516.545	17.67
516.975	17.89
517.406	18.11
517.836	18.32
518.267	18.54
518.697	18.74
519.127	18.95
519.558	19.15
519.988	19.34
520.418	19.54
520.848	19.74
521.278	19.92
521.708	20.25
522.138	20.42
522.567	20.61
522.997	20.77
523.427	20.94
523.857	21.1
524.286	21.25
524.716	21.42
525.145	21.57
525.575	21.71
526.004	21.85
526.433	21.83
526.863	21.95
527.292	22.06
527.721	22.18
528.15	22.28
528.579	22.38
529.008	22.49
529.437	22.57
529.866	22.65
530.295	22.73
530.724	22.83
531.152	22.91
531.581	22.99
532.01	23.08
532.438	23.15
532.867	23.23
533.295	23.29
533.723	23.34
534.152	23.39
534.58	23.46
535.008	23.49
535.436	23.52
535.865	23.56
536.293	23.59
536.721	23.63
537.149	23.65
537.576	23.67
538.004	23.7
538.432	23.73
538.86	23.75
539.287	23.76
539.715	23.82
540.143	23.83
540.57	23.85
540.998	23.86
541.425	23.87
541.852	23.89
542.28	23.91
542.707	23.93
543.134	23.96
543.561	23.99
543.988	24.02
544.415	24.02
544.842	24.03
545.269	24.06
545.696	24.08
546.123	24.09
546.549	24.1
546.976	24.13
547.403	24.13
547.829	24.13
548.256	24.14
548.682	24.14
549.108	24.16
549.535	24.19
549.961	24.19
550.387	24.2
550.813	24.23
551.24	24.23
551.666	24.22
552.092	24.23
552.518	24.24
552.943	24.23
553.369	24.22
553.795	24.2
554.221	24.18
554.646	24.17
555.072	24.16
555.498	24.12
555.923	24.1
556.349	24.07
556.774	24.04
557.199	24
557.625	23.98
558.05	23.95
558.475	23.92
558.9	23.89
559.325	23.86
559.75	23.8
560.175	23.75
560.6	23.7
561.025	23.66
561.449	23.6
561.874	23.54
562.299	23.48
562.723	23.4
563.148	23.32
563.572	23.23
563.997	23.15
564.421	23.09
564.846	23.02
565.27	22.93
565.694	22.84
566.118	22.75
566.542	22.67
566.966	22.57
567.39	22.48
567.814	22.39
568.238	22.3
568.662	22.2
569.086	22.09
569.509	22
569.933	21.91
570.357	21.81
570.78	21.71
571.204	21.6
571.627	21.51
572.05	21.41
572.474	21.34
572.897	21.24
573.32	21.15
573.743	21.05
574.166	20.97
574.589	20.88
575.012	20.8
575.435	20.72
575.858	20.66
576.281	20.57
576.704	20.49
577.126	20.41
577.549	20.34
577.972	20.29
578.394	20.24
578.817	20.19
579.239	20.14
579.661	20.09
580.084	20.04
580.506	19.98
580.928	19.93
581.35	19.91
581.772	19.85
582.194	19.82
582.616	19.77
583.038	19.7
583.46	19.64
583.882	19.59
584.303	19.54
584.725	19.49
585.147	19.44
585.568	19.41
585.99	19.36
586.411	19.31
586.833	19.25
587.254	19.2
587.675	19.17
588.096	19.12
588.518	19.08
588.939	19.05
589.36	18.99
589.781	18.97
590.202	18.92
590.623	18.88
591.043	18.86
591.464	18.83
591.885	18.79
592.305	18.76
592.726	18.74
593.147	18.71
593.567	18.67
593.987	18.65
594.408	18.61
594.828	18.58
595.248	18.55
595.669	18.53
596.089	18.51
596.509	18.48
596.929	18.46
597.349	18.42
597.769	18.4
598.189	18.36
598.608	18.33
599.028	18.31
599.448	18.27
599.867	18.24
600.287	18.21
600.706	18.17
601.126	18.14
601.545	18.1
601.965	18.07
602.384	18.03
602.803	18.01
603.222	17.99
603.641	17.95
604.061	17.93
604.48	17.9
604.898	17.84
605.317	17.8
605.736	17.76
606.155	17.72
606.574	17.67
606.992	17.62
607.411	17.56
607.829	17.48
608.248	17.41
608.666	17.34
609.085	17.29
609.503	17.25
609.921	17.19
610.339	17.13
610.758	17.1
611.176	17.03
611.594	16.98
612.012	16.93
612.43	16.9
612.847	16.85
613.265	16.79
613.683	16.73
614.101	16.68
614.518	16.62
614.936	16.56
615.353	16.49
615.771	16.44
616.188	16.38
616.606	16.35
617.023	16.3
617.44	16.27
617.857	16.22
618.274	16.17
618.691	16.11
619.108	16.07
619.525	16.04
619.942	16
620.359	15.97
620.776	15.95
621.192	15.91
621.609	15.89
622.026	15.86
622.442	15.84
622.859	15.82
623.275	15.79
623.691	15.77
624.108	15.75
624.524	15.73
624.94	15.73
625.356	15.71
625.772	15.69
626.188	15.66
626.604	15.65
627.02	15.64
627.436	15.63
627.852	15.63
628.268	15.63
628.683	15.62
629.099	15.61
629.514	15.58
629.93	15.58
630.345	15.56
630.761	15.54
631.176	15.52
631.591	15.47
632.007	15.44
632.422	15.4
632.837	15.34
633.252	15.29
633.667	15.23
634.082	15.16
634.497	15.09
634.911	15.01
635.326	14.93
635.741	14.85
636.155	14.77
636.57	14.68
636.984	14.57
637.399	14.47
637.813	14.37
638.228	14.26
638.642	14.14
639.056	14.02
639.47	13.92
639.884	13.8
640.298	13.66
640.712	13.55
641.126	13.43
641.54	13.31
641.954	13.19
642.368	13.06
642.781	12.94
643.195	12.83
643.609	12.72
644.022	12.6
644.436	12.49
644.849	12.39
645.262	12.28
645.676	12.19
646.089	12.1
646.502	12.02
646.915	11.95
647.328	11.87
647.741	11.8
648.154	11.73
648.567	11.67
648.98	11.63
649.393	11.59
649.805	11.55
650.218	11.5
650.631	11.46
651.043	11.41
651.456	11.37
651.868	11.32
652.28	11.28
652.693	11.24
653.105	11.19
653.517	11.13
653.929	11.08
654.341	11.01
654.753	10.95
655.165	10.89
655.577	10.83
655.989	10.76
656.401	10.68
656.813	10.61
657.224	10.51
657.636	10.42
658.047	10.34
658.459	10.24
658.87	10.14
659.282	10.04
659.693	9.93
660.104	9.81
660.515	9.71
660.926	9.6
661.338	9.51
661.749	9.42
662.159	9.32
662.57	9.23
662.981	9.14
663.392	9.06
663.803	8.97
664.213	8.89
664.624	8.82
665.035	8.74
665.445	8.66
665.855	8.59
666.266	8.52
666.676	8.46
667.086	8.39
667.497	8.33
667.907	8.28
668.317	8.24
668.727	8.2
669.137	8.16
669.547	8.13
669.956	8.09
670.366	8.06
670.776	8.04
671.186	8.02
671.595	8
672.005	7.99
672.414	7.98
672.824	7.98
673.233	7.98
673.642	7.98
674.052	7.97
674.461	7.98
674.87	7.99
675.279	8.01
675.688	8.03
676.097	8.05
676.506	8.08
676.915	8.11
677.323	8.15
677.732	8.19
678.141	8.25
678.549	8.3
678.958	8.37
679.366	8.45
679.775	8.53
680.183	8.61
680.592	8.72
681	8.84
681.408	8.97
681.816	9.11
682.224	9.27
682.632	9.45
683.04	9.63
683.448	9.84
683.856	10.07
684.264	10.31
684.671	10.57
685.079	10.85
685.487	11.13
685.894	11.45
686.302	11.78
686.709	12.15
687.116	12.5
687.524	12.9
687.931	13.29
688.338	13.7
688.745	14.12
689.152	14.54
689.559	14.99
689.966	15.44
690.373	15.88
690.78	16.33
691.187	16.77
691.593	17.22
692	17.66
692.407	18.09
692.813	18.53
693.22	18.97
693.626	19.41
694.032	19.83
694.439	20.25
694.845	20.65
695.251	21.08
695.657	21.46
696.063	21.85
696.469	22.23
696.875	22.61
697.281	22.96
697.687	23.33
698.093	23.66
698.498	23.99
698.904	24.31
699.31	24.63
699.715	24.94
700.12	25.25
700.526	25.54
700.931	25.85
701.337	26.13
701.742	26.39
702.147	26.65
702.552	26.91
702.957	27.14
703.362	27.39
703.767	27.61
704.172	27.82
704.577	28.02
704.981	28.22
705.386	28.41
705.791	28.61
706.195	28.82
706.6	29.01
707.004	29.19
707.408	29.4
707.813	29.59
708.217	29.76
708.621	29.94
709.025	30.12
709.43	30.29
709.834	30.45
710.237	30.61
710.641	30.75
711.045	30.87
711.449	31.02
711.853	31.16
712.256	31.28
712.66	31.41
713.064	31.54
713.467	31.67
713.87	31.82
714.274	31.91
714.677	32.03
715.08	32.15
715.484	32.29
715.887	32.39
716.29	32.48
716.693	32.59
717.096	32.71
717.499	32.81
717.901	32.91
718.304	33
718.707	33.11
719.109	33.2
719.512	33.3
719.915	33.41
720.317	33.49
720.719	33.57
721.122	33.65
721.524	33.73
721.926	33.83
722.328	33.89
722.731	33.96
723.133	34.02
723.535	34.08
723.937	34.16
724.338	34.19
724.74	34.27
725.142	34.41
725.544	34.45
725.945	34.51
726.347	34.55
726.748	34.6
727.15	34.62
727.551	34.69
727.952	34.72
728.354	34.77
728.755	34.81
729.156	34.84
729.557	34.82
729.958	34.86
730.359	34.89
730.76	34.94
731.161	34.95
731.562	35.01
731.962	35.01
732.363	35.07
732.763	35.08
733.164	35.08
733.564	35.11
733.965	35.11
734.365	35.15
734.766	35.18
735.166	35.19
735.566	35.23
735.966	35.23
736.366	35.26
736.766	35.25
737.166	35.29
737.566	35.34
737.966	35.36
738.365	35.37
738.765	35.37
739.165	35.38
739.564	35.39
739.964	35.4
740.363	35.43
740.763	35.43
741.162	35.45
741.561	35.42
741.96	35.41
742.36	35.41
742.759	35.44
743.158	35.44
743.557	35.43
743.955	35.44
744.354	35.45
744.753	35.44
745.152	35.48
745.55	35.49
745.949	35.54
746.348	35.56
746.746	35.58
747.144	35.59
747.543	35.59
747.941	35.6
748.339	35.59
748.737	35.6
749.136	35.62
749.534	35.6
749.932	35.6
750.33	35.6
750.727	35.6
751.125	35.6
751.523	35.59
751.921	35.6
752.318	35.63
752.716	35.64
753.113	35.66
753.511	35.63
753.908	35.64
754.305	35.65
754.703	35.62
755.1	35.6
755.497	35.58
755.894	35.56
756.291	35.55
756.688	35.53
757.085	35.52
757.482	35.49
757.878	35.48
758.275	35.48
758.672	35.46
759.068	35.46
759.465	35.47
759.861	35.49
760.258	35.5
760.654	35.5
761.05	35.49
761.447	35.5
761.843	35.49
762.239	35.5
762.635	35.48
763.031	35.47
763.427	35.47
763.822	35.47
764.218	35.46
764.614	35.46
765.01	35.47
765.405	35.47
765.801	35.46
766.196	35.47
766.592	35.45
766.987	35.48
767.382	35.47
767.778	35.45
768.173	35.45
768.568	35.44
768.963	35.44
769.358	35.42
769.753	35.43
770.148	35.44
770.542	35.44
770.937	35.44
771.332	35.4
771.726	35.41
772.121	35.42
772.515	35.42
772.91	35.42
773.304	35.41
773.699	35.4
774.093	35.36
774.487	35.34
774.881	35.33
775.275	35.33
775.669	35.33
776.063	35.32
776.457	35.34
776.851	35.32
777.245	35.33
777.638	35.35
778.032	35.34
778.425	35.37
778.819	35.39
779.212	35.39
779.606	35.4
779.999	35.4
780.392	35.42
780.786	35.41
781.179	35.41
781.572	35.41
781.965	35.39
782.358	35.4
782.751	35.38
783.143	35.39
783.536	35.39
783.929	35.38
784.322	35.41
784.714	35.39
785.107	35.39
785.499	35.41
785.891	35.41
786.284	35.43
786.676	35.45
787.068	35.47
787.46	35.47
787.852	35.48
788.245	35.48
788.636	35.47
789.028	35.5
789.42	35.51
789.812	35.5
790.204	35.51
790.595	35.5
790.987	35.52
791.378	35.53
791.77	35.55
792.161	35.55
792.553	35.56
792.944	35.56
793.335	35.55
793.726	35.53
794.117	35.52
794.508	35.5
794.899	35.48
795.29	35.48
795.681	35.46
796.072	35.44
796.463	35.45
796.853	35.44
797.244	35.45
797.634	35.47
798.025	35.49
798.415	35.5
798.806	35.51
799.196	35.52
799.586	35.52
799.976	35.52
800.366	35.53
800.756	35.51
801.146	35.53
801.536	35.53
801.926	35.52
802.316	35.53
802.706	35.55
803.095	35.57
803.485	35.59
803.874	35.6
804.264	35.61
804.653	35.61
805.043	35.62
805.432	35.61
805.821	35.63
806.21	35.63
806.599	35.62
806.988	35.62
807.377	35.6
807.766	35.58
808.155	35.56
808.544	35.56
808.933	35.56
809.321	35.56
809.71	35.57
810.098	35.56
810.487	35.55
810.875	35.54
811.264	35.53
811.652	35.55
812.04	35.55
812.428	35.58
812.816	35.6
813.204	35.6
813.592	35.59
813.98	35.61
814.368	35.64
814.756	35.65
815.144	35.67
815.531	35.64
815.919	35.64
816.306	35.65
816.694	35.66
817.081	35.65
817.469	35.66
817.856	35.66
818.243	35.64
818.63	35.6
819.017	35.6
819.404	35.59
819.791	35.6
820.178	35.6
820.565	35.59
820.952	35.58
821.339	35.54
821.725	35.52
822.112	35.54
822.498	35.55
822.885	35.59
823.271	35.57
823.657	35.58
824.044	35.59
824.43	35.58
824.816	35.59
825.202	35.58
825.588	35.61
825.974	35.61
826.36	35.59
826.746	35.58
827.132	35.56
827.517	35.56
827.903	35.56
828.289	35.55
828.674	35.55
829.06	35.52
829.445	35.5
829.83	35.48
830.216	35.47
830.601	35.47
830.986	35.48
831.371	35.44
831.756	35.45
832.141	35.42
832.526	35.42
832.911	35.38
833.295	35.36
833.68	35.36
834.065	35.34
834.449	35.33
834.834	35.31
835.218	35.3
835.603	35.3
835.987	35.29
836.371	35.29
836.755	35.26
837.139	35.24
837.524	35.24
837.908	35.26
838.291	35.27
838.675	35.27
839.059	35.26
839.443	35.21
839.827	35.19
840.21	35.18
840.594	35.18
840.977	35.19
841.361	35.21
841.744	35.19
842.127	35.16
842.511	35.14
842.894	35.14
843.277	35.12
843.66	35.14
844.043	35.14
844.426	35.12
844.809	35.11
845.191	35.11
845.574	35.1
845.957	35.13
846.339	35.13
846.722	35.13
847.104	35.13
847.487	35.13
847.869	35.11
848.252	35.12
848.634	35.12
849.016	35.12
849.398	35.13
849.78	35.11
850.162	35.08
850.544	35.07
850.926	35.07
851.307	35.06
851.689	35.06
852.071	35.06
852.452	35.06
852.834	35.06
853.215	35.05
853.597	35.04
853.978	35.04
854.359	35.06
854.741	35.07
855.122	35.05
855.503	35.06
855.884	35.05
856.265	35.07
856.646	35.05
857.026	35.07
857.407	35.08
857.788	35.07
858.169	35.08
858.549	35.07
858.93	35.07
859.31	35.07
859.69	35.07
860.071	35.09
860.451	35.08
860.831	35.09
861.211	35.06
861.591	35.06
861.971	35.06
862.351	35.07
862.731	35.07
863.111	35.07
863.491	35.07
863.87	35.06
864.25	35.06
864.629	35.07
865.009	35.05
865.388	35.07
865.768	35.08
866.147	35.08
866.526	35.05
866.905	35.03
867.284	35.03
867.663	35.02
868.042	35.02
868.421	35.03
868.8	35.01
869.179	35.02
869.558	35.02
869.936	34.98
870.315	34.97
870.693	34.99
871.072	35.01
871.45	35.01
871.828	35.02
872.207	35.03
872.585	35
872.963	35.01
873.341	35
873.719	35
874.097	35.02
874.475	35.04
874.853	35.03
875.23	35.05
875.608	35.05
875.986	35.06
876.363	35.04
876.741	35.06
877.118	35.07
877.495	35.06
877.873	35.05
878.25	35.06
878.627	35.05
879.004	35.04
879.381	35.03
879.758	35.01
880.135	35.01
880.512	35.02
880.889	35.04
881.265	35.01
881.642	35.01
882.019	35.01
882.395	34.99
882.772	34.99
883.148	34.97
883.524	34.96
883.901	34.97
884.277	34.97
884.653	34.96
885.029	34.94
885.405	34.94
885.781	34.95
886.157	34.96
886.532	34.96
886.908	34.96
887.284	34.96
887.659	34.94
888.035	34.91
888.411	34.89
888.786	34.9
889.161	34.88
889.537	34.88
889.912	34.87
890.287	34.86
890.662	34.83
891.037	34.82
891.412	34.8
891.787	34.78
892.162	34.77
892.536	34.76
892.911	34.74
893.286	34.73
893.66	34.72
894.035	34.7
894.409	34.68
894.784	34.68
895.158	34.68
895.532	34.68
895.906	34.68
896.281	34.68
896.655	34.69
897.029	34.7
897.402	34.69
897.776	34.69
898.15	34.71
898.524	34.73
898.898	34.74
899.271	34.76
899.645	34.78
900.018	34.8
900.392	34.82
900.765	34.83
901.138	34.82
901.511	34.85
901.884	34.86
902.258	34.87
902.631	34.87
903.003	34.9
903.376	34.89
903.749	34.86
904.122	34.85
904.495	34.86
904.867	34.86
905.24	34.87
905.612	34.87
905.985	34.85
906.357	34.84
906.729	34.84
907.102	34.79
907.474	34.8
907.846	34.81
908.218	34.81
908.59	34.82
908.962	34.81
909.334	34.82
909.705	34.79
910.077	34.81
910.449	34.81
910.82	34.8
911.192	34.82
911.563	34.82
911.935	34.83
912.306	34.84
912.677	34.82
913.048	34.84
913.419	34.82
913.79	34.86
914.161	34.87
914.532	34.86
914.903	34.88
915.274	34.9
915.645	34.9
916.015	34.91
916.386	34.93
916.756	34.94
917.127	34.95
917.497	34.97
917.868	34.99
918.238	34.99
918.608	35.03
918.978	35.01
919.348	35.01
919.718	35.01
920.088	35.02
920.458	35.03
920.828	35.02
921.198	35.01
921.567	35.04
921.937	35.01
922.306	35
922.676	34.96
923.045	34.98
923.415	34.98
923.784	34.98
924.153	34.98
924.522	34.95
924.891	34.97
925.26	34.98
925.629	34.97
925.998	34.96
926.367	35.01
926.736	35.03
927.104	35.04
927.473	35.01
927.842	35.02
928.21	35.03
928.578	35.05
928.947	35.06
929.315	35.03
929.683	35.01
930.051	34.98
930.42	34.95
930.788	34.91
931.156	34.89
931.523	34.91
931.891	34.91
932.259	34.9
932.627	34.89
932.994	34.89
933.362	34.93
933.729	34.95
934.097	35.01
934.464	35.01
934.831	35.03
935.199	35.04
935.566	35.04
935.933	34.99
936.3	34.98
936.667	34.99
937.034	35
937.401	34.97
937.767	34.93
938.134	34.87
938.501	34.88
938.867	34.86
939.234	34.9
939.6	34.89
939.967	34.96
940.333	34.93
940.699	34.91
941.065	34.89
941.431	34.91
941.798	34.9
942.163	34.9
942.529	34.84
942.895	34.84
943.261	34.78
943.627	34.73
943.992	34.75
944.358	34.77
944.723	34.81
945.089	34.78
945.454	34.76
945.82	34.78
946.185	34.8
946.55	34.79
946.915	34.78
947.28	34.78
947.645	34.83
948.01	34.84
948.375	34.83
948.74	34.8
949.104	34.8
949.469	34.8
949.834	34.74
950.198	34.72
950.562	34.72
950.927	34.71
951.291	34.68
951.655	34.64
952.02	34.59
952.384	34.54
952.748	34.5
953.112	34.45
953.476	34.42
953.839	34.42
954.203	34.44
954.567	34.46
954.931	34.43
955.294	34.43
955.658	34.47
956.021	34.44
956.385	34.45
956.748	34.45
957.111	34.43
957.474	34.42
957.837	34.39
958.2	34.32
958.563	34.3
958.926	34.35
959.289	34.34
959.652	34.29
960.015	34.3
960.377	34.31
960.74	34.33
961.102	34.34
961.465	34.38
961.827	34.43
962.189	34.46
962.552	34.46
962.914	34.44
963.276	34.47
963.638	34.48
964	34.47
964.362	34.47
964.724	34.42
965.085	34.39
965.447	34.37
965.809	34.39
966.17	34.38
966.532	34.37
966.893	34.4
967.255	34.39
967.616	34.41
967.977	34.42
968.338	34.41
968.699	34.41
969.061	34.43
969.421	34.45
969.782	34.41
970.143	34.42
970.504	34.42
970.865	34.35
971.225	34.37
971.586	34.31
971.946	34.33
972.307	34.34
972.667	34.34
973.027	34.36
973.388	34.39
973.748	34.4
974.108	34.46
974.468	34.42
974.828	34.51
975.188	34.47
975.548	34.49
975.907	34.47
976.267	34.49
976.627	34.49
976.986	34.5
977.346	34.41
977.705	34.4
978.064	34.39
978.424	34.47
978.783	34.44
979.142	34.46
979.501	34.52
979.86	34.57
980.219	34.61
980.578	34.68
980.937	34.71
981.296	34.75
981.654	34.77
982.013	34.78
982.371	34.76
982.73	34.73
983.088	34.71
983.447	34.7
983.805	34.72
984.163	34.68
984.521	34.63
984.879	34.57
985.237	34.57
985.595	34.58
985.953	34.53
986.311	34.53
986.669	34.58
987.026	34.65
987.384	34.6
987.741	34.51
988.099	34.56
988.456	34.6
988.814	34.63
989.171	34.69
989.528	34.75
989.885	34.77
990.242	34.75
990.599	34.8
990.956	34.78
991.313	34.83
991.67	34.95
992.027	35.09
992.383	35.18
992.74	35.19
993.096	35.18
993.453	35.16
993.809	35.24
994.165	35.33
994.522	35.39
994.878	35.46
995.234	35.51
995.59	35.53
995.946	35.4
996.302	35.45
996.658	35.6
997.013	35.59
997.369	35.63
997.725	35.68
998.08	35.68
998.436	35.51
998.791	35.46
999.147	35.44
999.502	35.4
999.857	35.39
1000.212	35.19
1000.567	35.13
1000.922	35.15
1001.277	35.14
1001.632	35.09
1001.987	35.06
1002.342	35.17
1002.696	35.13
1003.051	35.27
1003.406	35.36
1003.76	35.46
1004.114	35.57
1004.469	35.71
1004.823	35.94
1005.177	36.01
1005.531	36.06
1005.885	36.12
1006.239	36.21
1006.593	36.35
1006.947	36.28
1007.301	36.22
1007.655	36.11
1008.008	36.1
1008.362	36.11
1008.715	35.91
1009.069	35.95
1009.422	35.94
1009.776	35.89
1010.129	35.96
1010.482	35.96
1010.835	36.06
1011.188	36.11
1011.541	36.22
1011.894	36.31
1012.247	36.19
1012.6	36.2
1012.952	36.19
1013.305	36.27
1013.657	36.51
1014.01	36.42
1014.362	36.47
1014.715	36.41
1015.067	36.57
1015.419	36.69
1015.771	36.67
1016.123	36.75
1016.475	36.84
1016.827	36.96
1017.179	37.15
1017.531	37.26
1017.883	37.3
1018.234	37.44
1018.586	37.59
1018.938	37.68
1019.289	37.72
1019.64	37.74
1019.992	37.74
1020.343	37.78
1020.694	37.83
1021.045	37.75
1021.396	37.54
1021.747	37.64
1022.098	37.7
1022.449	37.52
1022.8	37.45
1023.151	37.45
1023.501	37.74
1023.852	37.91
1024.202	37.88
1024.553	37.8
1024.903	37.8
1025.253	38.05
1025.604	38.12
1025.954	37.8
1026.304	37.92
1026.654	38.11
1027.004	38.08
1027.354	37.96
1027.703	37.88
1028.053	37.97
1028.403	37.97
1028.753	37.65
1029.102	37.81
1029.452	38.05
1029.801	38.58
1030.15	38.7
1030.499	38.46
897.758	1424.93
901.051	1429.16
904.343	1426.23
907.636	1449.59
910.928	1410.56
914.22	1406.71
917.511	1385.66
920.803	1325.68
924.094	1319.92
927.384	1287.69
930.675	1235.16
933.965	1227.61
937.255	1157.84
940.544	1110.72
943.834	1054.24
947.123	1045.25
950.411	984.24
953.7	963.89
956.988	913.67
960.276	872.7
963.563	858.26
966.851	826.33
970.138	819.15
973.424	792.13
976.711	798.11
979.997	758.49
983.283	754.77
986.568	738.86
989.853	713.24
993.138	700.13
996.423	676.7
999.708	657.72
1002.992	651.08
1006.275	620.66
1009.559	613.86
1012.842	591
1016.125	575.98
1019.408	563.95
1022.69	557.68
1025.972	548.92
1029.254	534.6
1032.536	524.66
1035.817	514.21
1039.098	506.73
1042.379	495.67
1045.659	490.68
1048.939	478.02
1052.219	467.92
1055.498	460.82
1058.778	449.84
1062.057	438.78
1065.335	433.66
1068.614	428.72
1071.892	423.61
1075.17	410.15
1078.447	403.55
1081.724	399.53
1085.001	396.19
1088.278	388.62
1091.554	381.11
1094.83	380.64
1098.106	378.51
1101.382	374.21
1104.657	370.48
1107.932	364.86
1111.206	366.59
1114.481	356.45
1117.755	353.99
1121.029	350.8
1124.302	349.82
1127.575	343.78
1130.848	339.35
1134.121	334.81
1137.393	334
1140.665	327.5
1143.937	324.66
1147.208	321.79
1150.48	322.22
1153.75	317.23
1157.021	313.06
1160.291	313.1
1163.561	308.6
1166.831	308.75
1170.101	306.58
1173.37	305.18
1176.639	305.93
1179.907	302.71
1183.176	299.85
1186.444	299.23
1189.711	299.15
1192.979	297.29
1196.246	295.45
1199.513	297.23
1202.78	295.7
1206.046	295.12
1209.312	292.56
1212.578	292.4
1215.843	295.17
1219.108	293
1222.373	298.84
1225.638	300.54
1228.902	305.77
1232.166	306.18
1235.43	308.02
1238.693	311.16
1241.956	313.81
1245.219	318.67
1248.482	318.96
1251.744	319.09
1255.006	320.75
1258.268	312.29
1261.529	309.46
1264.79	306.55
1268.051	305.46
1271.312	301.86
1274.572	298.06
1277.832	294.72
1281.092	289.6
1284.351	287.62
1287.61	287.09
1290.869	281.96
1294.128	280.77
1297.386	280.85
1300.644	277.9
1303.902	278.27
1307.159	277.5
1310.416	277.82
1313.673	277.67
1316.93	280.98
1320.186	280.7
1323.442	281.34
1326.697	287
1329.953	287.79
1333.208	288.41
1336.463	293.02
1339.717	293.15
1342.972	296.68
1346.226	299.26
1349.479	299.94
1352.733	301.39
1355.986	303.23
1359.238	303.73
1362.491	304.97
1365.743	307.62
1368.995	308.53
1372.247	306.07
1375.498	306.18
1378.749	308.18
1382	305.15
1385.251	306.93
1388.501	305.32
1391.751	306.92
1395	305.49
1398.25	303.83
1401.499	302.74
1404.748	302.31
1407.996	301.03
1411.244	299.91
1414.492	298.73
1417.74	296.13
1420.987	291
1424.234	292.08
1427.481	286.58
1430.728	287.24
1433.974	283.64
1437.22	281.32
1440.465	280.53
1443.711	278.14
1446.956	276.65
1450.201	271.93
1453.445	269.69
1456.689	268.71
1459.933	263.24
1463.177	262.4
1466.42	257.92
1469.663	255.27
1472.906	253.67
1476.148	246.51
1479.391	243.64
1482.633	241.23
1485.874	238.09
1489.115	236.54
1492.356	233.28
1495.597	232.37
1498.838	228.8
1502.078	227.05
1505.318	225.84
1508.557	225.72
1511.797	225.64
1515.036	224.13
1518.274	222.88
1521.513	221.13
1524.751	220.75
1527.989	220.47
1531.227	219.05
1534.464	219.54
1537.701	217.78
1540.938	217.18
1544.174	213.61
1547.41	213.62
1550.646	212.45
1553.882	212.36
1557.117	209.61
1560.352	207.97
1563.587	207.18
1566.821	205.97
1570.055	203.78
1573.289	202.36
1576.523	201.94
1579.756	200.97
1582.989	199.45
1586.222	199.21
1589.454	198.51
1592.686	199.77
1595.918	198.78
1599.15	197.99
1602.381	198.23
1605.612	197.92
1608.843	198.56
1612.073	198.52
1615.303	198.89
1618.533	199.21
1621.762	198.17
1624.992	198.71
1628.221	198.16
1631.449	197.87
1634.678	197.54
1637.906	198.65
1641.134	198.57
1644.361	198.22
1647.588	198.66
1650.815	198.19
1654.042	197.45
1657.269	198.98
1660.495	198.38
1663.72	197.62
1666.946	198.33
1670.171	199.06
1673.396	198.4
1676.621	198.22
1679.845	198.77
1683.069	198.83
1686.293	200.15
1689.517	201.26
1692.74	200.83
1695.963	201.85
1699.185	204.6
1702.408	204.93
1705.63	205.33
1708.852	206.33
1712.073	207.08
1715.294	207.25
1718.515	208.28
1721.736	208.05
1724.956	208.59
1728.176	208.83
1731.396	210.14
1734.616	209
1737.835	210.07
1741.054	208.7
1744.272	209.27
1747.491	211.01
1750.709	211.99
1753.927	212.01
1757.144	211.29
1760.361	212.29
1763.578	212.32
1766.795	211.85
1770.011	212.94
1773.227	213.08
1776.443	216.2
1779.658	217.08
1782.874	216.39
1786.089	216.83
1789.303	217.4
1792.518	220.44
1795.732	219.53
1798.945	222.66
1802.159	222.84
1805.372	223.56
1808.585	227.26
1811.797	227.6
1815.01	227.8
1818.222	230.05
1821.434	232.23
1824.645	232.96
1827.856	236.64
1831.067	239.85
1834.278	238.38
1837.488	240.31
1840.698	242.56
1843.908	240.16
1847.117	241.82
1850.326	243.64
1853.535	242.86
1856.744	246.1
1859.952	246.34
1863.16	244.49
1866.368	242.93
1869.575	246.88
1872.782	243.45
1875.989	242.82
1879.196	242.78
1882.402	241.18
1885.608	242.19
1888.814	243.02
1892.019	242.91
1895.224	242.6
1898.429	242.68
1901.634	244.27
1904.838	243.64
1908.042	247.29
1911.246	248.32
1914.449	249.62
1917.652	251.14
1920.855	250.78
1924.058	250.92
1927.26	249.52
1930.462	250.52
1933.664	252.81
1936.865	251.18
1940.066	251.58
1943.267	249.59
1946.467	249.43
1949.668	250.99
1952.868	253.4
1956.067	253.53
1959.267	253.8
1962.466	255.02
1965.665	253.14
1968.863	254.01
1972.061	256.97
1975.259	259.3
1978.457	261
1981.654	262.97
1984.852	263.5
1988.048	262.45
1991.245	265.34
1994.441	268.15
1997.637	269.37
2000.833	275.57
2004.028	279.03
2007.223	280.65
2010.418	283.65
2013.613	288.77
2016.807	292.42
2020.001	294.47
2023.194	297.92
2026.388	304.41
2029.581	311.09
2032.774	313.98
2035.966	318.9
2039.158	319.41
2042.35	326.22
2045.542	327.32
2048.733	332.23
2051.924	336.56
2055.115	341.71
2058.306	343.54
2061.496	345.96
2064.686	346.08
2067.875	352.12
2071.065	354.83
2074.254	352.43
2077.442	356.13
2080.631	357.68
2083.819	361.4
2087.007	361.43
2090.195	365.96
2093.382	369.07
2096.569	367.09
2099.756	373.04
2102.942	373.85
2106.128	376.26
2109.314	386.84
2112.5	385.47
2115.685	393.36
2118.87	393.83
2122.055	402.34
2125.239	405.04
2128.424	409.78
2131.608	412.39
2134.791	417.62
2137.974	419.75
2141.157	420.67
2144.34	419.83
2147.523	427.32
2150.705	424.95
2153.887	426.96
2157.068	427.35
2160.25	423.15
2163.431	425.48
2166.611	430.31
2169.792	438.09
2172.972	443.01
2176.152	446.26
2179.331	452.73
2182.511	459.01
2185.69	465.16
2188.868	476.49
2192.047	476.78
2195.225	491.69
2198.403	503.89
2201.58	512.79
2204.758	524
2207.935	534.43
2211.111	545.3
2214.288	551.57
2217.464	553.5
2220.64	560.24
2223.815	568.13
2226.991	592.55
2230.166	594.08
2233.34	604.34
2236.515	613.88
2239.689	612.19
2242.863	615.76
2246.036	633.29
2249.209	627.35
2252.382	636.19
2255.555	657.55
2258.727	659.03
2261.9	664.2
2265.071	669.65
2268.243	680.36
2271.414	688.39
2274.585	705.04
2277.756	713.26
2280.926	716.6
2284.096	734.11
2287.266	751.67
2290.436	758.37
2293.605	775.39
2296.774	796.98
2299.942	821.24
2303.111	825.84
2306.279	846.04
2309.447	857.64
2312.614	880.67
2315.781	905.01
2318.948	948.52
2322.115	934
2325.281	982.9
2328.447	963.27
2331.613	1002.36
2334.779	992.87
2337.944	1034.78
2341.109	1044.42
2344.274	1072.93
2347.438	1108.27
2350.602	1110.27
2353.766	1143.37
2356.929	1161.94
2360.092	1152.54
2363.255	1238.63
2366.418	1234.83
2369.58	1261.29
2372.742	1342.29
2375.904	1376.3
2379.066	1366.91
2382.227	1339.25
2385.388	1452.19
2388.548	1451.44
2391.709	1470.11
2394.869	1638.43
2398.029	1563.12
2401.188	1608.44
2404.347	1599.51
2407.506	1570.47
2410.665	1617.94
2413.823	1714.71
2416.981	1818.9
2420.139	1759.7
2423.296	1739.08
2426.453	1821.08
2429.61	1753.24
2432.767	1836.1
2435.923	1817.98
2439.079	1980.65
2442.235	2011.06
2445.391	1985.43
2448.546	1972.32
2451.701	1918.43
2454.855	1913.52
2458.009	2037.24
2461.163	2113.56
2464.317	2185.31
2467.471	2249.03
2470.624	2244.78
2473.777	2190.79
2476.929	2129.79
2480.082	2075.26
2483.234	2050.38
2486.385	2150.86
2489.537	2164.52
2492.688	2238.59
2495.839	2179.99
2498.989	2132.29
2502.14	2137.97
2505.29	2166.92
2508.439	2195.59
2511.589	2193.82
2514.738	2391.52
2517.887	2339.74
2521.035	2467.86
2524.183	2491.44
2527.331	2513.26
2530.479	2496.03
2533.627	2518.51
