Data from N_3_DEC_VA_2N_Splice17_14-19-23-859.txt Node
Date: Sat Mar 07 14:19:23 EST 2020
User: sa697716
Spectrometer: NQ5500242
Trigger mode: 0
Integration Time (sec): 1.450000E-1
Scans to average: 20
Nonlinearity correction enabled: false
Boxcar width: 5
Storing dark spectrum: false
XAxis mode: Wavelengths
Number of Pixels in Spectrum: 512
>>>>>Begin Spectral Data<<<<<
187.83	94.63
188.298	102.01
188.766	88.46
189.233	80.94
189.701	81.47
190.169	103.15
190.636	111.89
191.104	199.62
191.571	285.9
192.039	218.15
192.506	179.82
192.974	-10.16
193.441	50.21
193.908	-17.73
194.375	51.28
194.842	4.86
195.31	75.42
195.777	101.39
196.244	87.09
196.711	83.41
197.177	84
197.644	84.4
198.111	84.35
198.578	84.58
199.045	85.63
199.511	85.23
199.978	85.76
200.445	85.93
200.911	85.78
201.378	86.44
201.844	86.6
202.31	86.66
202.777	86.54
203.243	86.85
203.709	86.26
204.176	85.5
204.642	85.05
205.108	84.54
205.574	83.99
206.04	83.36
206.506	82.25
206.972	81.64
207.438	80.92
207.903	79.92
208.369	78.28
208.835	77.12
209.301	75.53
209.766	73.61
210.232	71.47
210.697	69.38
211.163	67.63
211.628	66.02
212.094	64.5
212.559	62.99
213.024	61.43
213.49	60.11
213.955	58.68
214.42	57.59
214.885	56.14
215.35	54.22
215.815	51.57
216.28	48.39
216.745	44.64
217.21	40.86
217.675	37.41
218.14	34.39
218.604	31.67
219.069	29.41
219.534	27.48
219.998	25.93
220.463	24.63
220.927	23.46
221.392	22.52
221.856	21.76
222.32	21.12
222.785	20.55
223.249	20.04
223.713	19.58
224.177	19.14
224.642	18.74
225.106	18.34
225.57	17.96
226.034	17.67
226.497	17.36
226.961	17.06
227.425	16.77
227.889	16.49
228.353	16.19
228.816	15.95
229.28	15.7
229.744	15.46
230.207	15.24
230.671	15.02
231.134	14.79
231.597	14.6
232.061	14.39
232.524	14.2
232.987	14.01
233.45	13.85
233.914	13.65
234.377	13.48
234.84	13.3
235.303	13.16
235.766	13.01
236.229	12.86
236.691	12.72
237.154	12.59
237.617	12.48
238.08	12.35
238.542	12.22
239.005	12.12
239.468	11.99
239.93	11.9
240.393	11.79
240.855	11.67
241.317	11.57
241.78	11.46
242.242	11.33
242.704	11.22
243.166	11.1
243.629	11
244.091	10.88
244.553	10.79
245.015	10.68
245.477	10.57
245.939	10.48
246.4	10.38
246.862	10.28
247.324	10.2
247.786	10.11
248.247	10.02
248.709	9.92
249.17	9.83
249.632	9.75
250.093	9.67
250.555	9.59
251.016	9.52
251.477	9.44
251.939	9.38
252.4	9.31
252.861	9.23
253.322	9.18
253.783	9.13
254.244	9.09
254.705	9.03
255.166	8.98
255.627	8.94
256.088	8.88
256.549	8.83
257.009	8.77
257.47	8.72
257.931	8.67
258.391	8.61
258.852	8.54
259.312	8.48
259.773	8.42
260.233	8.37
260.694	8.31
261.154	8.25
261.614	8.2
262.074	8.14
262.534	8.09
262.994	8.04
263.455	8
263.915	7.96
264.374	7.92
264.834	7.89
265.294	7.85
265.754	7.82
266.214	7.78
266.673	7.76
267.133	7.73
267.593	7.71
268.052	7.69
268.512	7.67
268.971	7.65
269.431	7.63
269.89	7.6
270.349	7.59
270.809	7.56
271.268	7.55
271.727	7.53
272.186	7.51
272.645	7.5
273.104	7.47
273.563	7.45
274.022	7.43
274.481	7.42
274.94	7.4
275.399	7.38
275.857	7.37
276.316	7.36
276.775	7.34
277.233	7.33
277.692	7.31
278.15	7.3
278.609	7.28
279.067	7.27
279.525	7.26
279.984	7.24
280.442	7.23
280.9	7.22
281.358	7.21
281.816	7.19
282.274	7.18
282.732	7.17
283.19	7.16
283.648	7.14
284.106	7.13
284.564	7.12
285.021	7.11
285.479	7.1
285.937	7.08
286.394	7.08
286.852	7.06
287.309	7.05
287.767	7.02
288.224	7
288.682	6.98
289.139	6.96
289.596	6.92
290.053	6.89
290.511	6.86
290.968	6.83
291.425	6.79
291.882	6.77
292.339	6.74
292.796	6.71
293.252	6.69
293.709	6.67
294.166	6.65
294.623	6.63
295.079	6.61
295.536	6.6
295.992	6.58
296.449	6.57
296.905	6.56
297.362	6.54
297.818	6.53
298.274	6.52
298.731	6.51
299.187	6.49
299.643	6.48
300.099	6.47
300.555	6.46
301.011	6.44
301.467	6.43
301.923	6.41
302.379	6.4
302.835	6.39
303.291	6.38
303.746	6.37
304.202	6.36
304.658	6.36
305.113	6.35
305.569	6.34
306.024	6.34
306.479	6.34
306.935	6.33
307.39	6.33
307.845	6.33
308.301	6.33
308.756	6.33
309.211	6.33
309.666	6.34
310.121	6.35
310.576	6.35
311.031	6.35
311.486	6.35
311.94	6.34
312.395	6.34
312.85	6.34
313.305	6.34
313.759	6.34
314.214	6.32
314.668	6.31
315.123	6.3
315.577	6.29
316.032	6.28
316.486	6.28
316.94	6.27
317.394	6.25
317.849	6.23
318.303	6.21
318.757	6.18
319.211	6.16
319.665	6.14
320.119	6.12
320.572	6.09
321.026	6.07
321.48	6.04
321.934	6.02
322.387	6
322.841	5.99
323.295	5.99
323.748	5.98
324.202	5.97
324.655	5.96
325.108	5.95
325.562	5.95
326.015	5.94
326.468	5.94
326.921	5.94
327.374	5.93
327.827	5.93
328.28	5.92
328.733	5.92
329.186	5.91
329.639	5.92
330.092	5.91
330.545	5.91
330.997	5.91
331.45	5.91
331.903	5.92
332.355	5.93
332.808	5.93
333.26	5.93
333.713	5.94
334.165	5.94
334.617	5.95
335.069	5.95
335.522	5.96
335.974	5.96
336.426	5.96
336.878	5.95
337.33	5.95
337.782	5.95
338.234	5.96
338.686	5.96
339.137	5.96
339.589	5.95
340.041	5.94
340.493	5.93
340.944	5.9
341.396	5.9
341.847	5.89
342.299	5.86
342.75	5.84
343.201	5.82
343.653	5.8
344.104	5.77
344.555	5.75
345.006	5.74
345.457	5.73
345.908	5.72
346.359	5.71
346.81	5.7
347.261	5.69
347.712	5.68
348.163	5.66
348.613	5.66
349.064	5.66
349.515	5.65
349.965	5.65
350.416	5.64
350.866	5.64
351.317	5.63
351.767	5.64
352.217	5.63
352.668	5.62
353.118	5.62
353.568	5.61
354.018	5.62
354.468	5.63
354.918	5.62
355.368	5.62
355.818	5.63
356.268	5.63
356.718	5.63
357.168	5.63
357.617	5.64
358.067	5.64
358.517	5.66
358.966	5.67
359.416	5.67
359.865	5.67
360.315	5.67
360.764	5.67
361.213	5.67
361.663	5.66
362.112	5.67
362.561	5.68
363.01	5.67
363.459	5.65
363.908	5.64
364.357	5.63
364.806	5.63
365.255	5.63
365.703	5.63
366.152	5.63
366.601	5.63
367.05	5.63
367.498	5.62
367.947	5.64
368.395	5.64
368.844	5.64
369.292	5.64
369.74	5.64
370.189	5.63
370.637	5.63
371.085	5.62
371.533	5.61
371.981	5.6
372.429	5.6
372.877	5.58
373.325	5.58
373.773	5.58
374.221	5.57
374.669	5.56
375.116	5.55
375.564	5.54
376.012	5.54
376.459	5.54
376.907	5.55
377.354	5.55
377.801	5.56
378.249	5.56
378.696	5.56
379.143	5.56
379.591	5.56
380.038	5.56
380.485	5.57
380.932	5.58
381.379	5.58
381.826	5.57
382.273	5.57
382.72	5.56
383.166	5.56
383.613	5.57
384.06	5.57
384.506	5.58
384.953	5.59
385.4	5.59
385.846	5.6
386.292	5.6
386.739	5.62
387.185	5.62
387.631	5.65
388.078	5.65
388.524	5.66
388.97	5.67
389.416	5.69
389.862	5.71
390.308	5.73
390.754	5.75
391.2	5.78
391.645	5.81
392.091	5.85
392.537	5.88
392.983	5.91
393.428	5.93
393.874	5.97
394.319	5.99
394.765	6
395.21	6.02
395.655	6.04
396.101	6.07
396.546	6.09
396.991	6.11
397.436	6.12
397.881	6.15
398.326	6.18
398.771	6.21
399.216	6.25
399.661	6.3
400.106	6.32
400.551	6.34
400.995	6.35
401.44	6.36
401.885	6.38
402.329	6.41
402.774	6.43
403.218	6.47
403.663	6.49
404.107	6.51
404.551	6.52
404.995	6.55
405.44	6.56
405.884	6.59
406.328	6.63
406.772	6.65
407.216	6.68
407.66	6.69
408.104	6.69
408.547	6.7
408.991	6.72
409.435	6.73
409.879	6.75
410.322	6.77
410.766	6.79
411.209	6.81
411.653	6.83
412.096	6.85
412.54	6.87
412.983	6.88
413.426	6.93
413.869	6.96
414.312	6.99
414.756	7.01
415.199	7.04
415.642	7.08
416.085	7.1
416.527	7.11
416.97	7.09
417.413	7.09
417.856	7.1
418.298	7.08
418.741	7.08
419.184	7.07
419.626	7.07
420.069	7.07
420.511	7.06
420.953	7.05
421.396	7.06
421.838	7.09
422.28	7.1
422.722	7.13
423.164	7.15
423.606	7.16
424.048	7.18
424.49	7.19
424.932	7.21
425.374	7.19
425.816	7.18
426.258	7.16
426.699	7.12
427.141	7.11
427.582	7.1
428.024	7.1
428.465	7.12
428.907	7.11
429.348	7.1
429.789	7.08
430.231	7.1
430.672	7.12
431.113	7.15
431.554	7.18
431.995	7.21
432.436	7.22
432.877	7.23
433.318	7.23
433.759	7.27
434.2	7.3
434.64	7.33
435.081	7.36
435.522	7.37
435.962	7.4
436.403	7.44
436.843	7.45
437.284	7.46
437.724	7.47
438.164	7.48
438.604	7.5
439.045	7.51
439.485	7.52
439.925	7.52
440.365	7.53
440.805	7.53
441.245	7.54
441.685	7.56
442.125	7.6
442.564	7.61
443.004	7.62
443.444	7.62
443.883	7.64
444.323	7.65
444.762	7.68
445.202	7.69
445.641	7.72
446.081	7.74
446.52	7.75
446.959	7.76
447.398	7.79
447.837	7.8
448.276	7.81
448.716	7.82
449.154	7.86
449.593	7.88
450.032	7.89
450.471	7.89
450.91	7.89
451.349	7.88
451.787	7.86
452.226	7.86
452.664	7.86
453.103	7.84
453.541	7.81
453.98	7.78
454.418	7.74
454.856	7.72
455.295	7.7
455.733	7.67
456.171	7.65
456.609	7.63
457.047	7.59
457.485	7.56
457.923	7.57
458.361	7.55
458.798	7.54
459.236	7.53
459.674	7.52
460.111	7.5
460.549	7.52
460.987	7.52
461.424	7.52
461.862	7.54
462.299	7.53
462.736	7.51
463.173	7.52
463.611	7.52
464.048	7.52
464.485	7.53
464.922	7.52
465.359	7.51
465.796	7.51
466.233	7.52
466.67	7.51
467.106	7.52
467.543	7.53
467.98	7.52
468.416	7.53
468.853	7.52
469.29	7.52
469.726	7.52
470.162	7.51
470.599	7.51
471.035	7.48
471.471	7.48
471.907	7.48
472.344	7.47
472.78	7.48
473.216	7.46
473.652	7.47
474.088	7.45
474.523	7.45
474.959	7.45
475.395	7.44
475.831	7.44
476.266	7.44
476.702	7.42
477.138	7.41
477.573	7.39
478.008	7.38
478.444	7.36
478.879	7.36
479.314	7.36
479.75	7.34
480.185	7.32
480.62	7.31
481.055	7.28
481.49	7.27
481.925	7.26
482.36	7.25
482.795	7.23
483.229	7.23
483.664	7.22
484.099	7.21
484.534	7.21
484.968	7.21
485.403	7.21
485.837	7.22
486.271	7.24
486.706	7.25
487.14	7.27
487.574	7.28
488.009	7.29
488.443	7.31
488.877	7.33
489.311	7.36
489.745	7.39
490.179	7.42
490.613	7.44
491.046	7.47
491.48	7.5
491.914	7.54
492.348	7.58
492.781	7.63
493.215	7.68
493.648	7.74
494.082	7.79
494.515	7.84
494.948	7.91
495.382	7.97
495.815	8.04
496.248	8.12
496.681	8.21
497.114	8.29
497.547	8.37
497.98	8.44
498.413	8.53
498.846	8.62
499.279	8.73
499.711	8.83
500.144	8.94
500.577	9.05
501.009	9.15
501.442	9.26
501.874	9.39
502.306	9.53
502.739	9.67
503.171	9.81
503.603	9.96
504.036	10.11
504.468	10.28
504.9	10.45
505.332	10.62
505.764	10.81
506.196	11
506.627	11.2
507.059	11.39
507.491	11.59
507.923	11.81
508.354	12.04
508.786	12.27
509.217	12.52
509.649	12.76
510.08	13.01
510.512	13.26
510.943	13.53
511.374	13.8
511.805	14.08
512.237	14.37
512.668	14.65
513.099	14.93
513.53	15.23
513.961	15.51
514.391	15.83
514.822	16.14
515.253	16.45
515.684	16.75
516.114	17.06
516.545	17.37
516.975	17.69
517.406	18.02
517.836	18.34
518.267	18.68
518.697	19
519.127	19.3
519.558	19.62
519.988	19.96
520.418	20.28
520.848	20.59
521.278	20.9
521.708	21.29
522.138	21.58
522.567	21.87
522.997	22.14
523.427	22.42
523.857	22.69
524.286	22.93
524.716	23.18
525.145	23.43
525.575	23.67
526.004	23.91
526.433	24.03
526.863	24.25
527.292	24.45
527.721	24.66
528.15	24.85
528.579	25.02
529.008	25.21
529.437	25.35
529.866	25.51
530.295	25.65
530.724	25.8
531.152	25.94
531.581	26.05
532.01	26.17
532.438	26.28
532.867	26.39
533.295	26.49
533.723	26.59
534.152	26.69
534.58	26.79
535.008	26.85
535.436	26.91
535.865	26.97
536.293	27.04
536.721	27.08
537.149	27.11
537.576	27.15
538.004	27.19
538.432	27.22
538.86	27.23
539.287	27.25
539.715	27.29
540.143	27.31
540.57	27.35
540.998	27.36
541.425	27.41
541.852	27.44
542.28	27.48
542.707	27.51
543.134	27.55
543.561	27.59
543.988	27.61
544.415	27.64
544.842	27.68
545.269	27.72
545.696	27.76
546.123	27.78
546.549	27.81
546.976	27.85
547.403	27.89
547.829	27.91
548.256	27.92
548.682	27.97
549.108	28
549.535	28.02
549.961	28.02
550.387	28.03
550.813	28.03
551.24	28.05
551.666	28.02
552.092	28.01
552.518	28.02
552.943	28.02
553.369	27.98
553.795	27.97
554.221	27.94
554.646	27.89
555.072	27.87
555.498	27.81
555.923	27.77
556.349	27.71
556.774	27.64
557.199	27.56
557.625	27.47
558.05	27.41
558.475	27.31
558.9	27.23
559.325	27.15
559.75	27.03
560.175	26.94
560.6	26.82
561.025	26.72
561.449	26.61
561.874	26.49
562.299	26.37
562.723	26.22
563.148	26.06
563.572	25.9
563.997	25.73
564.421	25.57
564.846	25.39
565.27	25.22
565.694	25.05
566.118	24.86
566.542	24.67
566.966	24.48
567.39	24.29
567.814	24.1
568.238	23.92
568.662	23.73
569.086	23.55
569.509	23.38
569.933	23.21
570.357	23.01
570.78	22.83
571.204	22.67
571.627	22.5
572.05	22.34
572.474	22.19
572.897	22.04
573.32	21.89
573.743	21.74
574.166	21.6
574.589	21.45
575.012	21.31
575.435	21.17
575.858	21.02
576.281	20.9
576.704	20.78
577.126	20.65
577.549	20.53
577.972	20.41
578.394	20.31
578.817	20.21
579.239	20.12
579.661	20.02
580.084	19.94
580.506	19.85
580.928	19.77
581.35	19.68
581.772	19.59
582.194	19.5
582.616	19.42
583.038	19.34
583.46	19.24
583.882	19.14
584.303	19.06
584.725	18.98
585.147	18.9
585.568	18.83
585.99	18.75
586.411	18.68
586.833	18.61
587.254	18.54
587.675	18.48
588.096	18.43
588.518	18.38
588.939	18.33
589.36	18.26
589.781	18.21
590.202	18.15
590.623	18.1
591.043	18.05
591.464	18.03
591.885	17.98
592.305	17.94
592.726	17.9
593.147	17.85
593.567	17.81
593.987	17.78
594.408	17.74
594.828	17.69
595.248	17.66
595.669	17.62
596.089	17.56
596.509	17.54
596.929	17.49
597.349	17.45
597.769	17.41
598.189	17.36
598.608	17.33
599.028	17.3
599.448	17.26
599.867	17.22
600.287	17.18
600.706	17.14
601.126	17.08
601.545	17.04
601.965	16.99
602.384	16.94
602.803	16.88
603.222	16.82
603.641	16.75
604.061	16.69
604.48	16.61
604.898	16.53
605.317	16.46
605.736	16.4
606.155	16.32
606.574	16.25
606.992	16.16
607.411	16.09
607.829	15.99
608.248	15.91
608.666	15.83
609.085	15.76
609.503	15.69
609.921	15.61
610.339	15.52
610.758	15.45
611.176	15.35
611.594	15.27
612.012	15.17
612.43	15.11
612.847	15.04
613.265	14.96
613.683	14.88
614.101	14.79
614.518	14.71
614.936	14.63
615.353	14.55
615.771	14.48
616.188	14.41
616.606	14.36
617.023	14.3
617.44	14.25
617.857	14.19
618.274	14.14
618.691	14.08
619.108	14.03
619.525	13.99
619.942	13.95
620.359	13.92
620.776	13.88
621.192	13.84
621.609	13.81
622.026	13.77
622.442	13.74
622.859	13.72
623.275	13.69
623.691	13.67
624.108	13.65
624.524	13.62
624.94	13.6
625.356	13.59
625.772	13.58
626.188	13.55
626.604	13.52
627.02	13.51
627.436	13.5
627.852	13.48
628.268	13.46
628.683	13.44
629.099	13.42
629.514	13.4
629.93	13.37
630.345	13.33
630.761	13.29
631.176	13.25
631.591	13.2
632.007	13.15
632.422	13.09
632.837	13.04
633.252	12.97
633.667	12.91
634.082	12.82
634.497	12.74
634.911	12.65
635.326	12.56
635.741	12.47
636.155	12.38
636.57	12.27
636.984	12.16
637.399	12.04
637.813	11.92
638.228	11.79
638.642	11.66
639.056	11.54
639.47	11.43
639.884	11.31
640.298	11.17
640.712	11.04
641.126	10.92
641.54	10.8
641.954	10.67
642.368	10.55
642.781	10.45
643.195	10.34
643.609	10.23
644.022	10.13
644.436	10.03
644.849	9.95
645.262	9.86
645.676	9.76
646.089	9.68
646.502	9.62
646.915	9.55
647.328	9.49
647.741	9.43
648.154	9.38
648.567	9.32
648.98	9.28
649.393	9.24
649.805	9.2
650.218	9.17
650.631	9.15
651.043	9.12
651.456	9.08
651.868	9.04
652.28	9.01
652.693	8.97
653.105	8.93
653.517	8.89
653.929	8.84
654.341	8.8
654.753	8.75
655.165	8.69
655.577	8.64
655.989	8.59
656.401	8.53
656.813	8.48
657.224	8.41
657.636	8.34
658.047	8.27
658.459	8.21
658.87	8.15
659.282	8.06
659.693	8
660.104	7.91
660.515	7.83
660.926	7.77
661.338	7.7
661.749	7.63
662.159	7.56
662.57	7.51
662.981	7.45
663.392	7.39
663.803	7.35
664.213	7.29
664.624	7.26
665.035	7.22
665.445	7.18
665.855	7.15
666.266	7.13
666.676	7.12
667.086	7.09
667.497	7.07
667.907	7.06
668.317	7.04
668.727	7.03
669.137	7.02
669.547	7.03
669.956	7.03
670.366	7.03
670.776	7.03
671.186	7.03
671.595	7.03
672.005	7.04
672.414	7.04
672.824	7.06
673.233	7.09
673.642	7.11
674.052	7.12
674.461	7.14
674.87	7.17
675.279	7.19
675.688	7.23
676.097	7.27
676.506	7.31
676.915	7.35
677.323	7.4
677.732	7.44
678.141	7.49
678.549	7.53
678.958	7.59
679.366	7.65
679.775	7.71
680.183	7.78
680.592	7.86
681	7.95
681.408	8.05
681.816	8.15
682.224	8.26
682.632	8.39
683.04	8.53
683.448	8.7
683.856	8.85
684.264	9.03
684.671	9.23
685.079	9.43
685.487	9.67
685.894	9.93
686.302	10.22
686.709	10.52
687.116	10.86
687.524	11.21
687.931	11.59
688.338	12.01
688.745	12.47
689.152	12.92
689.559	13.43
689.966	13.93
690.373	14.48
690.78	15.03
691.187	15.6
691.593	16.2
692	16.8
692.407	17.42
692.813	18.05
693.22	18.68
693.626	19.34
694.032	19.99
694.439	20.65
694.845	21.33
695.251	22.01
695.657	22.68
696.063	23.36
696.469	24.05
696.875	24.74
697.281	25.42
697.687	26.1
698.093	26.77
698.498	27.43
698.904	28.07
699.31	28.7
699.715	29.34
700.12	29.97
700.526	30.6
700.931	31.2
701.337	31.79
701.742	32.37
702.147	32.96
702.552	33.54
702.957	34.09
703.362	34.64
703.767	35.17
704.172	35.68
704.577	36.18
704.981	36.69
705.386	37.19
705.791	37.68
706.195	38.17
706.6	38.66
707.004	39.1
707.408	39.57
707.813	40.04
708.217	40.5
708.621	40.98
709.025	41.44
709.43	41.85
709.834	42.28
710.237	42.71
710.641	43.13
711.045	43.53
711.449	43.95
711.853	44.34
712.256	44.72
712.66	45.1
713.064	45.46
713.467	45.83
713.87	46.23
714.274	46.59
714.677	46.94
715.08	47.26
715.484	47.61
715.887	47.97
716.29	48.32
716.693	48.65
717.096	48.99
717.499	49.34
717.901	49.64
718.304	49.92
718.707	50.23
719.109	50.52
719.512	50.83
719.915	51.12
720.317	51.39
720.719	51.63
721.122	51.9
721.524	52.14
721.926	52.37
722.328	52.62
722.731	52.86
723.133	53.1
723.535	53.32
723.937	53.52
724.338	53.69
724.74	53.87
725.142	54.1
725.544	54.25
725.945	54.43
726.347	54.58
726.748	54.71
727.15	54.85
727.551	55
727.952	55.15
728.354	55.31
728.755	55.45
729.156	55.57
729.557	55.68
729.958	55.81
730.359	55.94
730.76	56.08
731.161	56.21
731.562	56.34
731.962	56.42
732.363	56.52
732.763	56.59
733.164	56.69
733.564	56.8
733.965	56.87
734.365	56.97
734.766	57.06
735.166	57.12
735.566	57.2
735.966	57.26
736.366	57.34
736.766	57.39
737.166	57.5
737.566	57.56
737.966	57.64
738.365	57.72
738.765	57.78
739.165	57.83
739.564	57.9
739.964	57.93
740.363	57.96
740.763	58
741.162	58.06
741.561	58.06
741.96	58.12
742.36	58.13
742.759	58.17
743.158	58.2
743.557	58.22
743.955	58.26
744.354	58.32
744.753	58.37
745.152	58.48
745.55	58.52
745.949	58.59
746.348	58.64
746.746	58.69
747.144	58.71
747.543	58.75
747.941	58.8
748.339	58.8
748.737	58.85
749.136	58.9
749.534	58.86
749.932	58.87
750.33	58.86
750.727	58.86
751.125	58.86
751.523	58.85
751.921	58.86
752.318	58.84
752.716	58.85
753.113	58.83
753.511	58.82
753.908	58.85
754.305	58.84
754.703	58.81
755.1	58.78
755.497	58.77
755.894	58.74
756.291	58.73
756.688	58.71
757.085	58.69
757.482	58.67
757.878	58.64
758.275	58.6
758.672	58.58
759.068	58.61
759.465	58.59
759.861	58.59
760.258	58.61
760.654	58.6
761.05	58.63
761.447	58.63
761.843	58.63
762.239	58.62
762.635	58.62
763.031	58.63
763.427	58.62
763.822	58.64
764.218	58.68
764.614	58.65
765.01	58.64
765.405	58.63
765.801	58.6
766.196	58.61
766.592	58.6
766.987	58.59
767.382	58.57
767.778	58.58
768.173	58.56
768.568	58.52
768.963	58.53
769.358	58.55
769.753	58.54
770.148	58.57
770.542	58.56
770.937	58.58
771.332	58.59
771.726	58.59
772.121	58.6
772.515	58.62
772.91	58.62
773.304	58.64
773.699	58.62
774.093	58.62
774.487	58.61
774.881	58.64
775.275	58.63
775.669	58.65
776.063	58.65
776.457	58.67
776.851	58.65
777.245	58.64
777.638	58.63
778.032	58.63
778.425	58.66
778.819	58.67
779.212	58.68
779.606	58.69
779.999	58.69
780.392	58.72
780.786	58.7
781.179	58.71
781.572	58.75
781.965	58.78
782.358	58.8
782.751	58.77
783.143	58.77
783.536	58.78
783.929	58.77
784.322	58.78
784.714	58.77
785.107	58.81
785.499	58.84
785.891	58.85
786.284	58.85
786.676	58.86
787.068	58.87
787.46	58.9
787.852	58.88
788.245	58.91
788.636	58.9
789.028	58.93
789.42	58.88
789.812	58.89
790.204	58.89
790.595	58.9
790.987	58.91
791.378	58.94
791.77	58.97
792.161	59
792.553	58.99
792.944	59.01
793.335	59.02
793.726	59.07
794.117	59.06
794.508	59.04
794.899	59.02
795.29	59.01
795.681	58.97
796.072	58.95
796.463	58.98
796.853	58.97
797.244	59
797.634	59.02
798.025	59.02
798.415	59.05
798.806	59.05
799.196	59.09
799.586	59.13
799.976	59.16
800.366	59.16
800.756	59.17
801.146	59.22
801.536	59.23
801.926	59.2
802.316	59.19
802.706	59.21
803.095	59.23
803.485	59.23
803.874	59.22
804.264	59.23
804.653	59.24
805.043	59.27
805.432	59.26
805.821	59.28
806.21	59.3
806.599	59.32
806.988	59.31
807.377	59.29
807.766	59.3
808.155	59.31
808.544	59.35
808.933	59.38
809.321	59.37
809.71	59.37
810.098	59.37
810.487	59.35
810.875	59.34
811.264	59.35
811.652	59.42
812.04	59.46
812.428	59.51
812.816	59.49
813.204	59.45
813.592	59.45
813.98	59.48
814.368	59.48
814.756	59.5
815.144	59.52
815.531	59.53
815.919	59.51
816.306	59.51
816.694	59.5
817.081	59.51
817.469	59.53
817.856	59.55
818.243	59.52
818.63	59.51
819.017	59.54
819.404	59.53
819.791	59.52
820.178	59.51
820.565	59.48
820.952	59.47
821.339	59.47
821.725	59.49
822.112	59.48
822.498	59.49
822.885	59.51
823.271	59.48
823.657	59.46
824.044	59.47
824.43	59.49
824.816	59.47
825.202	59.46
825.588	59.43
825.974	59.41
826.36	59.38
826.746	59.36
827.132	59.34
827.517	59.34
827.903	59.36
828.289	59.34
828.674	59.31
829.06	59.31
829.445	59.27
829.83	59.27
830.216	59.23
830.601	59.22
830.986	59.21
831.371	59.18
831.756	59.17
832.141	59.13
832.526	59.1
832.911	59.07
833.295	59.05
833.68	59.06
834.065	59.02
834.449	59.03
834.834	59.01
835.218	58.98
835.603	58.97
835.987	58.93
836.371	58.89
836.755	58.87
837.139	58.84
837.524	58.84
837.908	58.85
838.291	58.85
838.675	58.82
839.059	58.83
839.443	58.79
839.827	58.77
840.21	58.78
840.594	58.78
840.977	58.75
841.361	58.76
841.744	58.71
842.127	58.66
842.511	58.62
842.894	58.61
843.277	58.57
843.66	58.55
844.043	58.56
844.426	58.54
844.809	58.53
845.191	58.56
845.574	58.53
845.957	58.55
846.339	58.55
846.722	58.58
847.104	58.57
847.487	58.56
847.869	58.58
848.252	58.56
848.634	58.54
849.016	58.55
849.398	58.54
849.78	58.55
850.162	58.55
850.544	58.54
850.926	58.54
851.307	58.55
851.689	58.59
852.071	58.59
852.452	58.6
852.834	58.62
853.215	58.62
853.597	58.62
853.978	58.61
854.359	58.63
854.741	58.62
855.122	58.6
855.503	58.6
855.884	58.6
856.265	58.59
856.646	58.6
857.026	58.63
857.407	58.62
857.788	58.62
858.169	58.65
858.549	58.64
858.93	58.66
859.31	58.68
859.69	58.7
860.071	58.71
860.451	58.7
860.831	58.69
861.211	58.64
861.591	58.64
861.971	58.64
862.351	58.63
862.731	58.66
863.111	58.64
863.491	58.62
863.87	58.58
864.25	58.54
864.629	58.55
865.009	58.55
865.388	58.55
865.768	58.57
866.147	58.57
866.526	58.57
866.905	58.57
867.284	58.57
867.663	58.58
868.042	58.6
868.421	58.65
868.8	58.66
869.179	58.65
869.558	58.65
869.936	58.62
870.315	58.62
870.693	58.6
871.072	58.58
871.45	58.59
871.828	58.59
872.207	58.59
872.585	58.58
872.963	58.58
873.341	58.57
873.719	58.56
874.097	58.58
874.475	58.6
874.853	58.6
875.23	58.63
875.608	58.61
875.986	58.64
876.363	58.63
876.741	58.62
877.118	58.62
877.495	58.63
877.873	58.69
878.25	58.7
878.627	58.69
879.004	58.7
879.381	58.69
879.758	58.7
880.135	58.69
880.512	58.68
880.889	58.7
881.265	58.68
881.642	58.68
882.019	58.65
882.395	58.59
882.772	58.59
883.148	58.57
883.524	58.55
883.901	58.52
884.277	58.48
884.653	58.48
885.029	58.45
885.405	58.43
885.781	58.41
886.157	58.4
886.532	58.42
886.908	58.39
887.284	58.39
887.659	58.34
888.035	58.31
888.411	58.3
888.786	58.29
889.161	58.27
889.537	58.25
889.912	58.22
890.287	58.21
890.662	58.18
891.037	58.19
891.412	58.15
891.787	58.16
892.162	58.16
892.536	58.15
892.911	58.13
893.286	58.13
893.66	58.09
894.035	58.08
894.409	58.06
894.784	58.04
895.158	58.01
895.532	58.04
895.906	58.03
896.281	58.03
896.655	58.02
897.029	58
897.402	57.98
897.776	58.01
898.15	58.03
898.524	58.06
898.898	58.06
899.271	58.08
899.645	58.07
900.018	58.1
900.392	58.1
900.765	58.14
901.138	58.16
901.511	58.18
901.884	58.21
902.258	58.2
902.631	58.21
903.003	58.22
903.376	58.23
903.749	58.23
904.122	58.25
904.495	58.26
904.867	58.28
905.24	58.31
905.612	58.35
905.985	58.34
906.357	58.34
906.729	58.36
907.102	58.39
907.474	58.42
907.846	58.42
908.218	58.42
908.59	58.43
908.962	58.44
909.334	58.44
909.705	58.42
910.077	58.44
910.449	58.47
910.82	58.48
911.192	58.46
911.563	58.45
911.935	58.46
912.306	58.51
912.677	58.56
913.048	58.55
913.419	58.52
913.79	58.52
914.161	58.54
914.532	58.53
914.903	58.54
915.274	58.54
915.645	58.55
916.015	58.54
916.386	58.52
916.756	58.47
917.127	58.5
917.497	58.55
917.868	58.58
918.238	58.58
918.608	58.61
918.978	58.62
919.348	58.69
919.718	58.66
920.088	58.68
920.458	58.69
920.828	58.71
921.198	58.7
921.567	58.68
921.937	58.69
922.306	58.67
922.676	58.68
923.045	58.63
923.415	58.59
923.784	58.6
924.153	58.63
924.522	58.66
924.891	58.65
925.26	58.64
925.629	58.64
925.998	58.63
926.367	58.65
926.736	58.65
927.104	58.68
927.473	58.69
927.842	58.66
928.21	58.64
928.578	58.58
928.947	58.62
929.315	58.59
929.683	58.61
930.051	58.57
930.42	58.53
930.788	58.48
931.156	58.44
931.523	58.39
931.891	58.39
932.259	58.37
932.627	58.35
932.994	58.26
933.362	58.21
933.729	58.15
934.097	58.15
934.464	58.14
934.831	58.07
935.199	58.08
935.566	58.05
935.933	58.06
936.3	58.04
936.667	58.02
937.034	58.09
937.401	58.12
937.767	58.12
938.134	58.13
938.501	58.16
938.867	58.27
939.234	58.29
939.6	58.43
939.967	58.47
940.333	58.52
940.699	58.57
941.065	58.53
941.431	58.58
941.798	58.61
942.163	58.69
942.529	58.75
942.895	58.77
943.261	58.82
943.627	58.81
943.992	58.86
944.358	58.89
944.723	58.98
945.089	59.04
945.454	59.12
945.82	59.19
946.185	59.18
946.55	59.12
946.915	59.16
947.28	59.15
947.645	59.14
948.01	59.13
948.375	59.14
948.74	59.06
949.104	59.07
949.469	58.97
949.834	58.88
950.198	58.88
950.562	58.89
950.927	58.81
951.291	58.73
951.655	58.64
952.02	58.56
952.384	58.45
952.748	58.4
953.112	58.37
953.476	58.34
953.839	58.23
954.203	58.18
954.567	58.1
954.931	58.04
955.294	57.97
955.658	58
956.021	57.96
956.385	57.95
956.748	57.9
957.111	57.86
957.474	57.88
957.837	57.9
958.2	57.89
958.563	57.91
958.926	57.95
959.289	57.99
959.652	57.96
960.015	57.96
960.377	57.96
960.74	58.03
961.102	58
961.465	58.01
961.827	57.99
962.189	57.98
962.552	57.98
962.914	57.99
963.276	58.01
963.638	58.02
964	58.06
964.362	58.09
964.724	58.02
965.085	57.99
965.447	57.93
965.809	57.93
966.17	57.94
966.532	57.97
966.893	57.94
967.255	57.93
967.616	57.88
967.977	57.88
968.338	57.89
968.699	57.94
969.061	57.96
969.421	58.03
969.782	58.07
970.143	58.04
970.504	57.98
970.865	57.99
971.225	57.96
971.586	57.99
971.946	57.96
972.307	57.88
972.667	57.86
973.027	57.88
973.388	57.86
973.748	57.88
974.108	57.96
974.468	57.94
974.828	57.97
975.188	57.99
975.548	58.06
975.907	58.1
976.267	58.17
976.627	58.17
976.986	58.16
977.346	58.12
977.705	58.11
978.064	58.1
978.424	58.13
978.783	58.03
979.142	57.99
979.501	57.94
979.86	57.93
980.219	57.96
980.578	58
980.937	57.97
981.296	58.02
981.654	58.07
982.013	58.08
982.371	58.12
982.73	58.21
983.088	58.24
983.447	58.21
983.805	58.21
984.163	58.19
984.521	58.17
984.879	58.13
985.237	58.15
985.595	58.09
985.953	58.11
986.311	58.18
986.669	58.19
987.026	58.23
987.384	58.34
987.741	58.33
988.099	58.42
988.456	58.41
988.814	58.53
989.171	58.46
989.528	58.53
989.885	58.47
990.242	58.43
990.599	58.48
990.956	58.52
991.313	58.56
991.67	58.61
992.027	58.66
992.383	58.83
992.74	58.99
993.096	59.07
993.453	59.08
993.809	59.17
994.165	59.25
994.522	59.25
994.878	59.29
995.234	59.29
995.59	59.27
995.946	59.28
996.302	59.31
996.658	59.14
997.013	59.21
997.369	59.24
997.725	59.24
998.08	59.35
998.436	59.47
998.791	59.52
999.147	59.49
999.502	59.48
999.857	59.52
1000.212	59.48
1000.567	59.66
1000.922	59.73
1001.277	59.84
1001.632	59.83
1001.987	59.77
1002.342	59.69
1002.696	59.75
1003.051	59.9
1003.406	60.13
1003.76	60.07
1004.114	60.1
1004.469	60.22
1004.823	60.51
1005.177	60.56
1005.531	60.72
1005.885	60.79
1006.239	60.77
1006.593	60.77
1006.947	60.78
1007.301	60.65
1007.655	60.82
1008.008	61.03
1008.362	60.94
1008.715	60.84
1009.069	60.89
1009.422	60.88
1009.776	60.96
1010.129	61.22
1010.482	61.39
1010.835	61.59
1011.188	61.62
1011.541	61.63
1011.894	61.47
1012.247	61.57
1012.6	61.58
1012.952	61.63
1013.305	61.72
1013.657	61.7
1014.01	61.8
1014.362	61.83
1014.715	61.81
1015.067	62.06
1015.419	62.29
1015.771	62.49
1016.123	62.55
1016.475	62.55
1016.827	62.55
1017.179	62.72
1017.531	62.9
1017.883	62.82
1018.234	62.98
1018.586	63.1
1018.938	63.41
1019.289	63.38
1019.64	63.28
1019.992	63.26
1020.343	63.38
1020.694	63.64
1021.045	63.58
1021.396	63.61
1021.747	63.86
1022.098	63.88
1022.449	63.84
1022.8	63.74
1023.151	63.7
1023.501	63.76
1023.852	64.08
1024.202	64.1
1024.553	64.14
1024.903	64.36
1025.253	64.49
1025.604	64.47
1025.954	64.25
1026.304	64.65
1026.654	64.61
1027.004	64.73
1027.354	65.09
1027.703	65.03
1028.053	65.29
1028.403	65.41
1028.753	65.41
1029.102	65.66
1029.452	65.98
1029.801	66.47
1030.15	66.31
1030.499	66.52
897.758	959.32
901.051	961.29
904.343	966.1
907.636	980.41
910.928	954.57
914.22	952.65
917.511	939.24
920.803	898.83
924.094	895.71
927.384	873.94
930.675	840.99
933.965	837.82
937.255	788.87
940.544	754.54
943.834	721.61
947.123	715.35
950.411	675.28
953.7	662.68
956.988	627.28
960.276	603.95
963.563	596.51
966.851	574.64
970.138	568.35
973.424	553.68
976.711	555.89
979.997	528.72
983.283	527
986.568	517.06
989.853	500.47
993.138	491.92
996.423	474.64
999.708	460.04
1002.992	454.94
1006.275	435.71
1009.559	433.6
1012.842	417.21
1016.125	407.67
1019.408	399.28
1022.69	395.8
1025.972	387.26
1029.254	379.03
1032.536	371.2
1035.817	367.14
1039.098	362.48
1042.379	357.11
1045.659	351.31
1048.939	344.72
1052.219	336.89
1055.498	333.89
1058.778	325.1
1062.057	319.44
1065.335	316.63
1068.614	314.47
1071.892	309.47
1075.17	300.21
1078.447	294.91
1081.724	293.41
1085.001	291.01
1088.278	286.07
1091.554	280
1094.83	281.18
1098.106	279.42
1101.382	276.41
1104.657	273.55
1107.932	270.02
1111.206	272.37
1114.481	265.7
1117.755	263.73
1121.029	261.89
1124.302	261.43
1127.575	257.37
1130.848	254
1134.121	251.4
1137.393	250.69
1140.665	246.03
1143.937	244.04
1147.208	241.69
1150.48	241.3
1153.75	237.27
1157.021	234.02
1160.291	234.85
1163.561	231.56
1166.831	230.75
1170.101	229.31
1173.37	229.12
1176.639	229.5
1179.907	228.06
1183.176	225.85
1186.444	225.6
1189.711	225.92
1192.979	225.59
1196.246	223.34
1199.513	224.85
1202.78	223.95
1206.046	224.17
1209.312	221.06
1212.578	221.38
1215.843	221.93
1219.108	222.2
1222.373	225.81
1225.638	227.1
1228.902	229.87
1232.166	229.6
1235.43	230.04
1238.693	232.96
1241.956	234.09
1245.219	238.34
1248.482	238
1251.744	238.63
1255.006	238.41
1258.268	233.32
1261.529	231.66
1264.79	230.82
1268.051	229.44
1271.312	227.89
1274.572	225.55
1277.832	222.98
1281.092	219.63
1284.351	218.59
1287.61	218.82
1290.869	215.42
1294.128	214.44
1297.386	213.34
1300.644	211.06
1303.902	212.72
1307.159	212.33
1310.416	211.89
1313.673	211.54
1316.93	213.64
1320.186	213.44
1323.442	213.6
1326.697	216.28
1329.953	217.64
1333.208	218.47
1336.463	221.73
1339.717	221.62
1342.972	223.09
1346.226	225.4
1349.479	226.43
1352.733	226.76
1355.986	227.77
1359.238	227.3
1362.491	228.63
1365.743	230.88
1368.995	231.38
1372.247	228.82
1375.498	229.31
1378.749	229.88
1382	227.02
1385.251	227.49
1388.501	226.03
1391.751	225.85
1395	224.83
1398.25	223.13
1401.499	220.02
1404.748	219.41
1407.996	217.38
1411.244	216
1414.492	215.1
1417.74	211.61
1420.987	208.74
1424.234	208.28
1427.481	206.16
1430.728	206.62
1433.974	203.64
1437.22	201.92
1440.465	201.41
1443.711	200.25
1446.956	198.75
1450.201	196.47
1453.445	196.03
1456.689	194.86
1459.933	192.08
1463.177	190.39
1466.42	187.42
1469.663	186.34
1472.906	185.46
1476.148	180.74
1479.391	178.61
1482.633	177.58
1485.874	175.43
1489.115	174.2
1492.356	172.37
1495.597	172.54
1498.838	170.59
1502.078	169.6
1505.318	169.07
1508.557	169.54
1511.797	169.9
1515.036	169.12
1518.274	168
1521.513	167
1524.751	166.94
1527.989	166.7
1531.227	165.72
1534.464	166.19
1537.701	165.83
1540.938	165.32
1544.174	162.89
1547.41	163.34
1550.646	162.93
1553.882	163.06
1557.117	161.74
1560.352	160.74
1563.587	161.02
1566.821	159.79
1570.055	159.19
1573.289	157.4
1576.523	157.58
1579.756	157.03
1582.989	156.02
1586.222	155.81
1589.454	155.8
1592.686	156.16
1595.918	155.91
1599.15	155.16
1602.381	155.7
1605.612	154.96
1608.843	155.84
1612.073	155.67
1615.303	156.3
1618.533	156.45
1621.762	156.7
1624.992	156.64
1628.221	156.81
1631.449	156.34
1634.678	156.31
1637.906	156.96
1641.134	156.61
1644.361	156.23
1647.588	156.75
1650.815	156.34
1654.042	155.48
1657.269	156.09
1660.495	155.76
1663.72	155.14
1666.946	156.02
1670.171	156.54
1673.396	156.02
1676.621	156.08
1679.845	156.97
1683.069	156.82
1686.293	157.47
1689.517	158.2
1692.74	157.92
1695.963	158.62
1699.185	160.16
1702.408	159.97
1705.63	160.02
1708.852	160.62
1712.073	161.28
1715.294	161
1718.515	161.98
1721.736	161.91
1724.956	162.53
1728.176	162.49
1731.396	163.05
1734.616	162.69
1737.835	163.68
1741.054	162.41
1744.272	162.73
1747.491	163.71
1750.709	164.12
1753.927	163.75
1757.144	163.42
1760.361	163.66
1763.578	164.19
1766.795	164.12
1770.011	165.58
1773.227	164.96
1776.443	167.05
1779.658	167.63
1782.874	167.08
1786.089	167.23
1789.303	167.57
1792.518	169.06
1795.732	169.09
1798.945	169.97
1802.159	170.22
1805.372	169.72
1808.585	172.58
1811.797	172.94
1815.01	173.55
1818.222	175.08
1821.434	177.14
1824.645	177.46
1827.856	180.4
1831.067	181.6
1834.278	181.5
1837.488	182.9
1840.698	184.36
1843.908	182.94
1847.117	183.45
1850.326	184.36
1853.535	182.77
1856.744	184.55
1859.952	184.12
1863.16	182.47
1866.368	181.4
1869.575	181.76
1872.782	178.35
1875.989	176.88
1879.196	175.88
1882.402	174.22
1885.608	173.48
1888.814	173.25
1892.019	171.91
1895.224	170.9
1898.429	169.5
1901.634	169.3
1904.838	168.94
1908.042	170.26
1911.246	170.51
1914.449	170.5
1917.652	170.8
1920.855	170.02
1924.058	170.78
1927.26	169.16
1930.462	169.64
1933.664	171.71
1936.865	170.09
1940.066	169.95
1943.267	168.85
1946.467	169.05
1949.668	169.37
1952.868	171.48
1956.067	172.65
1959.267	171.55
1962.466	172.39
1965.665	171.77
1968.863	172.69
1972.061	176.59
1975.259	178.22
1978.457	178.97
1981.654	180.58
1984.852	181.79
1988.048	181.03
1991.245	182.46
1994.441	185.36
1997.637	187.61
2000.833	191.34
2004.028	193.41
2007.223	193.51
2010.418	195.13
2013.613	199.61
2016.807	201.28
2020.001	203.4
2023.194	206.6
2026.388	212.42
2029.581	217.03
2032.774	218.01
2035.966	221.98
2039.158	222.41
2042.35	226.8
2045.542	228.99
2048.733	232.29
2051.924	235.33
2055.115	239.1
2058.306	239.73
2061.496	240.05
2064.686	241.77
2067.875	245.8
2071.065	247.41
2074.254	245.04
2077.442	249.45
2080.631	249.92
2083.819	252.34
2087.007	252.82
2090.195	256.34
2093.382	258.51
2096.569	257.55
2099.756	260.42
2102.942	261.24
2106.128	262.9
2109.314	271.15
2112.5	269.19
2115.685	274.63
2118.87	274.98
2122.055	281.09
2125.239	281.76
2128.424	284.94
2131.608	286.89
2134.791	291.49
2137.974	292.36
2141.157	293.6
2144.34	292.73
2147.523	297.49
2150.705	296.59
2153.887	299.87
2157.068	299.69
2160.25	297.05
2163.431	299.84
2166.611	302.77
2169.792	308.17
2172.972	311.56
2176.152	313.75
2179.331	318.04
2182.511	321.82
2185.69	325.42
2188.868	332.38
2192.047	332.44
2195.225	343.41
2198.403	350.05
2201.58	355.42
2204.758	361.55
2207.935	368.53
2211.111	376.5
2214.288	380.12
2217.464	381.18
2220.64	387.18
2223.815	390.47
2226.991	406.82
2230.166	406.28
2233.34	413
2236.515	422.3
2239.689	422.84
2242.863	426.07
2246.036	434.13
2249.209	431.44
2252.382	440.49
2255.555	451.13
2258.727	454.35
2261.9	456.85
2265.071	461.18
2268.243	468.11
2271.414	473.12
2274.585	481.2
2277.756	484.37
2280.926	490.7
2284.096	502.34
2287.266	511.49
2290.436	518.05
2293.605	527.62
2296.774	543.41
2299.942	559.14
2303.111	563.95
2306.279	575.08
2309.447	584.11
2312.614	601.26
2315.781	615.54
2318.948	644.41
2322.115	633.96
2325.281	667.67
2328.447	654.82
2331.613	678.12
2334.779	672.86
2337.944	697.62
2341.109	706.7
2344.274	724.29
2347.438	746.91
2350.602	751.14
2353.766	769.35
2356.929	784.49
2360.092	776.44
2363.255	831.88
2366.418	831.46
2369.58	847.52
2372.742	900.81
2375.904	922.64
2379.066	917.51
2382.227	902.33
2385.388	970.95
2388.548	975.44
2391.709	984.29
2394.869	1093.89
2398.029	1052.38
2401.188	1082.34
2404.347	1076.26
2407.506	1058.43
2410.665	1086.07
2413.823	1148.33
2416.981	1212.95
2420.139	1180.38
2423.296	1161.63
2426.453	1219.45
2429.61	1175.24
2432.767	1222.2
2435.923	1210.26
2439.079	1326.13
2442.235	1346.3
2445.391	1334.32
2448.546	1323.51
2451.701	1288.02
2454.855	1280.76
2458.009	1371.02
2461.163	1416.1
2464.317	1464.55
2467.471	1500.42
2470.624	1503.07
2473.777	1459.83
2476.929	1420.28
2480.082	1380.05
2483.234	1371.33
2486.385	1438.44
2489.537	1447.07
2492.688	1495.69
2495.839	1460.62
2498.989	1429.3
2502.14	1435.63
2505.29	1448.72
2508.439	1467.81
2511.589	1465.32
2514.738	1602.87
2517.887	1563.14
2521.035	1649.39
2524.183	1663.92
2527.331	1667.28
2530.479	1652.58
2533.627	1668.89
