Data from N_3_DEC_ON_6N_Splice17_14-25-32-770.txt Node
Date: Sat Mar 07 14:25:32 EST 2020
User: sa697716
Spectrometer: NQ5500242
Trigger mode: 0
Integration Time (sec): 1.450000E-1
Scans to average: 20
Nonlinearity correction enabled: false
Boxcar width: 5
Storing dark spectrum: false
XAxis mode: Wavelengths
Number of Pixels in Spectrum: 512
>>>>>Begin Spectral Data<<<<<
187.83	187.26
188.298	193.33
188.766	183.46
189.233	151.33
189.701	149.78
190.169	162.48
190.636	170.7
191.104	205.27
191.571	-63.4
192.039	-96.2
192.506	-242.57
192.974	217.6
193.441	254
193.908	186.87
194.375	83.52
194.842	34.21
195.31	38.9
195.777	-87.37
196.244	52.29
196.711	63.52
197.177	68.06
197.644	69.32
198.111	69.61
198.578	70.42
199.045	70.41
199.511	70.78
199.978	70.79
200.445	70.8
200.911	71.08
201.378	71.41
201.844	71.74
202.31	71.46
202.777	71.36
203.243	71.22
203.709	70.74
204.176	70.23
204.642	69.88
205.108	69.56
205.574	69.07
206.04	68.38
206.506	67.49
206.972	66.8
207.438	66.11
207.903	65.04
208.369	63.75
208.835	62.35
209.301	60.91
209.766	59.1
210.232	57.43
210.697	55.97
211.163	54.53
211.628	53.32
212.094	51.7
212.559	50.38
213.024	49.31
213.49	48.13
213.955	46.98
214.42	45.88
214.885	44.63
215.35	43.01
215.815	40.8
216.28	37.92
216.745	34.66
217.21	31.55
217.675	28.69
218.14	26.08
218.604	23.85
219.069	22.07
219.534	20.52
219.998	19.23
220.463	18.17
220.927	17.19
221.392	16.44
221.856	15.87
222.32	15.36
222.785	14.92
223.249	14.56
223.713	14.21
224.177	13.87
224.642	13.57
225.106	13.26
225.57	12.98
226.034	12.75
226.497	12.53
226.961	12.32
227.425	12.12
227.889	11.91
228.353	11.7
228.816	11.51
229.28	11.32
229.744	11.16
230.207	11.02
230.671	10.87
231.134	10.71
231.597	10.59
232.061	10.44
232.524	10.31
232.987	10.18
233.45	10.06
233.914	9.94
234.377	9.84
234.84	9.74
235.303	9.65
235.766	9.56
236.229	9.47
236.691	9.38
237.154	9.31
237.617	9.24
238.08	9.16
238.542	9.07
239.005	9.02
239.468	8.95
239.93	8.87
240.393	8.81
240.855	8.71
241.317	8.65
241.78	8.56
242.242	8.47
242.704	8.39
243.166	8.33
243.629	8.28
244.091	8.19
244.553	8.12
245.015	8.06
245.477	7.99
245.939	7.93
246.4	7.87
246.862	7.82
247.324	7.77
247.786	7.72
248.247	7.65
248.709	7.59
249.17	7.53
249.632	7.49
250.093	7.44
250.555	7.39
251.016	7.35
251.477	7.3
251.939	7.26
252.4	7.22
252.861	7.17
253.322	7.15
253.783	7.11
254.244	7.09
254.705	7.04
255.166	7.01
255.627	6.97
256.088	6.94
256.549	6.91
257.009	6.88
257.47	6.84
257.931	6.81
258.391	6.77
258.852	6.73
259.312	6.69
259.773	6.65
260.233	6.63
260.694	6.59
261.154	6.55
261.614	6.52
262.074	6.48
262.534	6.45
262.994	6.43
263.455	6.4
263.915	6.38
264.374	6.36
264.834	6.35
265.294	6.32
265.754	6.31
266.214	6.3
266.673	6.29
267.133	6.28
267.593	6.27
268.052	6.26
268.512	6.24
268.971	6.24
269.431	6.23
269.89	6.22
270.349	6.22
270.809	6.21
271.268	6.2
271.727	6.19
272.186	6.18
272.645	6.17
273.104	6.16
273.563	6.16
274.022	6.15
274.481	6.15
274.94	6.14
275.399	6.13
275.857	6.13
276.316	6.12
276.775	6.11
277.233	6.11
277.692	6.1
278.15	6.09
278.609	6.09
279.067	6.08
279.525	6.07
279.984	6.07
280.442	6.06
280.9	6.06
281.358	6.06
281.816	6.06
282.274	6.06
282.732	6.06
283.19	6.05
283.648	6.05
284.106	6.04
284.564	6.04
285.021	6.05
285.479	6.05
285.937	6.05
286.394	6.05
286.852	6.04
287.309	6.04
287.767	6.03
288.224	6.02
288.682	6.01
289.139	6
289.596	5.98
290.053	5.97
290.511	5.95
290.968	5.94
291.425	5.92
291.882	5.91
292.339	5.89
292.796	5.88
293.252	5.87
293.709	5.86
294.166	5.86
294.623	5.85
295.079	5.84
295.536	5.83
295.992	5.82
296.449	5.82
296.905	5.81
297.362	5.81
297.818	5.8
298.274	5.79
298.731	5.78
299.187	5.77
299.643	5.77
300.099	5.78
300.555	5.78
301.011	5.77
301.467	5.77
301.923	5.76
302.379	5.76
302.835	5.77
303.291	5.77
303.746	5.77
304.202	5.77
304.658	5.77
305.113	5.76
305.569	5.76
306.024	5.77
306.479	5.77
306.935	5.77
307.39	5.77
307.845	5.77
308.301	5.78
308.756	5.78
309.211	5.78
309.666	5.8
310.121	5.8
310.576	5.81
311.031	5.8
311.486	5.81
311.94	5.82
312.395	5.82
312.85	5.83
313.305	5.83
313.759	5.83
314.214	5.83
314.668	5.82
315.123	5.81
315.577	5.8
316.032	5.8
316.486	5.8
316.94	5.79
317.394	5.78
317.849	5.77
318.303	5.76
318.757	5.74
319.211	5.73
319.665	5.72
320.119	5.72
320.572	5.72
321.026	5.71
321.48	5.69
321.934	5.68
322.387	5.68
322.841	5.67
323.295	5.67
323.748	5.68
324.202	5.68
324.655	5.68
325.108	5.68
325.562	5.68
326.015	5.67
326.468	5.67
326.921	5.67
327.374	5.67
327.827	5.66
328.28	5.66
328.733	5.65
329.186	5.65
329.639	5.64
330.092	5.64
330.545	5.64
330.997	5.65
331.45	5.66
331.903	5.67
332.355	5.69
332.808	5.69
333.26	5.7
333.713	5.71
334.165	5.72
334.617	5.74
335.069	5.73
335.522	5.74
335.974	5.75
336.426	5.75
336.878	5.75
337.33	5.75
337.782	5.76
338.234	5.76
338.686	5.75
339.137	5.75
339.589	5.73
340.041	5.74
340.493	5.73
340.944	5.71
341.396	5.7
341.847	5.68
342.299	5.66
342.75	5.64
343.201	5.62
343.653	5.6
344.104	5.58
344.555	5.57
345.006	5.55
345.457	5.54
345.908	5.53
346.359	5.52
346.81	5.51
347.261	5.51
347.712	5.51
348.163	5.51
348.613	5.51
349.064	5.51
349.515	5.51
349.965	5.51
350.416	5.5
350.866	5.5
351.317	5.5
351.767	5.5
352.217	5.49
352.668	5.48
353.118	5.49
353.568	5.48
354.018	5.49
354.468	5.5
354.918	5.51
355.368	5.52
355.818	5.53
356.268	5.53
356.718	5.54
357.168	5.54
357.617	5.55
358.067	5.55
358.517	5.56
358.966	5.56
359.416	5.55
359.865	5.55
360.315	5.56
360.764	5.57
361.213	5.57
361.663	5.58
362.112	5.6
362.561	5.61
363.01	5.62
363.459	5.63
363.908	5.64
364.357	5.65
364.806	5.66
365.255	5.67
365.703	5.69
366.152	5.72
366.601	5.73
367.05	5.76
367.498	5.77
367.947	5.79
368.395	5.82
368.844	5.84
369.292	5.88
369.74	5.91
370.189	5.94
370.637	5.97
371.085	6
371.533	6.04
371.981	6.07
372.429	6.11
372.877	6.16
373.325	6.21
373.773	6.26
374.221	6.31
374.669	6.37
375.116	6.43
375.564	6.49
376.012	6.55
376.459	6.61
376.907	6.68
377.354	6.77
377.801	6.85
378.249	6.93
378.696	7.01
379.143	7.11
379.591	7.19
380.038	7.28
380.485	7.36
380.932	7.45
381.379	7.54
381.826	7.64
382.273	7.73
382.72	7.8
383.166	7.9
383.613	7.98
384.06	8.06
384.506	8.15
384.953	8.24
385.4	8.34
385.846	8.43
386.292	8.52
386.739	8.61
387.185	8.69
387.631	8.78
388.078	8.87
388.524	8.96
388.97	9.04
389.416	9.12
389.862	9.2
390.308	9.29
390.754	9.37
391.2	9.45
391.645	9.52
392.091	9.61
392.537	9.68
392.983	9.75
393.428	9.82
393.874	9.89
394.319	9.95
394.765	10
395.21	10.03
395.655	10.07
396.101	10.12
396.546	10.15
396.991	10.18
397.436	10.21
397.881	10.25
398.326	10.29
398.771	10.32
399.216	10.36
399.661	10.4
400.106	10.42
400.551	10.45
400.995	10.44
401.44	10.45
401.885	10.45
402.329	10.45
402.774	10.45
403.218	10.47
403.663	10.48
404.107	10.49
404.551	10.49
404.995	10.49
405.44	10.47
405.884	10.48
406.328	10.49
406.772	10.49
407.216	10.5
407.66	10.5
408.104	10.48
408.547	10.47
408.991	10.46
409.435	10.44
409.879	10.44
410.322	10.44
410.766	10.43
411.209	10.44
411.653	10.45
412.096	10.44
412.54	10.43
412.983	10.43
413.426	10.45
413.869	10.47
414.312	10.49
414.756	10.5
415.199	10.51
415.642	10.52
416.085	10.52
416.527	10.51
416.97	10.49
417.413	10.48
417.856	10.47
418.298	10.44
418.741	10.41
419.184	10.38
419.626	10.38
420.069	10.37
420.511	10.35
420.953	10.32
421.396	10.32
421.838	10.32
422.28	10.31
422.722	10.32
423.164	10.31
423.606	10.3
424.048	10.3
424.49	10.29
424.932	10.29
425.374	10.27
425.816	10.24
426.258	10.21
426.699	10.16
427.141	10.14
427.582	10.12
428.024	10.12
428.465	10.12
428.907	10.1
429.348	10.08
429.789	10.04
430.231	10.05
430.672	10.06
431.113	10.07
431.554	10.1
431.995	10.12
432.436	10.12
432.877	10.12
433.318	10.12
433.759	10.13
434.2	10.15
434.64	10.17
435.081	10.19
435.522	10.21
435.962	10.23
436.403	10.26
436.843	10.29
437.284	10.3
437.724	10.32
438.164	10.34
438.604	10.36
439.045	10.38
439.485	10.4
439.925	10.41
440.365	10.42
440.805	10.43
441.245	10.47
441.685	10.5
442.125	10.55
442.564	10.58
443.004	10.61
443.444	10.66
443.883	10.7
444.323	10.74
444.762	10.79
445.202	10.85
445.641	10.9
446.081	10.95
446.52	11
446.959	11.06
447.398	11.09
447.837	11.15
448.276	11.19
448.716	11.25
449.154	11.31
449.593	11.36
450.032	11.4
450.471	11.43
450.91	11.43
451.349	11.47
451.787	11.47
452.226	11.49
452.664	11.51
453.103	11.51
453.541	11.51
453.98	11.51
454.418	11.49
454.856	11.48
455.295	11.48
455.733	11.46
456.171	11.44
456.609	11.43
457.047	11.41
457.485	11.38
457.923	11.37
458.361	11.36
458.798	11.35
459.236	11.33
459.674	11.32
460.111	11.3
460.549	11.3
460.987	11.29
461.424	11.28
461.862	11.28
462.299	11.28
462.736	11.29
463.173	11.28
463.611	11.26
464.048	11.26
464.485	11.27
464.922	11.27
465.359	11.28
465.796	11.28
466.233	11.3
466.67	11.3
467.106	11.3
467.543	11.29
467.98	11.29
468.416	11.31
468.853	11.33
469.29	11.33
469.726	11.34
470.162	11.36
470.599	11.38
471.035	11.38
471.471	11.39
471.907	11.39
472.344	11.4
472.78	11.43
473.216	11.42
473.652	11.44
474.088	11.44
474.523	11.44
474.959	11.44
475.395	11.44
475.831	11.45
476.266	11.46
476.702	11.48
477.138	11.48
477.573	11.46
478.008	11.47
478.444	11.44
478.879	11.45
479.314	11.45
479.75	11.45
480.185	11.43
480.62	11.42
481.055	11.4
481.49	11.39
481.925	11.4
482.36	11.41
482.795	11.4
483.229	11.42
483.664	11.43
484.099	11.43
484.534	11.43
484.968	11.46
485.403	11.48
485.837	11.49
486.271	11.52
486.706	11.55
487.14	11.57
487.574	11.61
488.009	11.65
488.443	11.69
488.877	11.75
489.311	11.8
489.745	11.86
490.179	11.92
490.613	12
491.046	12.07
491.48	12.14
491.914	12.22
492.348	12.31
492.781	12.4
493.215	12.49
493.648	12.58
494.082	12.67
494.515	12.77
494.948	12.89
495.382	13
495.815	13.11
496.248	13.24
496.681	13.37
497.114	13.5
497.547	13.62
497.98	13.76
498.413	13.91
498.846	14.06
499.279	14.2
499.711	14.36
500.144	14.52
500.577	14.67
501.009	14.83
501.442	14.99
501.874	15.17
502.306	15.35
502.739	15.55
503.171	15.74
503.603	15.93
504.036	16.14
504.468	16.33
504.9	16.53
505.332	16.74
505.764	16.97
506.196	17.18
506.627	17.41
507.059	17.63
507.491	17.85
507.923	18.08
508.354	18.33
508.786	18.58
509.217	18.83
509.649	19.09
510.08	19.35
510.512	19.6
510.943	19.87
511.374	20.13
511.805	20.4
512.237	20.67
512.668	20.94
513.099	21.21
513.53	21.47
513.961	21.74
514.391	22.01
514.822	22.28
515.253	22.54
515.684	22.8
516.114	23.05
516.545	23.3
516.975	23.55
517.406	23.79
517.836	24.03
518.267	24.27
518.697	24.5
519.127	24.72
519.558	24.96
519.988	25.19
520.418	25.42
520.848	25.65
521.278	25.88
521.708	26.18
522.138	26.4
522.567	26.6
522.997	26.79
523.427	26.99
523.857	27.18
524.286	27.35
524.716	27.52
525.145	27.7
525.575	27.87
526.004	28.03
526.433	28.09
526.863	28.23
527.292	28.38
527.721	28.51
528.15	28.62
528.579	28.75
529.008	28.87
529.437	28.97
529.866	29.06
530.295	29.15
530.724	29.24
531.152	29.32
531.581	29.4
532.01	29.47
532.438	29.56
532.867	29.65
533.295	29.72
533.723	29.77
534.152	29.83
534.58	29.89
535.008	29.93
535.436	30
535.865	30.04
536.293	30.07
536.721	30.1
537.149	30.15
537.576	30.17
538.004	30.21
538.432	30.24
538.86	30.28
539.287	30.29
539.715	30.32
540.143	30.33
540.57	30.37
540.998	30.37
541.425	30.4
541.852	30.43
542.28	30.45
542.707	30.46
543.134	30.49
543.561	30.52
543.988	30.57
544.415	30.58
544.842	30.62
545.269	30.64
545.696	30.67
546.123	30.69
546.549	30.72
546.976	30.75
547.403	30.78
547.829	30.81
548.256	30.81
548.682	30.83
549.108	30.86
549.535	30.87
549.961	30.88
550.387	30.9
550.813	30.92
551.24	30.93
551.666	30.94
552.092	30.95
552.518	30.97
552.943	30.98
553.369	30.97
553.795	30.95
554.221	30.95
554.646	30.93
555.072	30.92
555.498	30.9
555.923	30.88
556.349	30.84
556.774	30.81
557.199	30.76
557.625	30.7
558.05	30.69
558.475	30.67
558.9	30.64
559.325	30.61
559.75	30.55
560.175	30.51
560.6	30.45
561.025	30.41
561.449	30.35
561.874	30.29
562.299	30.23
562.723	30.14
563.148	30.04
563.572	29.93
563.997	29.83
564.421	29.74
564.846	29.64
565.27	29.53
565.694	29.43
566.118	29.31
566.542	29.19
566.966	29.08
567.39	28.96
567.814	28.84
568.238	28.73
568.662	28.62
569.086	28.49
569.509	28.37
569.933	28.25
570.357	28.12
570.78	28
571.204	27.88
571.627	27.78
572.05	27.67
572.474	27.58
572.897	27.48
573.32	27.38
573.743	27.29
574.166	27.2
574.589	27.12
575.012	27.03
575.435	26.95
575.858	26.87
576.281	26.78
576.704	26.72
577.126	26.65
577.549	26.59
577.972	26.51
578.394	26.44
578.817	26.37
579.239	26.31
579.661	26.25
580.084	26.19
580.506	26.13
580.928	26.08
581.35	26.04
581.772	25.98
582.194	25.91
582.616	25.86
583.038	25.81
583.46	25.75
583.882	25.69
584.303	25.63
584.725	25.59
585.147	25.54
585.568	25.49
585.99	25.42
586.411	25.37
586.833	25.34
587.254	25.28
587.675	25.25
588.096	25.2
588.518	25.17
588.939	25.13
589.36	25.08
589.781	25.05
590.202	25.01
590.623	24.97
591.043	24.93
591.464	24.92
591.885	24.88
592.305	24.85
592.726	24.83
593.147	24.8
593.567	24.76
593.987	24.74
594.408	24.7
594.828	24.67
595.248	24.64
595.669	24.61
596.089	24.57
596.509	24.54
596.929	24.5
597.349	24.45
597.769	24.43
598.189	24.39
598.608	24.35
599.028	24.3
599.448	24.25
599.867	24.21
600.287	24.17
600.706	24.12
601.126	24.07
601.545	24.03
601.965	24
602.384	23.95
602.803	23.89
603.222	23.84
603.641	23.79
604.061	23.76
604.48	23.69
604.898	23.63
605.317	23.57
605.736	23.53
606.155	23.46
606.574	23.39
606.992	23.33
607.411	23.3
607.829	23.21
608.248	23.14
608.666	23.08
609.085	23.02
609.503	22.95
609.921	22.88
610.339	22.82
610.758	22.76
611.176	22.69
611.594	22.63
612.012	22.55
612.43	22.5
612.847	22.45
613.265	22.38
613.683	22.32
614.101	22.27
614.518	22.2
614.936	22.14
615.353	22.06
615.771	22.01
616.188	21.94
616.606	21.9
617.023	21.84
617.44	21.78
617.857	21.73
618.274	21.68
618.691	21.63
619.108	21.59
619.525	21.56
619.942	21.52
620.359	21.47
620.776	21.43
621.192	21.38
621.609	21.36
622.026	21.34
622.442	21.31
622.859	21.3
623.275	21.28
623.691	21.25
624.108	21.22
624.524	21.2
624.94	21.19
625.356	21.18
625.772	21.18
626.188	21.16
626.604	21.14
627.02	21.12
627.436	21.11
627.852	21.09
628.268	21.08
628.683	21.07
629.099	21.05
629.514	21.02
629.93	21
630.345	20.97
630.761	20.91
631.176	20.89
631.591	20.84
632.007	20.78
632.422	20.73
632.837	20.67
633.252	20.59
633.667	20.53
634.082	20.43
634.497	20.35
634.911	20.24
635.326	20.16
635.741	20.05
636.155	19.93
636.57	19.82
636.984	19.7
637.399	19.55
637.813	19.42
638.228	19.27
638.642	19.15
639.056	18.99
639.47	18.86
639.884	18.7
640.298	18.55
640.712	18.4
641.126	18.25
641.54	18.08
641.954	17.94
642.368	17.77
642.781	17.62
643.195	17.47
643.609	17.33
644.022	17.17
644.436	17.04
644.849	16.91
645.262	16.79
645.676	16.67
646.089	16.56
646.502	16.46
646.915	16.38
647.328	16.3
647.741	16.21
648.154	16.13
648.567	16.07
648.98	15.99
649.393	15.94
649.805	15.89
650.218	15.83
650.631	15.79
651.043	15.73
651.456	15.69
651.868	15.63
652.28	15.59
652.693	15.54
653.105	15.48
653.517	15.43
653.929	15.36
654.341	15.29
654.753	15.21
655.165	15.14
655.577	15.07
655.989	14.97
656.401	14.86
656.813	14.78
657.224	14.67
657.636	14.55
658.047	14.44
658.459	14.32
658.87	14.2
659.282	14.08
659.693	13.95
660.104	13.8
660.515	13.68
660.926	13.56
661.338	13.43
661.749	13.3
662.159	13.18
662.57	13.06
662.981	12.95
663.392	12.83
663.803	12.72
664.213	12.6
664.624	12.51
665.035	12.41
665.445	12.31
665.855	12.22
666.266	12.14
666.676	12.08
667.086	11.99
667.497	11.91
667.907	11.84
668.317	11.78
668.727	11.72
669.137	11.67
669.547	11.62
669.956	11.57
670.366	11.54
670.776	11.5
671.186	11.46
671.595	11.44
672.005	11.43
672.414	11.41
672.824	11.4
673.233	11.4
673.642	11.41
674.052	11.41
674.461	11.41
674.87	11.43
675.279	11.44
675.688	11.46
676.097	11.48
676.506	11.52
676.915	11.56
677.323	11.61
677.732	11.67
678.141	11.73
678.549	11.81
678.958	11.9
679.366	12.02
679.775	12.13
680.183	12.27
680.592	12.42
681	12.6
681.408	12.79
681.816	13
682.224	13.24
682.632	13.5
683.04	13.77
683.448	14.07
683.856	14.36
684.264	14.72
684.671	15.07
685.079	15.45
685.487	15.85
685.894	16.27
686.302	16.71
686.709	17.15
687.116	17.61
687.524	18.1
687.931	18.61
688.338	19.12
688.745	19.63
689.152	20.17
689.559	20.72
689.966	21.27
690.373	21.83
690.78	22.37
691.187	22.91
691.593	23.47
692	24
692.407	24.51
692.813	25.04
693.22	25.55
693.626	26.06
694.032	26.56
694.439	27.05
694.845	27.51
695.251	27.99
695.657	28.44
696.063	28.88
696.469	29.35
696.875	29.78
697.281	30.2
697.687	30.63
698.093	31.02
698.498	31.39
698.904	31.75
699.31	32.11
699.715	32.46
700.12	32.81
700.526	33.13
700.931	33.43
701.337	33.73
701.742	34.01
702.147	34.31
702.552	34.59
702.957	34.86
703.362	35.11
703.767	35.37
704.172	35.6
704.577	35.84
704.981	36.07
705.386	36.3
705.791	36.53
706.195	36.77
706.6	36.99
707.004	37.2
707.408	37.4
707.813	37.63
708.217	37.82
708.621	38.04
709.025	38.21
709.43	38.39
709.834	38.56
710.237	38.72
710.641	38.87
711.045	39.01
711.449	39.18
711.853	39.37
712.256	39.5
712.66	39.65
713.064	39.77
713.467	39.92
713.87	40.07
714.274	40.2
714.677	40.35
715.08	40.46
715.484	40.61
715.887	40.73
716.29	40.83
716.693	40.99
717.096	41.08
717.499	41.22
717.901	41.33
718.304	41.45
718.707	41.55
719.109	41.68
719.512	41.79
719.915	41.89
720.317	41.97
720.719	42.01
721.122	42.08
721.524	42.16
721.926	42.26
722.328	42.36
722.731	42.42
723.133	42.51
723.535	42.55
723.937	42.62
724.338	42.68
724.74	42.76
725.142	42.9
725.544	42.96
725.945	43.04
726.347	43.08
726.748	43.12
727.15	43.17
727.551	43.23
727.952	43.27
728.354	43.34
728.755	43.39
729.156	43.43
729.557	43.43
729.958	43.47
730.359	43.51
730.76	43.56
731.161	43.59
731.562	43.67
731.962	43.69
732.363	43.73
732.763	43.75
733.164	43.79
733.564	43.81
733.965	43.84
734.365	43.9
734.766	43.91
735.166	43.93
735.566	43.95
735.966	43.95
736.366	43.96
736.766	43.98
737.166	44.01
737.566	44.04
737.966	44.04
738.365	44.06
738.765	44.06
739.165	44.07
739.564	44.09
739.964	44.12
740.363	44.1
740.763	44.11
741.162	44.14
741.561	44.13
741.96	44.11
742.36	44.14
742.759	44.15
743.158	44.14
743.557	44.16
743.955	44.17
744.354	44.18
744.753	44.22
745.152	44.25
745.55	44.25
745.949	44.27
746.348	44.32
746.746	44.34
747.144	44.36
747.543	44.4
747.941	44.44
748.339	44.43
748.737	44.43
749.136	44.43
749.534	44.42
749.932	44.42
750.33	44.41
750.727	44.41
751.125	44.38
751.523	44.36
751.921	44.35
752.318	44.33
752.716	44.33
753.113	44.33
753.511	44.34
753.908	44.37
754.305	44.36
754.703	44.35
755.1	44.34
755.497	44.33
755.894	44.32
756.291	44.3
756.688	44.29
757.085	44.3
757.482	44.29
757.878	44.27
758.275	44.23
758.672	44.22
759.068	44.23
759.465	44.23
759.861	44.24
760.258	44.23
760.654	44.24
761.05	44.24
761.447	44.24
761.843	44.23
762.239	44.23
762.635	44.23
763.031	44.22
763.427	44.23
763.822	44.24
764.218	44.23
764.614	44.23
765.01	44.23
765.405	44.21
765.801	44.19
766.196	44.17
766.592	44.17
766.987	44.17
767.382	44.19
767.778	44.16
768.173	44.17
768.568	44.17
768.963	44.17
769.358	44.18
769.753	44.19
770.148	44.19
770.542	44.22
770.937	44.23
771.332	44.23
771.726	44.23
772.121	44.26
772.515	44.24
772.91	44.24
773.304	44.25
773.699	44.26
774.093	44.25
774.487	44.27
774.881	44.27
775.275	44.25
775.669	44.22
776.063	44.21
776.457	44.21
776.851	44.19
777.245	44.18
777.638	44.17
778.032	44.16
778.425	44.19
778.819	44.16
779.212	44.18
779.606	44.21
779.999	44.22
780.392	44.24
780.786	44.26
781.179	44.27
781.572	44.33
781.965	44.35
782.358	44.39
782.751	44.39
783.143	44.39
783.536	44.38
783.929	44.38
784.322	44.4
784.714	44.4
785.107	44.39
785.499	44.4
785.891	44.38
786.284	44.39
786.676	44.4
787.068	44.4
787.46	44.43
787.852	44.44
788.245	44.45
788.636	44.46
789.028	44.5
789.42	44.5
789.812	44.54
790.204	44.55
790.595	44.56
790.987	44.57
791.378	44.63
791.77	44.64
792.161	44.66
792.553	44.68
792.944	44.68
793.335	44.67
793.726	44.69
794.117	44.66
794.508	44.64
794.899	44.63
795.29	44.64
795.681	44.58
796.072	44.59
796.463	44.58
796.853	44.58
797.244	44.58
797.634	44.58
798.025	44.6
798.415	44.63
798.806	44.65
799.196	44.67
799.586	44.64
799.976	44.7
800.366	44.7
800.756	44.72
801.146	44.72
801.536	44.76
801.926	44.78
802.316	44.77
802.706	44.79
803.095	44.8
803.485	44.81
803.874	44.83
804.264	44.83
804.653	44.83
805.043	44.84
805.432	44.86
805.821	44.83
806.21	44.85
806.599	44.88
806.988	44.88
807.377	44.9
807.766	44.92
808.155	44.92
808.544	44.94
808.933	44.95
809.321	44.95
809.71	44.98
810.098	45
810.487	44.99
810.875	45
811.264	45
811.652	45.02
812.04	45.03
812.428	45.08
812.816	45.08
813.204	45.09
813.592	45.09
813.98	45.09
814.368	45.11
814.756	45.13
815.144	45.12
815.531	45.11
815.919	45.1
816.306	45.1
816.694	45.06
817.081	45.09
817.469	45.11
817.856	45.13
818.243	45.11
818.63	45.1
819.017	45.1
819.404	45.12
819.791	45.12
820.178	45.13
820.565	45.11
820.952	45.11
821.339	45.09
821.725	45.08
822.112	45.1
822.498	45.13
822.885	45.14
823.271	45.13
823.657	45.11
824.044	45.12
824.43	45.11
824.816	45.12
825.202	45.13
825.588	45.12
825.974	45.11
826.36	45.08
826.746	45.05
827.132	45.05
827.517	45.04
827.903	45.05
828.289	45.07
828.674	45.04
829.06	45.03
829.445	45.01
829.83	45
830.216	44.96
830.601	44.94
830.986	44.94
831.371	44.92
831.756	44.91
832.141	44.88
832.526	44.87
832.911	44.86
833.295	44.85
833.68	44.84
834.065	44.81
834.449	44.81
834.834	44.8
835.218	44.79
835.603	44.79
835.987	44.76
836.371	44.72
836.755	44.67
837.139	44.65
837.524	44.62
837.908	44.62
838.291	44.62
838.675	44.63
839.059	44.61
839.443	44.57
839.827	44.53
840.21	44.55
840.594	44.55
840.977	44.55
841.361	44.55
841.744	44.53
842.127	44.49
842.511	44.49
842.894	44.47
843.277	44.47
843.66	44.47
844.043	44.48
844.426	44.48
844.809	44.48
845.191	44.5
845.574	44.5
845.957	44.53
846.339	44.54
846.722	44.51
847.104	44.5
847.487	44.49
847.869	44.49
848.252	44.51
848.634	44.5
849.016	44.5
849.398	44.5
849.78	44.49
850.162	44.47
850.544	44.48
850.926	44.52
851.307	44.54
851.689	44.57
852.071	44.57
852.452	44.55
852.834	44.54
853.215	44.54
853.597	44.56
853.978	44.57
854.359	44.59
854.741	44.57
855.122	44.55
855.503	44.55
855.884	44.52
856.265	44.55
856.646	44.57
857.026	44.59
857.407	44.6
857.788	44.57
858.169	44.6
858.549	44.59
858.93	44.62
859.31	44.62
859.69	44.62
860.071	44.66
860.451	44.64
860.831	44.61
861.211	44.6
861.591	44.6
861.971	44.6
862.351	44.6
862.731	44.63
863.111	44.63
863.491	44.63
863.87	44.63
864.25	44.6
864.629	44.62
865.009	44.65
865.388	44.66
865.768	44.68
866.147	44.69
866.526	44.67
866.905	44.64
867.284	44.65
867.663	44.63
868.042	44.63
868.421	44.65
868.8	44.64
869.179	44.64
869.558	44.61
869.936	44.57
870.315	44.55
870.693	44.56
871.072	44.57
871.45	44.56
871.828	44.58
872.207	44.6
872.585	44.58
872.963	44.57
873.341	44.56
873.719	44.57
874.097	44.58
874.475	44.6
874.853	44.6
875.23	44.62
875.608	44.61
875.986	44.62
876.363	44.6
876.741	44.62
877.118	44.64
877.495	44.64
877.873	44.66
878.25	44.67
878.627	44.67
879.004	44.66
879.381	44.66
879.758	44.65
880.135	44.64
880.512	44.65
880.889	44.64
881.265	44.61
881.642	44.61
882.019	44.6
882.395	44.59
882.772	44.6
883.148	44.58
883.524	44.55
883.901	44.54
884.277	44.52
884.653	44.5
885.029	44.49
885.405	44.5
885.781	44.5
886.157	44.5
886.532	44.49
886.908	44.45
887.284	44.46
887.659	44.44
888.035	44.42
888.411	44.43
888.786	44.43
889.161	44.43
889.537	44.43
889.912	44.38
890.287	44.37
890.662	44.35
891.037	44.35
891.412	44.32
891.787	44.31
892.162	44.31
892.536	44.29
892.911	44.26
893.286	44.25
893.66	44.21
894.035	44.2
894.409	44.19
894.784	44.19
895.158	44.18
895.532	44.2
895.906	44.2
896.281	44.18
896.655	44.17
897.029	44.18
897.402	44.17
897.776	44.19
898.15	44.2
898.524	44.22
898.898	44.22
899.271	44.22
899.645	44.22
900.018	44.24
900.392	44.27
900.765	44.29
901.138	44.3
901.511	44.32
901.884	44.33
902.258	44.35
902.631	44.36
903.003	44.37
903.376	44.41
903.749	44.37
904.122	44.37
904.495	44.39
904.867	44.42
905.24	44.43
905.612	44.45
905.985	44.43
906.357	44.45
906.729	44.46
907.102	44.45
907.474	44.45
907.846	44.5
908.218	44.52
908.59	44.52
908.962	44.51
909.334	44.52
909.705	44.51
910.077	44.52
910.449	44.53
910.82	44.53
911.192	44.53
911.563	44.52
911.935	44.51
912.306	44.5
912.677	44.5
913.048	44.51
913.419	44.51
913.79	44.53
914.161	44.53
914.532	44.54
914.903	44.52
915.274	44.54
915.645	44.57
916.015	44.58
916.386	44.58
916.756	44.61
917.127	44.62
917.497	44.65
917.868	44.64
918.238	44.69
918.608	44.68
918.978	44.69
919.348	44.72
919.718	44.69
920.088	44.7
920.458	44.69
920.828	44.66
921.198	44.64
921.567	44.61
921.937	44.62
922.306	44.58
922.676	44.58
923.045	44.56
923.415	44.53
923.784	44.57
924.153	44.57
924.522	44.6
924.891	44.58
925.26	44.59
925.629	44.61
925.998	44.64
926.367	44.63
926.736	44.61
927.104	44.64
927.473	44.62
927.842	44.59
928.21	44.62
928.578	44.6
928.947	44.64
929.315	44.63
929.683	44.61
930.051	44.58
930.42	44.58
930.788	44.56
931.156	44.52
931.523	44.54
931.891	44.56
932.259	44.5
932.627	44.5
932.994	44.45
933.362	44.45
933.729	44.4
934.097	44.37
934.464	44.36
934.831	44.37
935.199	44.39
935.566	44.36
935.933	44.33
936.3	44.37
936.667	44.33
937.034	44.38
937.401	44.38
937.767	44.46
938.134	44.5
938.501	44.57
938.867	44.62
939.234	44.68
939.6	44.77
939.967	44.81
940.333	44.84
940.699	44.93
941.065	44.93
941.431	44.99
941.798	44.96
942.163	45
942.529	44.99
942.895	45.06
943.261	45.07
943.627	45.11
943.992	45.13
944.358	45.17
944.723	45.18
945.089	45.17
945.454	45.18
945.82	45.23
946.185	45.26
946.55	45.21
946.915	45.17
947.28	45.11
947.645	45.01
948.01	45.05
948.375	44.99
948.74	44.97
949.104	45
949.469	44.96
949.834	44.94
950.198	44.92
950.562	44.92
950.927	44.88
951.291	44.85
951.655	44.87
952.02	44.82
952.384	44.75
952.748	44.71
953.112	44.66
953.476	44.58
953.839	44.49
954.203	44.41
954.567	44.35
954.931	44.32
955.294	44.28
955.658	44.28
956.021	44.2
956.385	44.18
956.748	44.14
957.111	44.07
957.474	44.09
957.837	44.08
958.2	44.07
958.563	44.07
958.926	44.06
959.289	44.05
959.652	43.98
960.015	44.01
960.377	44
960.74	43.98
961.102	44.05
961.465	44.05
961.827	44.05
962.189	44.07
962.552	44.03
962.914	44.01
963.276	44.03
963.638	44.02
964	43.96
964.362	43.98
964.724	43.96
965.085	43.89
965.447	43.88
965.809	43.93
966.17	43.87
966.532	43.91
966.893	43.93
967.255	43.92
967.616	43.96
967.977	43.98
968.338	43.93
968.699	43.95
969.061	43.96
969.421	44.01
969.782	44
970.143	44.03
970.504	44.02
970.865	44.01
971.225	43.96
971.586	43.93
971.946	43.95
972.307	43.99
972.667	43.96
973.027	43.97
973.388	43.94
973.748	43.89
974.108	43.94
974.468	43.95
974.828	43.97
975.188	43.99
975.548	44.01
975.907	44.02
976.267	44.05
976.627	44.11
976.986	44.1
977.346	44.08
977.705	44.11
978.064	44.1
978.424	44.11
978.783	44.03
979.142	44
979.501	43.98
979.86	44.03
980.219	44.03
980.578	44.04
980.937	44.08
981.296	44.07
981.654	44.06
982.013	44.04
982.371	44.01
982.73	44.08
983.088	44.1
983.447	44.12
983.805	44.09
984.163	44.13
984.521	44.16
984.879	44.14
985.237	44.2
985.595	44.23
985.953	44.27
986.311	44.29
986.669	44.29
987.026	44.37
987.384	44.44
987.741	44.45
988.099	44.46
988.456	44.44
988.814	44.43
989.171	44.44
989.528	44.46
989.885	44.51
990.242	44.59
990.599	44.7
990.956	44.71
991.313	44.74
991.67	44.78
992.027	44.83
992.383	44.89
992.74	45.03
993.096	44.98
993.453	45.05
993.809	45.04
994.165	45.09
994.522	45.08
994.878	45.15
995.234	45.18
995.59	45.2
995.946	45.23
996.302	45.3
996.658	45.28
997.013	45.39
997.369	45.42
997.725	45.38
998.08	45.43
998.436	45.43
998.791	45.49
999.147	45.42
999.502	45.4
999.857	45.4
1000.212	45.32
1000.567	45.4
1000.922	45.34
1001.277	45.37
1001.632	45.49
1001.987	45.56
1002.342	45.63
1002.696	45.66
1003.051	45.84
1003.406	46.08
1003.76	46.11
1004.114	46.17
1004.469	46.23
1004.823	46.66
1005.177	46.67
1005.531	46.75
1005.885	46.66
1006.239	46.6
1006.593	46.64
1006.947	46.63
1007.301	46.45
1007.655	46.52
1008.008	46.59
1008.362	46.67
1008.715	46.48
1009.069	46.61
1009.422	46.65
1009.776	46.68
1010.129	46.84
1010.482	46.86
1010.835	47
1011.188	47.28
1011.541	47.34
1011.894	47.55
1012.247	47.51
1012.6	47.61
1012.952	47.62
1013.305	47.68
1013.657	47.82
1014.01	47.94
1014.362	48.03
1014.715	48.26
1015.067	48.24
1015.419	48.4
1015.771	48.21
1016.123	48.37
1016.475	48.46
1016.827	48.64
1017.179	48.78
1017.531	48.83
1017.883	48.73
1018.234	48.82
1018.586	48.56
1018.938	48.66
1019.289	48.67
1019.64	48.83
1019.992	48.79
1020.343	48.79
1020.694	48.8
1021.045	48.86
1021.396	49.07
1021.747	49.23
1022.098	49.45
1022.449	49.58
1022.8	49.68
1023.151	49.83
1023.501	50.05
1023.852	50.42
1024.202	50.33
1024.553	50.37
1024.903	50.43
1025.253	50.42
1025.604	50.53
1025.954	50.24
1026.304	50.4
1026.654	50.49
1027.004	50.54
1027.354	50.52
1027.703	50.35
1028.053	50.64
1028.403	50.86
1028.753	50.96
1029.102	51.18
1029.452	51.4
1029.801	51.79
1030.15	51.93
1030.499	51.96
897.758	954.79
901.051	962.43
904.343	962.49
907.636	978.4
910.928	951.37
914.22	949.29
917.511	935.79
920.803	895.11
924.094	892.93
927.384	874.42
930.675	839.1
933.965	834.83
937.255	783.51
940.544	751.88
943.834	720.08
947.123	713.95
950.411	674.28
953.7	662.34
956.988	626.61
960.276	600.64
963.563	592.21
966.851	567.86
970.138	565.11
973.424	548.54
976.711	549.61
979.997	521.08
983.283	517.84
986.568	506.59
989.853	492.56
993.138	483.55
996.423	466.27
999.708	452.71
1002.992	449.51
1006.275	430.56
1009.559	427.52
1012.842	412.3
1016.125	402.47
1019.408	394.04
1022.69	391.28
1025.972	382.09
1029.254	372.59
1032.536	365.81
1035.817	360.37
1039.098	355.1
1042.379	348.11
1045.659	344.06
1048.939	336.75
1052.219	329.05
1055.498	326.08
1058.778	317.17
1062.057	311.24
1065.335	308.75
1068.614	304.89
1071.892	300.41
1075.17	292.56
1078.447	286.06
1081.724	283.84
1085.001	281.36
1088.278	276.88
1091.554	272.05
1094.83	272.62
1098.106	269.98
1101.382	267.27
1104.657	265.17
1107.932	260.74
1111.206	262.19
1114.481	256.36
1117.755	254.92
1121.029	252.62
1124.302	251.58
1127.575	247.63
1130.848	244.25
1134.121	242.67
1137.393	241.28
1140.665	237.47
1143.937	235.51
1147.208	234.08
1150.48	233.77
1153.75	229.39
1157.021	226.63
1160.291	226.98
1163.561	223.27
1166.831	223.16
1170.101	221.07
1173.37	221.24
1176.639	221.33
1179.907	220.05
1183.176	216.94
1186.444	216.46
1189.711	216.6
1192.979	216.34
1196.246	214.79
1199.513	216.15
1202.78	214.59
1206.046	214.05
1209.312	212.09
1212.578	212.28
1215.843	213.55
1219.108	212.55
1222.373	216.22
1225.638	217.4
1228.902	219.95
1232.166	220.53
1235.43	221.62
1238.693	225.01
1241.956	226.84
1245.219	229.96
1248.482	230.22
1251.744	230.14
1255.006	231.04
1258.268	226.32
1261.529	224.69
1264.79	224.14
1268.051	221.4
1271.312	219.2
1274.572	216.78
1277.832	214.78
1281.092	211.37
1284.351	209.77
1287.61	210.05
1290.869	207.26
1294.128	206.07
1297.386	205.9
1300.644	203.41
1303.902	205.15
1307.159	204.23
1310.416	203.46
1313.673	202.55
1316.93	204.86
1320.186	204.11
1323.442	204.53
1326.697	207.19
1329.953	208.31
1333.208	208.56
1336.463	211.36
1339.717	211.17
1342.972	213.77
1346.226	215.58
1349.479	216.76
1352.733	216.74
1355.986	219.05
1359.238	218.28
1362.491	218.73
1365.743	220.79
1368.995	221.99
1372.247	220.71
1375.498	220.99
1378.749	220.96
1382	219.64
1385.251	220.1
1388.501	219.23
1391.751	218.27
1395	217.77
1398.25	216.34
1401.499	214.07
1404.748	212.86
1407.996	210.51
1411.244	209.74
1414.492	208.45
1417.74	205.33
1420.987	203.17
1424.234	202.03
1427.481	200.72
1430.728	200.5
1433.974	198.44
1437.22	196.6
1440.465	195.85
1443.711	193.93
1446.956	192.22
1450.201	190.83
1453.445	189.88
1456.689	188.05
1459.933	185.11
1463.177	183.4
1466.42	181.03
1469.663	178.96
1472.906	177.8
1476.148	173.15
1479.391	171.8
1482.633	170.67
1485.874	168.05
1489.115	166.41
1492.356	164.53
1495.597	164.37
1498.838	162
1502.078	160.92
1505.318	160.48
1508.557	160.05
1511.797	160.45
1515.036	158.23
1518.274	158.29
1521.513	157.14
1524.751	156.66
1527.989	156.81
1531.227	156.13
1534.464	156.19
1537.701	155.96
1540.938	155.36
1544.174	153.82
1547.41	154.02
1550.646	153.86
1553.882	152.85
1557.117	151.71
1560.352	150.87
1563.587	150.57
1566.821	149.66
1570.055	148.88
1573.289	146.96
1576.523	147.65
1579.756	146.6
1582.989	145.8
1586.222	146
1589.454	145.8
1592.686	146.42
1595.918	146.21
1599.15	145.45
1602.381	145.87
1605.612	145.54
1608.843	145.97
1612.073	145.26
1615.303	146.2
1618.533	146.11
1621.762	145.96
1624.992	146.15
1628.221	145.87
1631.449	145.51
1634.678	146
1637.906	146.42
1641.134	145.89
1644.361	145.83
1647.588	146.36
1650.815	146.07
1654.042	145.5
1657.269	146.3
1660.495	146.38
1663.72	145.87
1666.946	146.7
1670.171	146.65
1673.396	147.19
1676.621	146.91
1679.845	147.43
1683.069	147.61
1686.293	148.09
1689.517	149.11
1692.74	148.81
1695.963	148.94
1699.185	150.4
1702.408	150.47
1705.63	150.64
1708.852	150.51
1712.073	151.15
1715.294	151.23
1718.515	152.46
1721.736	152.36
1724.956	152.63
1728.176	152.62
1731.396	153.79
1734.616	153.08
1737.835	153.43
1741.054	152.94
1744.272	153.35
1747.491	155.06
1750.709	155.57
1753.927	154.74
1757.144	154.63
1760.361	154.83
1763.578	155.25
1766.795	154.76
1770.011	156.49
1773.227	156.27
1776.443	157.84
1779.658	157.92
1782.874	157.95
1786.089	157.71
1789.303	158.27
1792.518	160.36
1795.732	160.09
1798.945	161.14
1802.159	161.26
1805.372	161.01
1808.585	163.66
1811.797	163.73
1815.01	164.03
1818.222	164.87
1821.434	167.52
1824.645	167.6
1827.856	169.62
1831.067	171.03
1834.278	171.8
1837.488	172.82
1840.698	173.85
1843.908	172.39
1847.117	173.65
1850.326	175.33
1853.535	173.39
1856.744	174.52
1859.952	174.52
1863.16	172.7
1866.368	171.45
1869.575	171.8
1872.782	169.62
1875.989	169
1879.196	168.66
1882.402	167.13
1885.608	166.45
1888.814	167.16
1892.019	166.64
1895.224	166.02
1898.429	165.47
1901.634	165.99
1904.838	166.61
1908.042	167.76
1911.246	167.54
1914.449	167.79
1917.652	167.68
1920.855	167.54
1924.058	167.86
1927.26	166.58
1930.462	167.03
1933.664	168.56
1936.865	167.49
1940.066	166.45
1943.267	165.92
1946.467	166.26
1949.668	166.94
1952.868	169.28
1956.067	169.85
1959.267	169.59
1962.466	170.25
1965.665	169.09
1968.863	169.66
1972.061	173.56
1975.259	174.61
1978.457	175.88
1981.654	177.86
1984.852	178.44
1988.048	177.43
1991.245	179.54
1994.441	181.4
1997.637	182.98
2000.833	187.16
2004.028	189.78
2007.223	189.53
2010.418	191.25
2013.613	195.16
2016.807	196.81
2020.001	198.08
2023.194	202.25
2026.388	206.16
2029.581	211.58
2032.774	212.88
2035.966	216.67
2039.158	217.08
2042.35	220.74
2045.542	222.26
2048.733	225.46
2051.924	229.61
2055.115	233.45
2058.306	233.4
2061.496	235.23
2064.686	235.9
2067.875	240.33
2071.065	240.83
2074.254	239.7
2077.442	243.47
2080.631	245.02
2083.819	246.65
2087.007	246.48
2090.195	250.27
2093.382	252.73
2096.569	251.79
2099.756	255.41
2102.942	256.09
2106.128	258.35
2109.314	265.35
2112.5	264.08
2115.685	270.99
2118.87	272.07
2122.055	275.91
2125.239	277.29
2128.424	280.54
2131.608	282.57
2134.791	286.69
2137.974	287.04
2141.157	288.87
2144.34	288.02
2147.523	294.09
2150.705	291.23
2153.887	293.95
2157.068	295.69
2160.25	293.61
2163.431	294.65
2166.611	297.91
2169.792	302.31
2172.972	305.39
2176.152	309.19
2179.331	312.32
2182.511	315.25
2185.69	318
2188.868	323.93
2192.047	324.32
2195.225	333.45
2198.403	341.63
2201.58	349.9
2204.758	356.21
2207.935	363.26
2211.111	369.09
2214.288	374.41
2217.464	375.63
2220.64	383.06
2223.815	386.64
2226.991	403.78
2230.166	404.42
2233.34	409.8
2236.515	415.19
2239.689	416.95
2242.863	420.1
2246.036	429.58
2249.209	425.98
2252.382	434.45
2255.555	446.52
2258.727	449.86
2261.9	451.67
2265.071	456.45
2268.243	465.86
2271.414	470.76
2274.585	478.79
2277.756	484.03
2280.926	487.56
2284.096	501.06
2287.266	510.67
2290.436	513.49
2293.605	526.41
2296.774	539.83
2299.942	556.84
2303.111	557.8
2306.279	569.35
2309.447	578.33
2312.614	594.53
2315.781	610.44
2318.948	637.78
2322.115	628.29
2325.281	665.38
2328.447	651.62
2331.613	676.61
2334.779	667.89
2337.944	701.59
2341.109	706.96
2344.274	724.52
2347.438	749.67
2350.602	750.8
2353.766	771.41
2356.929	784.46
2360.092	776.18
2363.255	829.04
2366.418	830.19
2369.58	845.1
2372.742	895.89
2375.904	920.18
2379.066	916.77
2382.227	894.75
2385.388	967.75
2388.548	971.76
2391.709	982.11
2394.869	1091.54
2398.029	1052.31
2401.188	1084.43
2404.347	1076.45
2407.506	1055.62
2410.665	1084.06
2413.823	1150.76
2416.981	1220.61
2420.139	1188.51
2423.296	1168.15
2426.453	1225.07
2429.61	1180.7
2432.767	1229.01
2435.923	1212.57
2439.079	1342.11
2442.235	1358.35
2445.391	1349.7
2448.546	1336.1
2451.701	1297.08
2454.855	1290.47
2458.009	1382.9
2461.163	1431.46
2464.317	1481.32
2467.471	1522.14
2470.624	1524.31
2473.777	1473.06
2476.929	1433.93
2480.082	1387.44
2483.234	1376.07
2486.385	1457.36
2489.537	1462.55
2492.688	1509.47
2495.839	1474.89
2498.989	1441.64
2502.14	1443.18
2505.29	1453.47
2508.439	1470.51
2511.589	1469.89
2514.738	1606.45
2517.887	1573.73
2521.035	1646.71
2524.183	1669.44
2527.331	1675.49
2530.479	1657.39
2533.627	1672.73
