Data from N_3_DEC_OH_4N_Splice17_14-22-47-396.txt Node
Date: Sat Mar 07 14:22:47 EST 2020
User: sa697716
Spectrometer: NQ5500242
Trigger mode: 0
Integration Time (sec): 1.450000E-1
Scans to average: 20
Nonlinearity correction enabled: false
Boxcar width: 5
Storing dark spectrum: false
XAxis mode: Wavelengths
Number of Pixels in Spectrum: 512
>>>>>Begin Spectral Data<<<<<
187.83	177.67
188.298	210.06
188.766	175.44
189.233	154.87
189.701	139.58
190.169	167.95
190.636	199.01
191.104	218.26
191.571	65.42
192.039	245.33
192.506	370.57
192.974	83.93
193.441	304.08
193.908	161.26
194.375	130.7
194.842	38.81
195.31	65.52
195.777	111.18
196.244	54.88
196.711	66.64
197.177	71.1
197.644	72.24
198.111	71.6
198.578	71.55
199.045	71.94
199.511	71.79
199.978	72.06
200.445	72.37
200.911	72.01
201.378	72.32
201.844	72.09
202.31	71.65
202.777	71.29
203.243	71.38
203.709	70.81
204.176	69.85
204.642	69.51
205.108	69.18
205.574	68.59
206.04	68.2
206.506	67.29
206.972	67.03
207.438	66.41
207.903	65.43
208.369	63.98
208.835	62.76
209.301	61.35
209.766	59.6
210.232	57.47
210.697	55.89
211.163	54.12
211.628	52.74
212.094	51.15
212.559	49.89
213.024	48.56
213.49	47.41
213.955	46.11
214.42	45.03
214.885	43.63
215.35	42.06
215.815	39.48
216.28	36.75
216.745	33.51
217.21	30.34
217.675	27.3
218.14	24.72
218.604	22.32
219.069	20.41
219.534	18.8
219.998	17.47
220.463	16.36
220.927	15.43
221.392	14.68
221.856	14.09
222.32	13.57
222.785	13.13
223.249	12.69
223.713	12.35
224.177	12.05
224.642	11.75
225.106	11.44
225.57	11.16
226.034	10.92
226.497	10.67
226.961	10.44
227.425	10.18
227.889	9.98
228.353	9.8
228.816	9.6
229.28	9.42
229.744	9.25
230.207	9.1
230.671	8.95
231.134	8.81
231.597	8.68
232.061	8.56
232.524	8.45
232.987	8.32
233.45	8.2
233.914	8.1
234.377	7.98
234.84	7.87
235.303	7.77
235.766	7.68
236.229	7.59
236.691	7.5
237.154	7.42
237.617	7.34
238.08	7.27
238.542	7.19
239.005	7.13
239.468	7.06
239.93	6.99
240.393	6.94
240.855	6.86
241.317	6.79
241.78	6.72
242.242	6.63
242.704	6.58
243.166	6.52
243.629	6.47
244.091	6.4
244.553	6.35
245.015	6.28
245.477	6.22
245.939	6.17
246.4	6.11
246.862	6.06
247.324	6.02
247.786	5.96
248.247	5.91
248.709	5.84
249.17	5.79
249.632	5.75
250.093	5.7
250.555	5.67
251.016	5.63
251.477	5.58
251.939	5.56
252.4	5.52
252.861	5.49
253.322	5.47
253.783	5.44
254.244	5.41
254.705	5.38
255.166	5.36
255.627	5.33
256.088	5.3
256.549	5.28
257.009	5.24
257.47	5.21
257.931	5.17
258.391	5.13
258.852	5.09
259.312	5.06
259.773	5.03
260.233	4.99
260.694	4.96
261.154	4.93
261.614	4.9
262.074	4.87
262.534	4.84
262.994	4.82
263.455	4.79
263.915	4.77
264.374	4.75
264.834	4.73
265.294	4.71
265.754	4.69
266.214	4.67
266.673	4.66
267.133	4.65
267.593	4.64
268.052	4.63
268.512	4.62
268.971	4.6
269.431	4.59
269.89	4.58
270.349	4.57
270.809	4.56
271.268	4.55
271.727	4.53
272.186	4.52
272.645	4.51
273.104	4.5
273.563	4.49
274.022	4.48
274.481	4.48
274.94	4.47
275.399	4.46
275.857	4.45
276.316	4.45
276.775	4.45
277.233	4.44
277.692	4.44
278.15	4.43
278.609	4.43
279.067	4.43
279.525	4.42
279.984	4.41
280.442	4.42
280.9	4.42
281.358	4.42
281.816	4.41
282.274	4.4
282.732	4.4
283.19	4.4
283.648	4.39
284.106	4.38
284.564	4.38
285.021	4.38
285.479	4.38
285.937	4.37
286.394	4.36
286.852	4.35
287.309	4.35
287.767	4.34
288.224	4.33
288.682	4.31
289.139	4.3
289.596	4.28
290.053	4.27
290.511	4.25
290.968	4.23
291.425	4.21
291.882	4.2
292.339	4.18
292.796	4.16
293.252	4.15
293.709	4.14
294.166	4.13
294.623	4.12
295.079	4.11
295.536	4.1
295.992	4.09
296.449	4.09
296.905	4.08
297.362	4.07
297.818	4.06
298.274	4.05
298.731	4.04
299.187	4.03
299.643	4.02
300.099	4.03
300.555	4.02
301.011	4.02
301.467	4.01
301.923	4
302.379	4
302.835	4
303.291	3.99
303.746	3.99
304.202	3.99
304.658	3.99
305.113	3.99
305.569	3.98
306.024	3.99
306.479	3.99
306.935	3.99
307.39	3.99
307.845	4
308.301	4
308.756	4.01
309.211	4.01
309.666	4.02
310.121	4.03
310.576	4.03
311.031	4.04
311.486	4.04
311.94	4.05
312.395	4.05
312.85	4.04
313.305	4.05
313.759	4.05
314.214	4.05
314.668	4.04
315.123	4.04
315.577	4.03
316.032	4.02
316.486	4.01
316.94	4
317.394	3.99
317.849	3.98
318.303	3.97
318.757	3.95
319.211	3.94
319.665	3.93
320.119	3.91
320.572	3.9
321.026	3.9
321.48	3.89
321.934	3.87
322.387	3.86
322.841	3.86
323.295	3.86
323.748	3.87
324.202	3.86
324.655	3.85
325.108	3.85
325.562	3.84
326.015	3.84
326.468	3.84
326.921	3.84
327.374	3.84
327.827	3.84
328.28	3.83
328.733	3.83
329.186	3.83
329.639	3.83
330.092	3.83
330.545	3.84
330.997	3.84
331.45	3.84
331.903	3.84
332.355	3.86
332.808	3.86
333.26	3.86
333.713	3.86
334.165	3.86
334.617	3.88
335.069	3.87
335.522	3.88
335.974	3.89
336.426	3.89
336.878	3.89
337.33	3.89
337.782	3.89
338.234	3.89
338.686	3.89
339.137	3.9
339.589	3.89
340.041	3.89
340.493	3.88
340.944	3.87
341.396	3.85
341.847	3.84
342.299	3.82
342.75	3.81
343.201	3.8
343.653	3.79
344.104	3.76
344.555	3.74
345.006	3.73
345.457	3.71
345.908	3.7
346.359	3.7
346.81	3.69
347.261	3.7
347.712	3.69
348.163	3.68
348.613	3.68
349.064	3.68
349.515	3.69
349.965	3.69
350.416	3.68
350.866	3.69
351.317	3.68
351.767	3.68
352.217	3.68
352.668	3.68
353.118	3.68
353.568	3.68
354.018	3.68
354.468	3.69
354.918	3.69
355.368	3.7
355.818	3.71
356.268	3.71
356.718	3.71
357.168	3.71
357.617	3.71
358.067	3.71
358.517	3.73
358.966	3.73
359.416	3.72
359.865	3.73
360.315	3.73
360.764	3.73
361.213	3.72
361.663	3.72
362.112	3.73
362.561	3.75
363.01	3.75
363.459	3.74
363.908	3.74
364.357	3.74
364.806	3.74
365.255	3.74
365.703	3.74
366.152	3.75
366.601	3.75
367.05	3.76
367.498	3.76
367.947	3.76
368.395	3.77
368.844	3.77
369.292	3.77
369.74	3.77
370.189	3.77
370.637	3.77
371.085	3.76
371.533	3.76
371.981	3.75
372.429	3.75
372.877	3.75
373.325	3.75
373.773	3.74
374.221	3.74
374.669	3.74
375.116	3.74
375.564	3.74
376.012	3.75
376.459	3.75
376.907	3.76
377.354	3.77
377.801	3.77
378.249	3.78
378.696	3.77
379.143	3.77
379.591	3.78
380.038	3.79
380.485	3.79
380.932	3.8
381.379	3.81
381.826	3.81
382.273	3.8
382.72	3.8
383.166	3.8
383.613	3.8
384.06	3.8
384.506	3.81
384.953	3.81
385.4	3.8
385.846	3.81
386.292	3.82
386.739	3.82
387.185	3.83
387.631	3.84
388.078	3.85
388.524	3.86
388.97	3.87
389.416	3.88
389.862	3.89
390.308	3.92
390.754	3.92
391.2	3.94
391.645	3.95
392.091	3.97
392.537	3.98
392.983	3.99
393.428	4.01
393.874	4.02
394.319	4.04
394.765	4.04
395.21	4.03
395.655	4.04
396.101	4.06
396.546	4.07
396.991	4.08
397.436	4.1
397.881	4.13
398.326	4.15
398.771	4.18
399.216	4.19
399.661	4.22
400.106	4.25
400.551	4.27
400.995	4.27
401.44	4.28
401.885	4.29
402.329	4.3
402.774	4.3
403.218	4.32
403.663	4.34
404.107	4.36
404.551	4.37
404.995	4.36
405.44	4.37
405.884	4.39
406.328	4.4
406.772	4.42
407.216	4.43
407.66	4.44
408.104	4.44
408.547	4.45
408.991	4.46
409.435	4.46
409.879	4.48
410.322	4.51
410.766	4.52
411.209	4.55
411.653	4.57
412.096	4.59
412.54	4.61
412.983	4.61
413.426	4.65
413.869	4.67
414.312	4.71
414.756	4.74
415.199	4.76
415.642	4.79
416.085	4.8
416.527	4.8
416.97	4.8
417.413	4.8
417.856	4.8
418.298	4.8
418.741	4.8
419.184	4.79
419.626	4.78
420.069	4.79
420.511	4.79
420.953	4.78
421.396	4.79
421.838	4.8
422.28	4.81
422.722	4.85
423.164	4.86
423.606	4.87
424.048	4.88
424.49	4.91
424.932	4.91
425.374	4.91
425.816	4.91
426.258	4.89
426.699	4.88
427.141	4.88
427.582	4.86
428.024	4.87
428.465	4.88
428.907	4.87
429.348	4.85
429.789	4.84
430.231	4.87
430.672	4.88
431.113	4.91
431.554	4.94
431.995	4.96
432.436	4.97
432.877	4.97
433.318	4.97
433.759	5.01
434.2	5.05
434.64	5.07
435.081	5.08
435.522	5.11
435.962	5.14
436.403	5.16
436.843	5.17
437.284	5.18
437.724	5.2
438.164	5.2
438.604	5.19
439.045	5.18
439.485	5.18
439.925	5.19
440.365	5.18
440.805	5.18
441.245	5.18
441.685	5.2
442.125	5.22
442.564	5.23
443.004	5.24
443.444	5.26
443.883	5.26
444.323	5.27
444.762	5.28
445.202	5.3
445.641	5.31
446.081	5.33
446.52	5.33
446.959	5.35
447.398	5.36
447.837	5.38
448.276	5.37
448.716	5.39
449.154	5.4
449.593	5.4
450.032	5.4
450.471	5.39
450.91	5.38
451.349	5.38
451.787	5.35
452.226	5.33
452.664	5.32
453.103	5.3
453.541	5.29
453.98	5.29
454.418	5.26
454.856	5.24
455.295	5.22
455.733	5.19
456.171	5.18
456.609	5.17
457.047	5.16
457.485	5.14
457.923	5.14
458.361	5.14
458.798	5.12
459.236	5.12
459.674	5.12
460.111	5.12
460.549	5.13
460.987	5.14
461.424	5.15
461.862	5.16
462.299	5.17
462.736	5.17
463.173	5.17
463.611	5.16
464.048	5.17
464.485	5.18
464.922	5.18
465.359	5.18
465.796	5.18
466.233	5.19
466.67	5.19
467.106	5.19
467.543	5.19
467.98	5.2
468.416	5.21
468.853	5.21
469.29	5.21
469.726	5.21
470.162	5.21
470.599	5.21
471.035	5.2
471.471	5.21
471.907	5.21
472.344	5.21
472.78	5.22
473.216	5.2
473.652	5.21
474.088	5.2
474.523	5.21
474.959	5.2
475.395	5.19
475.831	5.18
476.266	5.17
476.702	5.15
477.138	5.16
477.573	5.15
478.008	5.16
478.444	5.14
478.879	5.14
479.314	5.12
479.75	5.12
480.185	5.11
480.62	5.09
481.055	5.08
481.49	5.07
481.925	5.06
482.36	5.04
482.795	5.04
483.229	5.02
483.664	5.01
484.099	5.01
484.534	5
484.968	5
485.403	5.01
485.837	5.01
486.271	5.02
486.706	5.02
487.14	5.02
487.574	5.02
488.009	5.04
488.443	5.05
488.877	5.06
489.311	5.07
489.745	5.08
490.179	5.11
490.613	5.12
491.046	5.14
491.48	5.16
491.914	5.19
492.348	5.22
492.781	5.25
493.215	5.28
493.648	5.31
494.082	5.34
494.515	5.37
494.948	5.4
495.382	5.43
495.815	5.47
496.248	5.51
496.681	5.56
497.114	5.6
497.547	5.64
497.98	5.69
498.413	5.73
498.846	5.79
499.279	5.85
499.711	5.9
500.144	5.97
500.577	6.03
501.009	6.09
501.442	6.15
501.874	6.21
502.306	6.27
502.739	6.36
503.171	6.44
503.603	6.51
504.036	6.59
504.468	6.67
504.9	6.75
505.332	6.83
505.764	6.93
506.196	7.03
506.627	7.13
507.059	7.24
507.491	7.34
507.923	7.43
508.354	7.55
508.786	7.67
509.217	7.78
509.649	7.89
510.08	8.02
510.512	8.14
510.943	8.26
511.374	8.37
511.805	8.48
512.237	8.61
512.668	8.75
513.099	8.87
513.53	8.99
513.961	9.13
514.391	9.26
514.822	9.39
515.253	9.52
515.684	9.64
516.114	9.79
516.545	9.93
516.975	10.06
517.406	10.19
517.836	10.33
518.267	10.47
518.697	10.58
519.127	10.71
519.558	10.84
519.988	10.97
520.418	11.09
520.848	11.22
521.278	11.34
521.708	11.56
522.138	11.67
522.567	11.79
522.997	11.9
523.427	12.03
523.857	12.13
524.286	12.23
524.716	12.34
525.145	12.44
525.575	12.52
526.004	12.63
526.433	12.62
526.863	12.7
527.292	12.79
527.721	12.87
528.15	12.95
528.579	13.03
529.008	13.1
529.437	13.17
529.866	13.24
530.295	13.33
530.724	13.38
531.152	13.45
531.581	13.52
532.01	13.56
532.438	13.62
532.867	13.67
533.295	13.71
533.723	13.76
534.152	13.81
534.58	13.85
535.008	13.87
535.436	13.91
535.865	13.94
536.293	13.97
536.721	14
537.149	14.03
537.576	14.05
538.004	14.09
538.432	14.12
538.86	14.13
539.287	14.15
539.715	14.19
540.143	14.21
540.57	14.23
540.998	14.25
541.425	14.27
541.852	14.29
542.28	14.33
542.707	14.35
543.134	14.37
543.561	14.41
543.988	14.44
544.415	14.46
544.842	14.49
545.269	14.51
545.696	14.53
546.123	14.55
546.549	14.58
546.976	14.6
547.403	14.63
547.829	14.65
548.256	14.69
548.682	14.71
549.108	14.73
549.535	14.75
549.961	14.78
550.387	14.8
550.813	14.82
551.24	14.85
551.666	14.86
552.092	14.87
552.518	14.9
552.943	14.89
553.369	14.9
553.795	14.9
554.221	14.91
554.646	14.91
555.072	14.9
555.498	14.88
555.923	14.87
556.349	14.86
556.774	14.85
557.199	14.82
557.625	14.82
558.05	14.8
558.475	14.79
558.9	14.78
559.325	14.76
559.75	14.74
560.175	14.72
560.6	14.69
561.025	14.66
561.449	14.61
561.874	14.56
562.299	14.51
562.723	14.47
563.148	14.41
563.572	14.34
563.997	14.28
564.421	14.23
564.846	14.17
565.27	14.11
565.694	14.05
566.118	13.99
566.542	13.94
566.966	13.89
567.39	13.81
567.814	13.74
568.238	13.68
568.662	13.61
569.086	13.55
569.509	13.49
569.933	13.43
570.357	13.36
570.78	13.29
571.204	13.22
571.627	13.16
572.05	13.1
572.474	13.06
572.897	13.01
573.32	12.97
573.743	12.91
574.166	12.87
574.589	12.82
575.012	12.79
575.435	12.75
575.858	12.73
576.281	12.69
576.704	12.66
577.126	12.65
577.549	12.61
577.972	12.58
578.394	12.55
578.817	12.52
579.239	12.49
579.661	12.46
580.084	12.44
580.506	12.41
580.928	12.38
581.35	12.35
581.772	12.31
582.194	12.3
582.616	12.27
583.038	12.25
583.46	12.22
583.882	12.2
584.303	12.18
584.725	12.16
585.147	12.13
585.568	12.11
585.99	12.08
586.411	12.05
586.833	12.02
587.254	12
587.675	11.98
588.096	11.96
588.518	11.94
588.939	11.92
589.36	11.89
589.781	11.86
590.202	11.84
590.623	11.84
591.043	11.82
591.464	11.82
591.885	11.8
592.305	11.78
592.726	11.76
593.147	11.74
593.567	11.72
593.987	11.71
594.408	11.7
594.828	11.68
595.248	11.66
595.669	11.65
596.089	11.62
596.509	11.6
596.929	11.58
597.349	11.56
597.769	11.54
598.189	11.52
598.608	11.51
599.028	11.49
599.448	11.47
599.867	11.45
600.287	11.42
600.706	11.41
601.126	11.38
601.545	11.36
601.965	11.34
602.384	11.32
602.803	11.31
603.222	11.29
603.641	11.26
604.061	11.25
604.48	11.23
604.898	11.21
605.317	11.2
605.736	11.19
606.155	11.17
606.574	11.15
606.992	11.14
607.411	11.11
607.829	11.06
608.248	11.03
608.666	11.01
609.085	11
609.503	10.98
609.921	10.96
610.339	10.93
610.758	10.91
611.176	10.88
611.594	10.85
612.012	10.82
612.43	10.82
612.847	10.81
613.265	10.78
613.683	10.76
614.101	10.73
614.518	10.7
614.936	10.68
615.353	10.65
615.771	10.63
616.188	10.6
616.606	10.58
617.023	10.57
617.44	10.54
617.857	10.53
618.274	10.5
618.691	10.48
619.108	10.46
619.525	10.44
619.942	10.43
620.359	10.41
620.776	10.4
621.192	10.4
621.609	10.39
622.026	10.37
622.442	10.36
622.859	10.35
623.275	10.36
623.691	10.36
624.108	10.35
624.524	10.36
624.94	10.37
625.356	10.36
625.772	10.36
626.188	10.37
626.604	10.37
627.02	10.37
627.436	10.37
627.852	10.37
628.268	10.36
628.683	10.36
629.099	10.36
629.514	10.34
629.93	10.34
630.345	10.33
630.761	10.3
631.176	10.28
631.591	10.25
632.007	10.23
632.422	10.19
632.837	10.16
633.252	10.12
633.667	10.08
634.082	10.03
634.497	9.98
634.911	9.92
635.326	9.86
635.741	9.79
636.155	9.73
636.57	9.66
636.984	9.61
637.399	9.53
637.813	9.45
638.228	9.36
638.642	9.28
639.056	9.18
639.47	9.1
639.884	9.02
640.298	8.93
640.712	8.86
641.126	8.78
641.54	8.69
641.954	8.61
642.368	8.54
642.781	8.47
643.195	8.39
643.609	8.34
644.022	8.27
644.436	8.22
644.849	8.15
645.262	8.08
645.676	8.02
646.089	7.96
646.502	7.92
646.915	7.87
647.328	7.83
647.741	7.8
648.154	7.77
648.567	7.74
648.98	7.72
649.393	7.7
649.805	7.7
650.218	7.69
650.631	7.68
651.043	7.68
651.456	7.68
651.868	7.68
652.28	7.67
652.693	7.68
653.105	7.68
653.517	7.67
653.929	7.66
654.341	7.65
654.753	7.63
655.165	7.62
655.577	7.6
655.989	7.58
656.401	7.56
656.813	7.55
657.224	7.51
657.636	7.48
658.047	7.46
658.459	7.43
658.87	7.39
659.282	7.36
659.693	7.32
660.104	7.29
660.515	7.25
660.926	7.22
661.338	7.17
661.749	7.14
662.159	7.11
662.57	7.08
662.981	7.05
663.392	7.02
663.803	6.99
664.213	6.97
664.624	6.94
665.035	6.91
665.445	6.88
665.855	6.86
666.266	6.85
666.676	6.84
667.086	6.83
667.497	6.81
667.907	6.81
668.317	6.82
668.727	6.81
669.137	6.81
669.547	6.83
669.956	6.83
670.366	6.84
670.776	6.84
671.186	6.84
671.595	6.85
672.005	6.86
672.414	6.87
672.824	6.89
673.233	6.91
673.642	6.93
674.052	6.94
674.461	6.96
674.87	6.99
675.279	7.03
675.688	7.08
676.097	7.11
676.506	7.17
676.915	7.21
677.323	7.25
677.732	7.29
678.141	7.34
678.549	7.41
678.958	7.46
679.366	7.54
679.775	7.59
680.183	7.65
680.592	7.75
681	7.84
681.408	7.93
681.816	8.03
682.224	8.15
682.632	8.27
683.04	8.41
683.448	8.57
683.856	8.71
684.264	8.88
684.671	9.08
685.079	9.26
685.487	9.47
685.894	9.69
686.302	9.94
686.709	10.19
687.116	10.46
687.524	10.73
687.931	11
688.338	11.3
688.745	11.61
689.152	11.92
689.559	12.26
689.966	12.58
690.373	12.94
690.78	13.28
691.187	13.63
691.593	13.99
692	14.34
692.407	14.7
692.813	15.07
693.22	15.42
693.626	15.78
694.032	16.13
694.439	16.49
694.845	16.83
695.251	17.17
695.657	17.49
696.063	17.83
696.469	18.16
696.875	18.47
697.281	18.79
697.687	19.11
698.093	19.4
698.498	19.69
698.904	19.98
699.31	20.27
699.715	20.55
700.12	20.83
700.526	21.08
700.931	21.34
701.337	21.6
701.742	21.82
702.147	22.06
702.552	22.32
702.957	22.53
703.362	22.73
703.767	22.94
704.172	23.14
704.577	23.32
704.981	23.54
705.386	23.73
705.791	23.92
706.195	24.11
706.6	24.29
707.004	24.44
707.408	24.63
707.813	24.82
708.217	25
708.621	25.18
709.025	25.36
709.43	25.51
709.834	25.67
710.237	25.82
710.641	25.96
711.045	26.11
711.449	26.28
711.853	26.42
712.256	26.55
712.66	26.69
713.064	26.81
713.467	26.95
713.87	27.09
714.274	27.21
714.677	27.37
715.08	27.5
715.484	27.63
715.887	27.76
716.29	27.87
716.693	27.99
717.096	28.11
717.499	28.23
717.901	28.35
718.304	28.45
718.707	28.56
719.109	28.68
719.512	28.77
719.915	28.88
720.317	28.96
720.719	29.04
721.122	29.13
721.524	29.22
721.926	29.3
722.328	29.37
722.731	29.44
723.133	29.52
723.535	29.58
723.937	29.66
724.338	29.71
724.74	29.8
725.142	29.91
725.544	29.96
725.945	30.05
726.347	30.09
726.748	30.16
727.15	30.21
727.551	30.29
727.952	30.36
728.354	30.43
728.755	30.5
729.156	30.55
729.557	30.57
729.958	30.62
730.359	30.66
730.76	30.7
731.161	30.74
731.562	30.81
731.962	30.84
732.363	30.88
732.763	30.91
733.164	30.94
733.564	30.98
733.965	31.03
734.365	31.09
734.766	31.11
735.166	31.17
735.566	31.19
735.966	31.23
736.366	31.25
736.766	31.26
737.166	31.28
737.566	31.31
737.966	31.34
738.365	31.36
738.765	31.39
739.165	31.42
739.564	31.45
739.964	31.48
740.363	31.5
740.763	31.53
741.162	31.56
741.561	31.56
741.96	31.57
742.36	31.59
742.759	31.61
743.158	31.62
743.557	31.65
743.955	31.69
744.354	31.73
744.753	31.76
745.152	31.8
745.55	31.83
745.949	31.88
746.348	31.91
746.746	31.93
747.144	31.99
747.543	32
747.941	32.03
748.339	32.02
748.737	32.02
749.136	32.05
749.534	32.07
749.932	32.09
750.33	32.1
750.727	32.13
751.125	32.16
751.523	32.14
751.921	32.14
752.318	32.12
752.716	32.14
753.113	32.17
753.511	32.17
753.908	32.17
754.305	32.16
754.703	32.16
755.1	32.13
755.497	32.13
755.894	32.13
756.291	32.13
756.688	32.13
757.085	32.16
757.482	32.13
757.878	32.13
758.275	32.11
758.672	32.11
759.068	32.12
759.465	32.13
759.861	32.14
760.258	32.14
760.654	32.15
761.05	32.17
761.447	32.15
761.843	32.17
762.239	32.15
762.635	32.18
763.031	32.2
763.427	32.18
763.822	32.18
764.218	32.17
764.614	32.18
765.01	32.17
765.405	32.18
765.801	32.16
766.196	32.17
766.592	32.21
766.987	32.19
767.382	32.19
767.778	32.2
768.173	32.22
768.568	32.22
768.963	32.24
769.358	32.25
769.753	32.25
770.148	32.29
770.542	32.3
770.937	32.29
771.332	32.32
771.726	32.35
772.121	32.36
772.515	32.37
772.91	32.4
773.304	32.42
773.699	32.43
774.093	32.43
774.487	32.44
774.881	32.45
775.275	32.47
775.669	32.47
776.063	32.49
776.457	32.52
776.851	32.5
777.245	32.5
777.638	32.52
778.032	32.54
778.425	32.59
778.819	32.6
779.212	32.62
779.606	32.63
779.999	32.65
780.392	32.66
780.786	32.67
781.179	32.72
781.572	32.75
781.965	32.75
782.358	32.77
782.751	32.76
783.143	32.76
783.536	32.77
783.929	32.76
784.322	32.77
784.714	32.79
785.107	32.81
785.499	32.82
785.891	32.82
786.284	32.84
786.676	32.87
787.068	32.89
787.46	32.94
787.852	32.96
788.245	33
788.636	32.99
789.028	33
789.42	33
789.812	33.03
790.204	33.03
790.595	33.04
790.987	33.05
791.378	33.06
791.77	33.06
792.161	33.07
792.553	33.09
792.944	33.1
793.335	33.12
793.726	33.15
794.117	33.14
794.508	33.15
794.899	33.15
795.29	33.15
795.681	33.17
796.072	33.19
796.463	33.2
796.853	33.2
797.244	33.22
797.634	33.24
798.025	33.26
798.415	33.28
798.806	33.31
799.196	33.33
799.586	33.35
799.976	33.35
800.366	33.36
800.756	33.38
801.146	33.39
801.536	33.42
801.926	33.41
802.316	33.41
802.706	33.42
803.095	33.44
803.485	33.44
803.874	33.44
804.264	33.47
804.653	33.47
805.043	33.48
805.432	33.49
805.821	33.5
806.21	33.54
806.599	33.53
806.988	33.55
807.377	33.55
807.766	33.58
808.155	33.59
808.544	33.61
808.933	33.63
809.321	33.61
809.71	33.62
810.098	33.6
810.487	33.6
810.875	33.62
811.264	33.62
811.652	33.64
812.04	33.66
812.428	33.71
812.816	33.69
813.204	33.67
813.592	33.69
813.98	33.71
814.368	33.73
814.756	33.73
815.144	33.72
815.531	33.71
815.919	33.68
816.306	33.68
816.694	33.64
817.081	33.68
817.469	33.68
817.856	33.68
818.243	33.66
818.63	33.65
819.017	33.66
819.404	33.68
819.791	33.68
820.178	33.71
820.565	33.7
820.952	33.71
821.339	33.7
821.725	33.72
822.112	33.73
822.498	33.74
822.885	33.76
823.271	33.76
823.657	33.73
824.044	33.76
824.43	33.75
824.816	33.76
825.202	33.75
825.588	33.75
825.974	33.74
826.36	33.73
826.746	33.71
827.132	33.71
827.517	33.72
827.903	33.75
828.289	33.75
828.674	33.74
829.06	33.71
829.445	33.68
829.83	33.68
830.216	33.67
830.601	33.65
830.986	33.66
831.371	33.64
831.756	33.62
832.141	33.59
832.526	33.56
832.911	33.55
833.295	33.56
833.68	33.58
834.065	33.56
834.449	33.55
834.834	33.56
835.218	33.55
835.603	33.55
835.987	33.53
836.371	33.53
836.755	33.5
837.139	33.49
837.524	33.49
837.908	33.48
838.291	33.48
838.675	33.48
839.059	33.48
839.443	33.43
839.827	33.42
840.21	33.44
840.594	33.45
840.977	33.47
841.361	33.46
841.744	33.43
842.127	33.41
842.511	33.4
842.894	33.4
843.277	33.39
843.66	33.39
844.043	33.39
844.426	33.36
844.809	33.37
845.191	33.37
845.574	33.37
845.957	33.39
846.339	33.42
846.722	33.43
847.104	33.46
847.487	33.46
847.869	33.47
848.252	33.48
848.634	33.49
849.016	33.49
849.398	33.49
849.78	33.51
850.162	33.49
850.544	33.48
850.926	33.47
851.307	33.45
851.689	33.47
852.071	33.48
852.452	33.49
852.834	33.51
853.215	33.51
853.597	33.53
853.978	33.53
854.359	33.55
854.741	33.56
855.122	33.57
855.503	33.57
855.884	33.57
856.265	33.58
856.646	33.58
857.026	33.58
857.407	33.59
857.788	33.57
858.169	33.58
858.549	33.58
858.93	33.6
859.31	33.58
859.69	33.6
860.071	33.62
860.451	33.62
860.831	33.62
861.211	33.61
861.591	33.61
861.971	33.63
862.351	33.64
862.731	33.64
863.111	33.64
863.491	33.65
863.87	33.63
864.25	33.61
864.629	33.63
865.009	33.63
865.388	33.65
865.768	33.67
866.147	33.66
866.526	33.65
866.905	33.65
867.284	33.67
867.663	33.68
868.042	33.7
868.421	33.73
868.8	33.74
869.179	33.75
869.558	33.74
869.936	33.74
870.315	33.73
870.693	33.75
871.072	33.76
871.45	33.77
871.828	33.76
872.207	33.78
872.585	33.77
872.963	33.76
873.341	33.76
873.719	33.77
874.097	33.78
874.475	33.81
874.853	33.8
875.23	33.79
875.608	33.78
875.986	33.82
876.363	33.8
876.741	33.82
877.118	33.83
877.495	33.84
877.873	33.84
878.25	33.85
878.627	33.86
879.004	33.89
879.381	33.91
879.758	33.9
880.135	33.9
880.512	33.88
880.889	33.89
881.265	33.88
881.642	33.89
882.019	33.9
882.395	33.88
882.772	33.88
883.148	33.85
883.524	33.84
883.901	33.85
884.277	33.84
884.653	33.84
885.029	33.84
885.405	33.83
885.781	33.83
886.157	33.84
886.532	33.84
886.908	33.81
887.284	33.81
887.659	33.79
888.035	33.77
888.411	33.75
888.786	33.74
889.161	33.74
889.537	33.73
889.912	33.71
890.287	33.69
890.662	33.66
891.037	33.67
891.412	33.62
891.787	33.62
892.162	33.61
892.536	33.59
892.911	33.57
893.286	33.54
893.66	33.53
894.035	33.53
894.409	33.52
894.784	33.53
895.158	33.52
895.532	33.53
895.906	33.53
896.281	33.5
896.655	33.51
897.029	33.52
897.402	33.51
897.776	33.52
898.15	33.52
898.524	33.53
898.898	33.54
899.271	33.55
899.645	33.6
900.018	33.63
900.392	33.66
900.765	33.69
901.138	33.71
901.511	33.73
901.884	33.77
902.258	33.78
902.631	33.79
903.003	33.81
903.376	33.81
903.749	33.81
904.122	33.83
904.495	33.87
904.867	33.87
905.24	33.89
905.612	33.92
905.985	33.91
906.357	33.9
906.729	33.93
907.102	33.93
907.474	33.96
907.846	33.98
908.218	33.97
908.59	33.98
908.962	33.99
909.334	34.02
909.705	34.02
910.077	34.04
910.449	34.07
910.82	34.08
911.192	34.11
911.563	34.1
911.935	34.09
912.306	34.12
912.677	34.14
913.048	34.17
913.419	34.18
913.79	34.19
914.161	34.22
914.532	34.23
914.903	34.25
915.274	34.24
915.645	34.27
916.015	34.28
916.386	34.25
916.756	34.24
917.127	34.23
917.497	34.25
917.868	34.25
918.238	34.24
918.608	34.29
918.978	34.29
919.348	34.32
919.718	34.31
920.088	34.34
920.458	34.35
920.828	34.37
921.198	34.38
921.567	34.37
921.937	34.4
922.306	34.41
922.676	34.4
923.045	34.41
923.415	34.4
923.784	34.4
924.153	34.42
924.522	34.44
924.891	34.44
925.26	34.47
925.629	34.51
925.998	34.51
926.367	34.52
926.736	34.52
927.104	34.52
927.473	34.52
927.842	34.51
928.21	34.52
928.578	34.54
928.947	34.57
929.315	34.58
929.683	34.57
930.051	34.54
930.42	34.52
930.788	34.52
931.156	34.52
931.523	34.5
931.891	34.52
932.259	34.54
932.627	34.53
932.994	34.52
933.362	34.48
933.729	34.48
934.097	34.53
934.464	34.59
934.831	34.59
935.199	34.63
935.566	34.66
935.933	34.71
936.3	34.72
936.667	34.75
937.034	34.81
937.401	34.88
937.767	34.93
938.134	34.98
938.501	35
938.867	35.06
939.234	35.1
939.6	35.17
939.967	35.2
940.333	35.22
940.699	35.28
941.065	35.26
941.431	35.31
941.798	35.32
942.163	35.26
942.529	35.28
942.895	35.29
943.261	35.26
943.627	35.26
943.992	35.25
944.358	35.25
944.723	35.23
945.089	35.17
945.454	35.14
945.82	35.15
946.185	35.21
946.55	35.2
946.915	35.19
947.28	35.18
947.645	35.19
948.01	35.2
948.375	35.22
948.74	35.21
949.104	35.27
949.469	35.26
949.834	35.23
950.198	35.16
950.562	35.16
950.927	35.15
951.291	35.12
951.655	35.07
952.02	35.07
952.384	35
952.748	34.95
953.112	34.9
953.476	34.86
953.839	34.82
954.203	34.76
954.567	34.69
954.931	34.65
955.294	34.59
955.658	34.59
956.021	34.52
956.385	34.48
956.748	34.44
957.111	34.43
957.474	34.46
957.837	34.47
958.2	34.49
958.563	34.5
958.926	34.47
959.289	34.52
959.652	34.48
960.015	34.52
960.377	34.59
960.74	34.64
961.102	34.6
961.465	34.56
961.827	34.58
962.189	34.63
962.552	34.59
962.914	34.56
963.276	34.61
963.638	34.64
964	34.63
964.362	34.63
964.724	34.63
965.085	34.63
965.447	34.65
965.809	34.59
966.17	34.61
966.532	34.67
966.893	34.76
967.255	34.73
967.616	34.73
967.977	34.72
968.338	34.68
968.699	34.66
969.061	34.69
969.421	34.72
969.782	34.79
970.143	34.73
970.504	34.74
970.865	34.7
971.225	34.7
971.586	34.72
971.946	34.72
972.307	34.73
972.667	34.77
973.027	34.78
973.388	34.76
973.748	34.79
974.108	34.88
974.468	34.89
974.828	34.97
975.188	35.01
975.548	35
975.907	35.01
976.267	35.03
976.627	35.04
976.986	35.06
977.346	35.08
977.705	35.09
978.064	35.09
978.424	35.14
978.783	35.1
979.142	35.12
979.501	35.21
979.86	35.27
980.219	35.36
980.578	35.44
980.937	35.44
981.296	35.43
981.654	35.41
982.013	35.47
982.371	35.45
982.73	35.47
983.088	35.47
983.447	35.46
983.805	35.56
984.163	35.51
984.521	35.44
984.879	35.51
985.237	35.56
985.595	35.62
985.953	35.59
986.311	35.58
986.669	35.63
987.026	35.7
987.384	35.77
987.741	35.69
988.099	35.74
988.456	35.78
988.814	35.8
989.171	35.86
989.528	35.96
989.885	36
990.242	36.07
990.599	36.13
990.956	36.17
991.313	36.21
991.67	36.31
992.027	36.42
992.383	36.55
992.74	36.63
993.096	36.65
993.453	36.66
993.809	36.75
994.165	36.84
994.522	36.88
994.878	36.94
995.234	36.99
995.59	37.04
995.946	37.12
996.302	37.13
996.658	37.19
997.013	37.28
997.369	37.26
997.725	37.29
998.08	37.37
998.436	37.42
998.791	37.45
999.147	37.41
999.502	37.44
999.857	37.41
1000.212	37.32
1000.567	37.32
1000.922	37.34
1001.277	37.4
1001.632	37.46
1001.987	37.43
1002.342	37.47
1002.696	37.53
1003.051	37.69
1003.406	37.81
1003.76	37.8
1004.114	37.97
1004.469	38.15
1004.823	38.41
1005.177	38.46
1005.531	38.49
1005.885	38.54
1006.239	38.61
1006.593	38.71
1006.947	38.7
1007.301	38.65
1007.655	38.61
1008.008	38.75
1008.362	38.74
1008.715	38.67
1009.069	38.8
1009.422	38.86
1009.776	38.95
1010.129	39.1
1010.482	39.2
1010.835	39.34
1011.188	39.47
1011.541	39.71
1011.894	39.7
1012.247	39.78
1012.6	39.89
1012.952	39.92
1013.305	40.08
1013.657	40.17
1014.01	40.19
1014.362	40.26
1014.715	40.3
1015.067	40.55
1015.419	40.59
1015.771	40.65
1016.123	40.74
1016.475	40.78
1016.827	40.93
1017.179	41.12
1017.531	41.46
1017.883	41.61
1018.234	41.68
1018.586	41.81
1018.938	41.72
1019.289	41.81
1019.64	41.88
1019.992	41.93
1020.343	42.01
1020.694	42.11
1021.045	41.77
1021.396	41.52
1021.747	41.61
1022.098	41.58
1022.449	41.56
1022.8	41.91
1023.151	42.26
1023.501	42.57
1023.852	42.83
1024.202	42.89
1024.553	43.01
1024.903	43.55
1025.253	43.84
1025.604	44.07
1025.954	44.15
1026.304	44.36
1026.654	44.18
1027.004	44.13
1027.354	44.13
1027.703	43.92
1028.053	44.01
1028.403	44.07
1028.753	43.84
1029.102	44.03
1029.452	43.91
1029.801	44.2
1030.15	44.25
1030.499	44.2
897.758	933.69
901.051	941.2
904.343	943.44
907.636	958.67
910.928	931.52
914.22	931.43
917.511	919.42
920.803	881.08
924.094	877.56
927.384	857.79
930.675	827.54
933.965	821.45
937.255	772.09
940.544	739.38
943.834	708.04
947.123	702.73
950.411	660.9
953.7	649.5
956.988	612.09
960.276	586.62
963.563	580.43
966.851	556.02
970.138	552.24
973.424	536.54
976.711	538.78
979.997	509.12
983.283	506.81
986.568	497.04
989.853	484.19
993.138	475.07
996.423	460.87
999.708	446.37
1002.992	442.32
1006.275	424.95
1009.559	421.66
1012.842	405.28
1016.125	396.54
1019.408	388.3
1022.69	385.1
1025.972	375.21
1029.254	367.2
1032.536	359.49
1035.817	353.05
1039.098	348.95
1042.379	340.84
1045.659	336.71
1048.939	328.76
1052.219	323.65
1055.498	320.47
1058.778	311.09
1062.057	306.39
1065.335	303.48
1068.614	300.87
1071.892	296.94
1075.17	288.69
1078.447	283.49
1081.724	281.05
1085.001	279.73
1088.278	273.5
1091.554	268.18
1094.83	269.56
1098.106	266.5
1101.382	263.71
1104.657	261.14
1107.932	257.47
1111.206	258.59
1114.481	252.56
1117.755	251.34
1121.029	249.04
1124.302	248.23
1127.575	244.55
1130.848	241.37
1134.121	238.88
1137.393	238.23
1140.665	233.52
1143.937	231.13
1147.208	230.3
1150.48	229.67
1153.75	225.76
1157.021	223.68
1160.291	223.8
1163.561	219.92
1166.831	220.25
1170.101	218.56
1173.37	218.64
1176.639	218.8
1179.907	217.72
1183.176	214.26
1186.444	214.1
1189.711	213.8
1192.979	213.69
1196.246	212.12
1199.513	213.53
1202.78	211.59
1206.046	211.52
1209.312	208.93
1212.578	209.54
1215.843	210.65
1219.108	210.71
1222.373	214.42
1225.638	215.66
1228.902	217.61
1232.166	218.11
1235.43	219.04
1238.693	222.31
1241.956	224.08
1245.219	227.01
1248.482	227.51
1251.744	227.33
1255.006	228.69
1258.268	223.65
1261.529	222.07
1264.79	221.63
1268.051	219.43
1271.312	217.42
1274.572	214.53
1277.832	212.86
1281.092	208.9
1284.351	207.05
1287.61	207.29
1290.869	203.1
1294.128	201.99
1297.386	201.32
1300.644	199
1303.902	200.57
1307.159	200.26
1310.416	199.66
1313.673	198.38
1316.93	200.92
1320.186	200.66
1323.442	201.12
1326.697	204.34
1329.953	205.18
1333.208	206.24
1336.463	208.39
1339.717	208.53
1342.972	210.12
1346.226	212.31
1349.479	213.19
1352.733	214.07
1355.986	215.85
1359.238	214.87
1362.491	214.33
1365.743	217.48
1368.995	217.87
1372.247	216.79
1375.498	216.39
1378.749	216.77
1382	215.29
1385.251	215.71
1388.501	215.07
1391.751	213.71
1395	213.53
1398.25	212.66
1401.499	209.61
1404.748	208.77
1407.996	206.88
1411.244	206.29
1414.492	205.45
1417.74	202.4
1420.987	199.61
1424.234	198.93
1427.481	197.35
1430.728	197.26
1433.974	195.36
1437.22	193.6
1440.465	192.94
1443.711	190.89
1446.956	189.55
1450.201	187.67
1453.445	186.23
1456.689	185.21
1459.933	181.67
1463.177	180.45
1466.42	178.29
1469.663	176.47
1472.906	175.29
1476.148	170.77
1479.391	169.15
1482.633	167.91
1485.874	165.66
1489.115	164.51
1492.356	162.96
1495.597	162.79
1498.838	160.42
1502.078	158.89
1505.318	158.05
1508.557	158.47
1511.797	158.37
1515.036	156.63
1518.274	156.45
1521.513	155.57
1524.751	155.34
1527.989	155.14
1531.227	154.41
1534.464	154.27
1537.701	154.05
1540.938	153.72
1544.174	151.51
1547.41	152.35
1550.646	152.22
1553.882	151.35
1557.117	149.88
1560.352	149.05
1563.587	148.51
1566.821	147.6
1570.055	147.07
1573.289	145.52
1576.523	145.6
1579.756	144.9
1582.989	143.57
1586.222	143.53
1589.454	143.05
1592.686	143.89
1595.918	143.43
1599.15	142.88
1602.381	143.34
1605.612	142.78
1608.843	143.09
1612.073	143.28
1615.303	143.8
1618.533	144.04
1621.762	143.98
1624.992	144.37
1628.221	143.78
1631.449	143.09
1634.678	143.71
1637.906	144.54
1641.134	143.86
1644.361	143.71
1647.588	143.83
1650.815	143.5
1654.042	143.23
1657.269	143.53
1660.495	143.36
1663.72	143.77
1666.946	144.91
1670.171	144.86
1673.396	144.12
1676.621	144.35
1679.845	145.14
1683.069	145.77
1686.293	146.08
1689.517	146.51
1692.74	146.72
1695.963	147.29
1699.185	147.68
1702.408	148.09
1705.63	148.3
1708.852	148.79
1712.073	149.43
1715.294	149.34
1718.515	149.81
1721.736	149.92
1724.956	150.78
1728.176	150.7
1731.396	151.42
1734.616	151.01
1737.835	151.25
1741.054	150.15
1744.272	150.72
1747.491	151.99
1750.709	152.26
1753.927	151.55
1757.144	151.82
1760.361	151.54
1763.578	152.06
1766.795	151.72
1770.011	153.42
1773.227	152.8
1776.443	154.7
1779.658	154.89
1782.874	154.96
1786.089	154.74
1789.303	155.41
1792.518	157.11
1795.732	156.71
1798.945	157.82
1802.159	158.1
1805.372	157.58
1808.585	160.63
1811.797	160.83
1815.01	161.22
1818.222	162.06
1821.434	164.69
1824.645	164.78
1827.856	166.7
1831.067	167.68
1834.278	167.92
1837.488	169.47
1840.698	170.58
1843.908	168.7
1847.117	169.52
1850.326	170.88
1853.535	170.45
1856.744	171.83
1859.952	172.05
1863.16	170.45
1866.368	170.13
1869.575	170.84
1872.782	168.94
1875.989	167.91
1879.196	168.29
1882.402	167.13
1885.608	166.55
1888.814	166.55
1892.019	166.04
1895.224	165.1
1898.429	164.93
1901.634	165.17
1904.838	165.48
1908.042	165.83
1911.246	166.86
1914.449	166.49
1917.652	167.27
1920.855	167.17
1924.058	167.73
1927.26	166.51
1930.462	167.46
1933.664	168.63
1936.865	167.74
1940.066	167.03
1943.267	166.81
1946.467	166.81
1949.668	167.53
1952.868	169.61
1956.067	170.34
1959.267	170.05
1962.466	170.72
1965.665	169.87
1968.863	170.24
1972.061	173.76
1975.259	175.19
1978.457	175.99
1981.654	177.68
1984.852	178.49
1988.048	177.46
1991.245	179.58
1994.441	180.65
1997.637	182.43
2000.833	186.39
2004.028	188.71
2007.223	188.54
2010.418	190.08
2013.613	194.37
2016.807	195.66
2020.001	197.27
2023.194	201.16
2026.388	204.62
2029.581	210.48
2032.774	211.48
2035.966	214.6
2039.158	215.44
2042.35	219.13
2045.542	221.23
2048.733	223.78
2051.924	228.22
2055.115	231.38
2058.306	231.11
2061.496	233.02
2064.686	232.52
2067.875	238.47
2071.065	239.33
2074.254	237.48
2077.442	241.38
2080.631	242.4
2083.819	244.43
2087.007	244.26
2090.195	247.15
2093.382	249.65
2096.569	248.38
2099.756	252.29
2102.942	251.68
2106.128	253.61
2109.314	260.87
2112.5	259.66
2115.685	265.01
2118.87	265.88
2122.055	270.11
2125.239	272.24
2128.424	274.82
2131.608	277.4
2134.791	281.07
2137.974	282.41
2141.157	283.85
2144.34	283.85
2147.523	289.36
2150.705	287.67
2153.887	290.25
2157.068	290.66
2160.25	288.37
2163.431	289.53
2166.611	293.01
2169.792	297.7
2172.972	300.71
2176.152	303.68
2179.331	307.23
2182.511	309.86
2185.69	313.2
2188.868	319.39
2192.047	319.93
2195.225	329.64
2198.403	338.03
2201.58	345.48
2204.758	350.57
2207.935	357.9
2211.111	363.5
2214.288	367.25
2217.464	368.81
2220.64	376
2223.815	380.22
2226.991	395.83
2230.166	395.73
2233.34	399.91
2236.515	406.46
2239.689	409.29
2242.863	410.46
2246.036	419.83
2249.209	417.29
2252.382	426.01
2255.555	435.75
2258.727	437.7
2261.9	441.43
2265.071	446.08
2268.243	456.6
2271.414	459.64
2274.585	467.49
2277.756	472.21
2280.926	477.42
2284.096	489.72
2287.266	498.52
2290.436	503.83
2293.605	513.88
2296.774	528.35
2299.942	545.67
2303.111	547
2306.279	556.89
2309.447	567.08
2312.614	583.34
2315.781	598.47
2318.948	626.14
2322.115	617.77
2325.281	650.52
2328.447	641.11
2331.613	665.73
2334.779	657.25
2337.944	687.9
2341.109	695.49
2344.274	712.63
2347.438	737.49
2350.602	737.86
2353.766	757.58
2356.929	770.26
2360.092	765.67
2363.255	816.5
2366.418	814.35
2369.58	828.71
2372.742	882.23
2375.904	905.91
2379.066	901.12
2382.227	879.5
2385.388	952.24
2388.548	953.69
2391.709	962.7
2394.869	1073.79
2398.029	1034.67
2401.188	1067.32
2404.347	1061.89
2407.506	1037.74
2410.665	1066.63
2413.823	1129.44
2416.981	1194.77
2420.139	1165.81
2423.296	1148.11
2426.453	1204.08
2429.61	1159.38
2432.767	1206.67
2435.923	1192.5
2439.079	1311.76
2442.235	1335.83
2445.391	1321.31
2448.546	1310.5
2451.701	1276.47
2454.855	1264.14
2458.009	1354.75
2461.163	1400.24
2464.317	1449.3
2467.471	1488.76
2470.624	1485.89
2473.777	1441.62
2476.929	1398.47
2480.082	1360.21
2483.234	1348.73
2486.385	1426
2489.537	1434.46
2492.688	1476.85
2495.839	1445.79
2498.989	1406.95
2502.14	1406.98
2505.29	1424.04
2508.439	1443.17
2511.589	1439.29
2514.738	1573.07
2517.887	1537.47
2521.035	1609.5
2524.183	1635.48
2527.331	1645.38
2530.479	1628.34
2533.627	1647.55
