Data from N_3_HIR_WI_4N_Splice17_14-07-39-708.txt Node
Date: Sat Mar 07 14:07:39 EST 2020
User: sa697716
Spectrometer: NQ5500242
Trigger mode: 0
Integration Time (sec): 1.450000E-1
Scans to average: 20
Nonlinearity correction enabled: false
Boxcar width: 5
Storing dark spectrum: false
XAxis mode: Wavelengths
Number of Pixels in Spectrum: 512
>>>>>Begin Spectral Data<<<<<
187.83	148.14
188.298	154.42
188.766	120.63
189.233	99.45
189.701	92.17
190.169	122.14
190.636	120.75
191.104	93.5
191.571	-115.91
192.039	-134.93
192.506	-22.86
192.974	83.02
193.441	172.48
193.908	-3.01
194.375	-3.55
194.842	-63.93
195.31	2.53
195.777	-38.03
196.244	46.36
196.711	57.02
197.177	61.15
197.644	62.02
198.111	62.05
198.578	62.39
199.045	63.04
199.511	62.88
199.978	63.16
200.445	63.39
200.911	63.66
201.378	64.05
201.844	64.16
202.31	63.76
202.777	64.18
203.243	64.03
203.709	63.57
204.176	63.11
204.642	62.87
205.108	62.33
205.574	61.76
206.04	60.96
206.506	60.04
206.972	59.66
207.438	59.1
207.903	57.86
208.369	56.48
208.835	55.42
209.301	54.11
209.766	52.48
210.232	50.96
210.697	49.39
211.163	47.96
211.628	46.79
212.094	45.37
212.559	44.11
213.024	42.95
213.49	42.07
213.955	40.88
214.42	39.86
214.885	38.6
215.35	37.11
215.815	34.91
216.28	32.3
216.745	29.39
217.21	26.5
217.675	23.85
218.14	21.38
218.604	19.3
219.069	17.51
219.534	15.98
219.998	14.77
220.463	13.68
220.927	12.81
221.392	12.1
221.856	11.49
222.32	10.95
222.785	10.51
223.249	10.14
223.713	9.78
224.177	9.5
224.642	9.21
225.106	8.91
225.57	8.68
226.034	8.44
226.497	8.25
226.961	8.05
227.425	7.87
227.889	7.68
228.353	7.51
228.816	7.34
229.28	7.16
229.744	7.02
230.207	6.89
230.671	6.76
231.134	6.64
231.597	6.52
232.061	6.4
232.524	6.3
232.987	6.19
233.45	6.1
233.914	6.01
234.377	5.91
234.84	5.83
235.303	5.76
235.766	5.69
236.229	5.61
236.691	5.53
237.154	5.47
237.617	5.41
238.08	5.33
238.542	5.27
239.005	5.22
239.468	5.17
239.93	5.12
240.393	5.07
240.855	5
241.317	4.95
241.78	4.9
242.242	4.84
242.704	4.79
243.166	4.75
243.629	4.72
244.091	4.65
244.553	4.59
245.015	4.53
245.477	4.47
245.939	4.43
246.4	4.38
246.862	4.34
247.324	4.3
247.786	4.25
248.247	4.21
248.709	4.15
249.17	4.11
249.632	4.09
250.093	4.06
250.555	4.03
251.016	3.99
251.477	3.96
251.939	3.93
252.4	3.9
252.861	3.87
253.322	3.85
253.783	3.83
254.244	3.8
254.705	3.77
255.166	3.75
255.627	3.73
256.088	3.71
256.549	3.67
257.009	3.64
257.47	3.62
257.931	3.59
258.391	3.55
258.852	3.51
259.312	3.48
259.773	3.45
260.233	3.41
260.694	3.37
261.154	3.33
261.614	3.3
262.074	3.26
262.534	3.23
262.994	3.2
263.455	3.17
263.915	3.14
264.374	3.11
264.834	3.09
265.294	3.07
265.754	3.05
266.214	3.03
266.673	3.01
267.133	2.99
267.593	2.98
268.052	2.97
268.512	2.96
268.971	2.95
269.431	2.94
269.89	2.92
270.349	2.91
270.809	2.9
271.268	2.88
271.727	2.87
272.186	2.86
272.645	2.85
273.104	2.83
273.563	2.82
274.022	2.81
274.481	2.8
274.94	2.8
275.399	2.79
275.857	2.78
276.316	2.77
276.775	2.77
277.233	2.77
277.692	2.76
278.15	2.76
278.609	2.76
279.067	2.75
279.525	2.76
279.984	2.76
280.442	2.75
280.9	2.76
281.358	2.76
281.816	2.76
282.274	2.76
282.732	2.76
283.19	2.76
283.648	2.76
284.106	2.76
284.564	2.76
285.021	2.76
285.479	2.76
285.937	2.76
286.394	2.75
286.852	2.75
287.309	2.74
287.767	2.73
288.224	2.73
288.682	2.71
289.139	2.7
289.596	2.68
290.053	2.66
290.511	2.64
290.968	2.63
291.425	2.61
291.882	2.6
292.339	2.59
292.796	2.57
293.252	2.56
293.709	2.55
294.166	2.54
294.623	2.54
295.079	2.53
295.536	2.53
295.992	2.52
296.449	2.51
296.905	2.51
297.362	2.5
297.818	2.49
298.274	2.49
298.731	2.48
299.187	2.47
299.643	2.46
300.099	2.46
300.555	2.45
301.011	2.45
301.467	2.44
301.923	2.43
302.379	2.43
302.835	2.43
303.291	2.43
303.746	2.43
304.202	2.44
304.658	2.45
305.113	2.45
305.569	2.46
306.024	2.46
306.479	2.46
306.935	2.46
307.39	2.47
307.845	2.47
308.301	2.47
308.756	2.48
309.211	2.47
309.666	2.48
310.121	2.49
310.576	2.49
311.031	2.5
311.486	2.5
311.94	2.51
312.395	2.51
312.85	2.51
313.305	2.52
313.759	2.52
314.214	2.52
314.668	2.51
315.123	2.51
315.577	2.5
316.032	2.5
316.486	2.49
316.94	2.49
317.394	2.48
317.849	2.47
318.303	2.46
318.757	2.45
319.211	2.44
319.665	2.42
320.119	2.41
320.572	2.4
321.026	2.39
321.48	2.39
321.934	2.38
322.387	2.37
322.841	2.37
323.295	2.37
323.748	2.37
324.202	2.36
324.655	2.36
325.108	2.37
325.562	2.38
326.015	2.37
326.468	2.37
326.921	2.37
327.374	2.38
327.827	2.38
328.28	2.38
328.733	2.38
329.186	2.39
329.639	2.39
330.092	2.38
330.545	2.39
330.997	2.39
331.45	2.41
331.903	2.42
332.355	2.43
332.808	2.43
333.26	2.43
333.713	2.43
334.165	2.43
334.617	2.45
335.069	2.45
335.522	2.45
335.974	2.46
336.426	2.46
336.878	2.46
337.33	2.46
337.782	2.47
338.234	2.47
338.686	2.48
339.137	2.49
339.589	2.48
340.041	2.49
340.493	2.48
340.944	2.47
341.396	2.46
341.847	2.45
342.299	2.43
342.75	2.43
343.201	2.41
343.653	2.4
344.104	2.38
344.555	2.37
345.006	2.35
345.457	2.35
345.908	2.35
346.359	2.35
346.81	2.35
347.261	2.35
347.712	2.34
348.163	2.33
348.613	2.33
349.064	2.34
349.515	2.35
349.965	2.36
350.416	2.35
350.866	2.35
351.317	2.36
351.767	2.36
352.217	2.37
352.668	2.38
353.118	2.39
353.568	2.4
354.018	2.41
354.468	2.42
354.918	2.43
355.368	2.45
355.818	2.47
356.268	2.48
356.718	2.49
357.168	2.5
357.617	2.52
358.067	2.53
358.517	2.56
358.966	2.59
359.416	2.62
359.865	2.65
360.315	2.68
360.764	2.71
361.213	2.74
361.663	2.78
362.112	2.83
362.561	2.88
363.01	2.94
363.459	2.98
363.908	3.04
364.357	3.1
364.806	3.16
365.255	3.23
365.703	3.32
366.152	3.41
366.601	3.5
367.05	3.59
367.498	3.69
367.947	3.8
368.395	3.92
368.844	4.03
369.292	4.14
369.74	4.27
370.189	4.39
370.637	4.52
371.085	4.64
371.533	4.76
371.981	4.9
372.429	5.04
372.877	5.18
373.325	5.32
373.773	5.47
374.221	5.62
374.669	5.77
375.116	5.93
375.564	6.07
376.012	6.23
376.459	6.39
376.907	6.56
377.354	6.72
377.801	6.88
378.249	7.04
378.696	7.19
379.143	7.35
379.591	7.5
380.038	7.66
380.485	7.82
380.932	7.96
381.379	8.11
381.826	8.25
382.273	8.38
382.72	8.51
383.166	8.64
383.613	8.78
384.06	8.89
384.506	9.01
384.953	9.14
385.4	9.26
385.846	9.37
386.292	9.48
386.739	9.59
387.185	9.7
387.631	9.82
388.078	9.91
388.524	10.01
388.97	10.11
389.416	10.2
389.862	10.29
390.308	10.37
390.754	10.44
391.2	10.51
391.645	10.56
392.091	10.63
392.537	10.69
392.983	10.73
393.428	10.79
393.874	10.83
394.319	10.86
394.765	10.87
395.21	10.87
395.655	10.89
396.101	10.92
396.546	10.93
396.991	10.93
397.436	10.93
397.881	10.96
398.326	10.97
398.771	10.97
399.216	10.97
399.661	10.98
400.106	10.97
400.551	10.96
400.995	10.93
401.44	10.89
401.885	10.87
402.329	10.84
402.774	10.8
403.218	10.76
403.663	10.73
404.107	10.7
404.551	10.66
404.995	10.63
405.44	10.58
405.884	10.55
406.328	10.52
406.772	10.47
407.216	10.43
407.66	10.38
408.104	10.33
408.547	10.29
408.991	10.26
409.435	10.22
409.879	10.18
410.322	10.16
410.766	10.14
411.209	10.12
411.653	10.1
412.096	10.08
412.54	10.08
412.983	10.06
413.426	10.06
413.869	10.04
414.312	10.02
414.756	10.01
415.199	9.98
415.642	9.96
416.085	9.94
416.527	9.92
416.97	9.88
417.413	9.83
417.856	9.79
418.298	9.74
418.741	9.71
419.184	9.7
419.626	9.67
420.069	9.65
420.511	9.63
420.953	9.62
421.396	9.6
421.838	9.59
422.28	9.6
422.722	9.6
423.164	9.59
423.606	9.59
424.048	9.56
424.49	9.55
424.932	9.52
425.374	9.47
425.816	9.41
426.258	9.37
426.699	9.33
427.141	9.3
427.582	9.28
428.024	9.27
428.465	9.25
428.907	9.24
429.348	9.21
429.789	9.2
430.231	9.22
430.672	9.24
431.113	9.25
431.554	9.27
431.995	9.28
432.436	9.28
432.877	9.3
433.318	9.31
433.759	9.34
434.2	9.39
434.64	9.42
435.081	9.44
435.522	9.47
435.962	9.51
436.403	9.57
436.843	9.61
437.284	9.65
437.724	9.69
438.164	9.72
438.604	9.77
439.045	9.82
439.485	9.88
439.925	9.93
440.365	9.98
440.805	10.04
441.245	10.1
441.685	10.17
442.125	10.28
442.564	10.36
443.004	10.43
443.444	10.52
443.883	10.6
444.323	10.69
444.762	10.8
445.202	10.91
445.641	11.01
446.081	11.13
446.52	11.22
446.959	11.35
447.398	11.45
447.837	11.57
448.276	11.67
448.716	11.77
449.154	11.89
449.593	12
450.032	12.08
450.471	12.15
450.91	12.23
451.349	12.33
451.787	12.37
452.226	12.43
452.664	12.49
453.103	12.54
453.541	12.59
453.98	12.64
454.418	12.65
454.856	12.69
455.295	12.72
455.733	12.74
456.171	12.76
456.609	12.81
457.047	12.83
457.485	12.86
457.923	12.89
458.361	12.92
458.798	12.94
459.236	12.98
459.674	13.02
460.111	13.04
460.549	13.09
460.987	13.11
461.424	13.13
461.862	13.16
462.299	13.17
462.736	13.19
463.173	13.21
463.611	13.25
464.048	13.27
464.485	13.3
464.922	13.31
465.359	13.32
465.796	13.35
466.233	13.36
466.67	13.38
467.106	13.41
467.543	13.41
467.98	13.42
468.416	13.41
468.853	13.41
469.29	13.42
469.726	13.43
470.162	13.44
470.599	13.45
471.035	13.46
471.471	13.47
471.907	13.47
472.344	13.5
472.78	13.51
473.216	13.51
473.652	13.53
474.088	13.51
474.523	13.54
474.959	13.54
475.395	13.53
475.831	13.54
476.266	13.56
476.702	13.55
477.138	13.54
477.573	13.57
478.008	13.59
478.444	13.6
478.879	13.64
479.314	13.64
479.75	13.66
480.185	13.68
480.62	13.7
481.055	13.73
481.49	13.75
481.925	13.79
482.36	13.82
482.795	13.86
483.229	13.9
483.664	13.95
484.099	14
484.534	14.05
484.968	14.13
485.403	14.2
485.837	14.28
486.271	14.38
486.706	14.47
487.14	14.57
487.574	14.67
488.009	14.79
488.443	14.89
488.877	15.02
489.311	15.16
489.745	15.31
490.179	15.46
490.613	15.63
491.046	15.79
491.48	15.96
491.914	16.14
492.348	16.32
492.781	16.5
493.215	16.71
493.648	16.92
494.082	17.12
494.515	17.34
494.948	17.57
495.382	17.8
495.815	18.04
496.248	18.3
496.681	18.56
497.114	18.82
497.547	19.09
497.98	19.36
498.413	19.63
498.846	19.92
499.279	20.21
499.711	20.49
500.144	20.77
500.577	21.07
501.009	21.35
501.442	21.64
501.874	21.94
502.306	22.25
502.739	22.57
503.171	22.89
503.603	23.2
504.036	23.53
504.468	23.85
504.9	24.18
505.332	24.51
505.764	24.86
506.196	25.2
506.627	25.56
507.059	25.91
507.491	26.26
507.923	26.6
508.354	26.96
508.786	27.31
509.217	27.67
509.649	28.04
510.08	28.39
510.512	28.74
510.943	29.09
511.374	29.44
511.805	29.79
512.237	30.14
512.668	30.49
513.099	30.84
513.53	31.18
513.961	31.51
514.391	31.85
514.822	32.2
515.253	32.52
515.684	32.83
516.114	33.15
516.545	33.45
516.975	33.74
517.406	34.04
517.836	34.33
518.267	34.64
518.697	34.91
519.127	35.15
519.558	35.43
519.988	35.71
520.418	35.97
520.848	36.22
521.278	36.46
521.708	36.82
522.138	37.04
522.567	37.27
522.997	37.47
523.427	37.68
523.857	37.9
524.286	38.07
524.716	38.25
525.145	38.42
525.575	38.6
526.004	38.77
526.433	38.81
526.863	38.99
527.292	39.14
527.721	39.26
528.15	39.4
528.579	39.52
529.008	39.65
529.437	39.78
529.866	39.89
530.295	40
530.724	40.12
531.152	40.24
531.581	40.33
532.01	40.42
532.438	40.54
532.867	40.62
533.295	40.71
533.723	40.79
534.152	40.86
534.58	40.94
535.008	40.98
535.436	41.03
535.865	41.08
536.293	41.12
536.721	41.15
537.149	41.19
537.576	41.23
538.004	41.28
538.432	41.3
538.86	41.33
539.287	41.35
539.715	41.41
540.143	41.42
540.57	41.45
540.998	41.47
541.425	41.51
541.852	41.55
542.28	41.59
542.707	41.61
543.134	41.66
543.561	41.68
543.988	41.7
544.415	41.7
544.842	41.73
545.269	41.77
545.696	41.81
546.123	41.82
546.549	41.84
546.976	41.87
547.403	41.9
547.829	41.92
548.256	41.94
548.682	41.98
549.108	42.05
549.535	42.11
549.961	42.13
550.387	42.15
550.813	42.2
551.24	42.22
551.666	42.22
552.092	42.25
552.518	42.27
552.943	42.3
553.369	42.31
553.795	42.31
554.221	42.31
554.646	42.31
555.072	42.31
555.498	42.29
555.923	42.28
556.349	42.28
556.774	42.25
557.199	42.22
557.625	42.2
558.05	42.17
558.475	42.15
558.9	42.11
559.325	42.09
559.75	42.08
560.175	42.05
560.6	41.99
561.025	41.94
561.449	41.89
561.874	41.83
562.299	41.79
562.723	41.71
563.148	41.63
563.572	41.55
563.997	41.46
564.421	41.34
564.846	41.24
565.27	41.15
565.694	41.08
566.118	40.99
566.542	40.89
566.966	40.77
567.39	40.66
567.814	40.55
568.238	40.44
568.662	40.32
569.086	40.22
569.509	40.11
569.933	40
570.357	39.86
570.78	39.72
571.204	39.61
571.627	39.51
572.05	39.4
572.474	39.31
572.897	39.22
573.32	39.13
573.743	39.04
574.166	38.96
574.589	38.86
575.012	38.8
575.435	38.72
575.858	38.66
576.281	38.57
576.704	38.51
577.126	38.43
577.549	38.36
577.972	38.3
578.394	38.22
578.817	38.15
579.239	38.11
579.661	38.03
580.084	37.99
580.506	37.92
580.928	37.87
581.35	37.82
581.772	37.76
582.194	37.7
582.616	37.65
583.038	37.61
583.46	37.55
583.882	37.47
584.303	37.42
584.725	37.35
585.147	37.3
585.568	37.25
585.99	37.2
586.411	37.15
586.833	37.12
587.254	37.06
587.675	37.01
588.096	36.97
588.518	36.94
588.939	36.92
589.36	36.88
589.781	36.84
590.202	36.81
590.623	36.78
591.043	36.74
591.464	36.71
591.885	36.67
592.305	36.65
592.726	36.62
593.147	36.59
593.567	36.56
593.987	36.55
594.408	36.51
594.828	36.49
595.248	36.47
595.669	36.45
596.089	36.43
596.509	36.4
596.929	36.37
597.349	36.33
597.769	36.29
598.189	36.25
598.608	36.23
599.028	36.2
599.448	36.15
599.867	36.09
600.287	36.05
600.706	35.99
601.126	35.95
601.545	35.9
601.965	35.85
602.384	35.8
602.803	35.74
603.222	35.66
603.641	35.6
604.061	35.54
604.48	35.47
604.898	35.4
605.317	35.34
605.736	35.26
606.155	35.19
606.574	35.11
606.992	35.04
607.411	34.97
607.829	34.87
608.248	34.78
608.666	34.69
609.085	34.62
609.503	34.52
609.921	34.44
610.339	34.37
610.758	34.28
611.176	34.2
611.594	34.11
612.012	34.02
612.43	33.94
612.847	33.86
613.265	33.77
613.683	33.7
614.101	33.62
614.518	33.53
614.936	33.43
615.353	33.33
615.771	33.26
616.188	33.19
616.606	33.12
617.023	33.06
617.44	33.02
617.857	32.96
618.274	32.88
618.691	32.83
619.108	32.77
619.525	32.72
619.942	32.69
620.359	32.64
620.776	32.59
621.192	32.54
621.609	32.52
622.026	32.45
622.442	32.41
622.859	32.39
623.275	32.35
623.691	32.33
624.108	32.3
624.524	32.27
624.94	32.25
625.356	32.24
625.772	32.23
626.188	32.2
626.604	32.21
627.02	32.22
627.436	32.21
627.852	32.19
628.268	32.18
628.683	32.17
629.099	32.17
629.514	32.16
629.93	32.12
630.345	32.09
630.761	32.06
631.176	32.01
631.591	31.95
632.007	31.9
632.422	31.86
632.837	31.79
633.252	31.72
633.667	31.64
634.082	31.55
634.497	31.48
634.911	31.39
635.326	31.3
635.741	31.2
636.155	31.09
636.57	30.95
636.984	30.82
637.399	30.68
637.813	30.54
638.228	30.38
638.642	30.22
639.056	30.04
639.47	29.88
639.884	29.7
640.298	29.5
640.712	29.3
641.126	29.11
641.54	28.9
641.954	28.71
642.368	28.51
642.781	28.31
643.195	28.11
643.609	27.9
644.022	27.71
644.436	27.5
644.849	27.32
645.262	27.13
645.676	26.96
646.089	26.8
646.502	26.62
646.915	26.48
647.328	26.32
647.741	26.19
648.154	26.06
648.567	25.94
648.98	25.83
649.393	25.73
649.805	25.62
650.218	25.52
650.631	25.43
651.043	25.33
651.456	25.22
651.868	25.11
652.28	24.99
652.693	24.9
653.105	24.77
653.517	24.64
653.929	24.51
654.341	24.36
654.753	24.19
655.165	24.02
655.577	23.85
655.989	23.68
656.401	23.51
656.813	23.32
657.224	23.08
657.636	22.85
658.047	22.63
658.459	22.38
658.87	22.14
659.282	21.9
659.693	21.65
660.104	21.38
660.515	21.1
660.926	20.82
661.338	20.55
661.749	20.29
662.159	20.03
662.57	19.77
662.981	19.52
663.392	19.26
663.803	19.01
664.213	18.77
664.624	18.55
665.035	18.33
665.445	18.13
665.855	17.91
666.266	17.72
666.676	17.54
667.086	17.34
667.497	17.18
667.907	17.03
668.317	16.87
668.727	16.72
669.137	16.58
669.547	16.47
669.956	16.35
670.366	16.25
670.776	16.16
671.186	16.08
671.595	16
672.005	15.92
672.414	15.86
672.824	15.8
673.233	15.77
673.642	15.74
674.052	15.71
674.461	15.67
674.87	15.65
675.279	15.65
675.688	15.65
676.097	15.68
676.506	15.73
676.915	15.78
677.323	15.86
677.732	15.95
678.141	16.06
678.549	16.19
678.958	16.38
679.366	16.6
679.775	16.81
680.183	17.09
680.592	17.39
681	17.71
681.408	18.09
681.816	18.49
682.224	18.94
682.632	19.42
683.04	19.94
683.448	20.47
683.856	21.03
684.264	21.65
684.671	22.29
685.079	22.95
685.487	23.64
685.894	24.35
686.302	25.07
686.709	25.8
687.116	26.55
687.524	27.31
687.931	28.07
688.338	28.84
688.745	29.59
689.152	30.32
689.559	31.07
689.966	31.8
690.373	32.51
690.78	33.22
691.187	33.9
691.593	34.59
692	35.23
692.407	35.85
692.813	36.47
693.22	37.03
693.626	37.61
694.032	38.17
694.439	38.71
694.845	39.23
695.251	39.71
695.657	40.19
696.063	40.62
696.469	41.07
696.875	41.51
697.281	41.91
697.687	42.33
698.093	42.7
698.498	43.05
698.904	43.4
699.31	43.73
699.715	44.06
700.12	44.35
700.526	44.64
700.931	44.9
701.337	45.16
701.742	45.42
702.147	45.67
702.552	45.91
702.957	46.14
703.362	46.34
703.767	46.53
704.172	46.73
704.577	46.93
704.981	47.14
705.386	47.33
705.791	47.49
706.195	47.68
706.6	47.83
707.004	47.99
707.408	48.15
707.813	48.32
708.217	48.49
708.621	48.65
709.025	48.78
709.43	48.9
709.834	49.03
710.237	49.15
710.641	49.26
711.045	49.4
711.449	49.54
711.853	49.65
712.256	49.75
712.66	49.84
713.064	49.93
713.467	50.05
713.87	50.16
714.274	50.25
714.677	50.36
715.08	50.45
715.484	50.52
715.887	50.62
716.29	50.72
716.693	50.81
717.096	50.9
717.499	51
717.901	51.08
718.304	51.14
718.707	51.25
719.109	51.34
719.512	51.43
719.915	51.52
720.317	51.55
720.719	51.55
721.122	51.62
721.524	51.67
721.926	51.71
722.328	51.77
722.731	51.82
723.133	51.87
723.535	51.91
723.937	51.95
724.338	51.97
724.74	52.05
725.142	52.18
725.544	52.23
725.945	52.3
726.347	52.33
726.748	52.35
727.15	52.39
727.551	52.41
727.952	52.43
728.354	52.46
728.755	52.5
729.156	52.51
729.557	52.48
729.958	52.48
730.359	52.5
730.76	52.53
731.161	52.58
731.562	52.62
731.962	52.62
732.363	52.66
732.763	52.69
733.164	52.7
733.564	52.73
733.965	52.75
734.365	52.76
734.766	52.76
735.166	52.78
735.566	52.79
735.966	52.78
736.366	52.81
736.766	52.81
737.166	52.82
737.566	52.86
737.966	52.86
738.365	52.88
738.765	52.9
739.165	52.92
739.564	52.92
739.964	52.91
740.363	52.93
740.763	52.93
741.162	52.94
741.561	52.92
741.96	52.88
742.36	52.9
742.759	52.92
743.158	52.9
743.557	52.89
743.955	52.9
744.354	52.92
744.753	52.94
745.152	52.98
745.55	53.01
745.949	53.05
746.348	53.08
746.746	53.1
747.144	53.1
747.543	53.15
747.941	53.18
748.339	53.2
748.737	53.2
749.136	53.22
749.534	53.17
749.932	53.17
750.33	53.16
750.727	53.19
751.125	53.19
751.523	53.18
751.921	53.16
752.318	53.16
752.716	53.15
753.113	53.14
753.511	53.12
753.908	53.12
754.305	53.11
754.703	53.08
755.1	53.05
755.497	53.03
755.894	53.02
756.291	53.01
756.688	52.99
757.085	52.97
757.482	52.97
757.878	52.95
758.275	52.93
758.672	52.91
759.068	52.91
759.465	52.91
759.861	52.91
760.258	52.89
760.654	52.88
761.05	52.88
761.447	52.89
761.843	52.87
762.239	52.88
762.635	52.89
763.031	52.88
763.427	52.87
763.822	52.85
764.218	52.85
764.614	52.87
765.01	52.87
765.405	52.86
765.801	52.85
766.196	52.86
766.592	52.83
766.987	52.83
767.382	52.83
767.778	52.85
768.173	52.85
768.568	52.85
768.963	52.83
769.358	52.84
769.753	52.83
770.148	52.83
770.542	52.86
770.937	52.88
771.332	52.87
771.726	52.9
772.121	52.89
772.515	52.91
772.91	52.9
773.304	52.9
773.699	52.89
774.093	52.89
774.487	52.91
774.881	52.91
775.275	52.89
775.669	52.89
776.063	52.87
776.457	52.87
776.851	52.86
777.245	52.87
777.638	52.87
778.032	52.87
778.425	52.89
778.819	52.84
779.212	52.86
779.606	52.89
779.999	52.88
780.392	52.91
780.786	52.93
781.179	52.95
781.572	52.99
781.965	53.03
782.358	53.05
782.751	53.05
783.143	53.09
783.536	53.07
783.929	53.06
784.322	53.1
784.714	53.13
785.107	53.15
785.499	53.13
785.891	53.12
786.284	53.13
786.676	53.13
787.068	53.12
787.46	53.15
787.852	53.21
788.245	53.21
788.636	53.17
789.028	53.17
789.42	53.18
789.812	53.22
790.204	53.24
790.595	53.25
790.987	53.28
791.378	53.33
791.77	53.32
792.161	53.33
792.553	53.36
792.944	53.35
793.335	53.35
793.726	53.35
794.117	53.3
794.508	53.27
794.899	53.26
795.29	53.24
795.681	53.2
796.072	53.2
796.463	53.2
796.853	53.2
797.244	53.22
797.634	53.2
798.025	53.24
798.415	53.27
798.806	53.27
799.196	53.3
799.586	53.32
799.976	53.36
800.366	53.37
800.756	53.39
801.146	53.42
801.536	53.45
801.926	53.47
802.316	53.45
802.706	53.48
803.095	53.53
803.485	53.53
803.874	53.51
804.264	53.52
804.653	53.53
805.043	53.55
805.432	53.54
805.821	53.53
806.21	53.56
806.599	53.57
806.988	53.57
807.377	53.56
807.766	53.57
808.155	53.6
808.544	53.6
808.933	53.6
809.321	53.57
809.71	53.6
810.098	53.61
810.487	53.61
810.875	53.62
811.264	53.63
811.652	53.67
812.04	53.67
812.428	53.69
812.816	53.71
813.204	53.7
813.592	53.73
813.98	53.74
814.368	53.74
814.756	53.76
815.144	53.75
815.531	53.76
815.919	53.76
816.306	53.77
816.694	53.78
817.081	53.81
817.469	53.82
817.856	53.81
818.243	53.77
818.63	53.76
819.017	53.75
819.404	53.74
819.791	53.74
820.178	53.75
820.565	53.73
820.952	53.72
821.339	53.69
821.725	53.71
822.112	53.73
822.498	53.77
822.885	53.79
823.271	53.79
823.657	53.77
824.044	53.79
824.43	53.79
824.816	53.81
825.202	53.79
825.588	53.77
825.974	53.75
826.36	53.73
826.746	53.71
827.132	53.71
827.517	53.69
827.903	53.72
828.289	53.71
828.674	53.69
829.06	53.65
829.445	53.62
829.83	53.62
830.216	53.61
830.601	53.61
830.986	53.62
831.371	53.6
831.756	53.61
832.141	53.59
832.526	53.59
832.911	53.57
833.295	53.56
833.68	53.59
834.065	53.55
834.449	53.53
834.834	53.51
835.218	53.48
835.603	53.48
835.987	53.47
836.371	53.43
836.755	53.39
837.139	53.37
837.524	53.38
837.908	53.4
838.291	53.41
838.675	53.41
839.059	53.38
839.443	53.36
839.827	53.33
840.21	53.3
840.594	53.31
840.977	53.3
841.361	53.31
841.744	53.27
842.127	53.23
842.511	53.2
842.894	53.19
843.277	53.19
843.66	53.19
844.043	53.19
844.426	53.19
844.809	53.18
845.191	53.19
845.574	53.19
845.957	53.2
846.339	53.2
846.722	53.22
847.104	53.24
847.487	53.24
847.869	53.24
848.252	53.25
848.634	53.25
849.016	53.27
849.398	53.29
849.78	53.28
850.162	53.28
850.544	53.27
850.926	53.27
851.307	53.27
851.689	53.29
852.071	53.29
852.452	53.27
852.834	53.27
853.215	53.26
853.597	53.27
853.978	53.26
854.359	53.27
854.741	53.27
855.122	53.28
855.503	53.27
855.884	53.25
856.265	53.28
856.646	53.26
857.026	53.25
857.407	53.24
857.788	53.22
858.169	53.24
858.549	53.22
858.93	53.21
859.31	53.21
859.69	53.24
860.071	53.26
860.451	53.25
860.831	53.29
861.211	53.26
861.591	53.28
861.971	53.29
862.351	53.31
862.731	53.33
863.111	53.35
863.491	53.34
863.87	53.3
864.25	53.27
864.629	53.27
865.009	53.28
865.388	53.3
865.768	53.3
866.147	53.29
866.526	53.27
866.905	53.27
867.284	53.28
867.663	53.28
868.042	53.31
868.421	53.35
868.8	53.36
869.179	53.34
869.558	53.34
869.936	53.33
870.315	53.35
870.693	53.35
871.072	53.37
871.45	53.37
871.828	53.36
872.207	53.37
872.585	53.35
872.963	53.35
873.341	53.35
873.719	53.34
874.097	53.34
874.475	53.34
874.853	53.34
875.23	53.35
875.608	53.34
875.986	53.36
876.363	53.34
876.741	53.34
877.118	53.34
877.495	53.35
877.873	53.41
878.25	53.41
878.627	53.43
879.004	53.42
879.381	53.43
879.758	53.41
880.135	53.4
880.512	53.4
880.889	53.38
881.265	53.36
881.642	53.37
882.019	53.35
882.395	53.34
882.772	53.3
883.148	53.3
883.524	53.26
883.901	53.27
884.277	53.24
884.653	53.2
885.029	53.19
885.405	53.19
885.781	53.16
886.157	53.15
886.532	53.16
886.908	53.17
887.284	53.15
887.659	53.12
888.035	53.09
888.411	53.1
888.786	53.12
889.161	53.13
889.537	53.12
889.912	53.11
890.287	53.08
890.662	53.03
891.037	53.01
891.412	52.99
891.787	52.97
892.162	52.98
892.536	52.96
892.911	52.92
893.286	52.89
893.66	52.85
894.035	52.84
894.409	52.84
894.784	52.85
895.158	52.84
895.532	52.85
895.906	52.84
896.281	52.82
896.655	52.81
897.029	52.83
897.402	52.84
897.776	52.88
898.15	52.89
898.524	52.91
898.898	52.9
899.271	52.92
899.645	52.95
900.018	52.95
900.392	52.97
900.765	53
901.138	52.98
901.511	52.99
901.884	53
902.258	52.99
902.631	52.98
903.003	52.99
903.376	52.97
903.749	52.98
904.122	53.01
904.495	53.02
904.867	53.03
905.24	53.09
905.612	53.12
905.985	53.09
906.357	53.12
906.729	53.14
907.102	53.16
907.474	53.17
907.846	53.17
908.218	53.16
908.59	53.2
908.962	53.19
909.334	53.19
909.705	53.17
910.077	53.21
910.449	53.22
910.82	53.23
911.192	53.19
911.563	53.18
911.935	53.17
912.306	53.19
912.677	53.18
913.048	53.18
913.419	53.16
913.79	53.17
914.161	53.2
914.532	53.19
914.903	53.17
915.274	53.19
915.645	53.24
916.015	53.26
916.386	53.27
916.756	53.26
917.127	53.27
917.497	53.26
917.868	53.26
918.238	53.23
918.608	53.25
918.978	53.23
919.348	53.28
919.718	53.25
920.088	53.29
920.458	53.29
920.828	53.3
921.198	53.28
921.567	53.3
921.937	53.35
922.306	53.35
922.676	53.34
923.045	53.32
923.415	53.3
923.784	53.3
924.153	53.25
924.522	53.26
924.891	53.24
925.26	53.27
925.629	53.29
925.998	53.24
926.367	53.25
926.736	53.26
927.104	53.27
927.473	53.23
927.842	53.2
928.21	53.2
928.578	53.14
928.947	53.15
929.315	53.09
929.683	53.09
930.051	53.09
930.42	53.05
930.788	53.01
931.156	52.96
931.523	52.98
931.891	52.98
932.259	52.98
932.627	52.96
932.994	52.96
933.362	52.92
933.729	52.86
934.097	52.82
934.464	52.83
934.831	52.8
935.199	52.84
935.566	52.8
935.933	52.74
936.3	52.7
936.667	52.69
937.034	52.65
937.401	52.72
937.767	52.73
938.134	52.71
938.501	52.71
938.867	52.74
939.234	52.73
939.6	52.79
939.967	52.89
940.333	52.94
940.699	53
941.065	53.01
941.431	53.06
941.798	53.05
942.163	53.11
942.529	53.11
942.895	53.14
943.261	53.16
943.627	53.12
943.992	53.09
944.358	53.07
944.723	53.09
945.089	53.08
945.454	53.07
945.82	53.09
946.185	53.09
946.55	53.1
946.915	53.1
947.28	53.06
947.645	53.08
948.01	53.11
948.375	53.1
948.74	53.06
949.104	53.09
949.469	53.03
949.834	52.97
950.198	52.91
950.562	52.92
950.927	52.91
951.291	52.85
951.655	52.76
952.02	52.73
952.384	52.65
952.748	52.63
953.112	52.6
953.476	52.6
953.839	52.52
954.203	52.53
954.567	52.47
954.931	52.41
955.294	52.41
955.658	52.49
956.021	52.45
956.385	52.46
956.748	52.43
957.111	52.39
957.474	52.36
957.837	52.41
958.2	52.37
958.563	52.33
958.926	52.34
959.289	52.32
959.652	52.28
960.015	52.25
960.377	52.27
960.74	52.26
961.102	52.27
961.465	52.27
961.827	52.25
962.189	52.3
962.552	52.31
962.914	52.3
963.276	52.35
963.638	52.35
964	52.35
964.362	52.33
964.724	52.29
965.085	52.32
965.447	52.29
965.809	52.33
966.17	52.32
966.532	52.34
966.893	52.33
967.255	52.33
967.616	52.32
967.977	52.32
968.338	52.35
968.699	52.4
969.061	52.31
969.421	52.33
969.782	52.31
970.143	52.29
970.504	52.27
970.865	52.3
971.225	52.24
971.586	52.23
971.946	52.23
972.307	52.18
972.667	52.14
973.027	52.24
973.388	52.26
973.748	52.24
974.108	52.26
974.468	52.22
974.828	52.23
975.188	52.28
975.548	52.29
975.907	52.31
976.267	52.3
976.627	52.3
976.986	52.19
977.346	52.17
977.705	52.18
978.064	52.23
978.424	52.25
978.783	52.19
979.142	52.15
979.501	52.19
979.86	52.18
980.219	52.21
980.578	52.23
980.937	52.29
981.296	52.29
981.654	52.23
982.013	52.15
982.371	52.18
982.73	52.19
983.088	52.18
983.447	52.18
983.805	52.24
984.163	52.23
984.521	52.27
984.879	52.24
985.237	52.21
985.595	52.35
985.953	52.38
986.311	52.35
986.669	52.41
987.026	52.43
987.384	52.41
987.741	52.36
988.099	52.44
988.456	52.42
988.814	52.49
989.171	52.55
989.528	52.48
989.885	52.49
990.242	52.52
990.599	52.58
990.956	52.62
991.313	52.73
991.67	52.69
992.027	52.76
992.383	52.77
992.74	52.79
993.096	52.83
993.453	52.87
993.809	52.85
994.165	52.95
994.522	52.9
994.878	52.9
995.234	52.89
995.59	53.03
995.946	53.02
996.302	53.12
996.658	53.17
997.013	53.18
997.369	53.16
997.725	53.33
998.08	53.39
998.436	53.48
998.791	53.58
999.147	53.56
999.502	53.51
999.857	53.57
1000.212	53.53
1000.567	53.51
1000.922	53.54
1001.277	53.66
1001.632	53.6
1001.987	53.51
1002.342	53.4
1002.696	53.37
1003.051	53.47
1003.406	53.69
1003.76	53.68
1004.114	53.57
1004.469	53.78
1004.823	54.05
1005.177	54
1005.531	54.1
1005.885	54.21
1006.239	54.32
1006.593	54.41
1006.947	54.32
1007.301	54.17
1007.655	54.11
1008.008	54.41
1008.362	54.28
1008.715	54.17
1009.069	54.26
1009.422	54.17
1009.776	54.18
1010.129	54.3
1010.482	54.3
1010.835	54.46
1011.188	54.53
1011.541	54.68
1011.894	54.62
1012.247	54.7
1012.6	54.73
1012.952	54.83
1013.305	54.92
1013.657	54.99
1014.01	55.05
1014.362	55.17
1014.715	55.27
1015.067	55.33
1015.419	55.42
1015.771	55.39
1016.123	55.28
1016.475	55.41
1016.827	55.45
1017.179	55.54
1017.531	55.67
1017.883	55.68
1018.234	55.81
1018.586	55.75
1018.938	56.04
1019.289	55.98
1019.64	56.1
1019.992	56.24
1020.343	56.05
1020.694	56.16
1021.045	56.26
1021.396	56.17
1021.747	56.24
1022.098	55.97
1022.449	55.95
1022.8	55.89
1023.151	55.97
1023.501	55.97
1023.852	56.23
1024.202	56.32
1024.553	56.27
1024.903	56.29
1025.253	56.48
1025.604	56.72
1025.954	56.82
1026.304	57.3
1026.654	57.39
1027.004	57.4
1027.354	57.4
1027.703	57.36
1028.053	57.67
1028.403	57.95
1028.753	57.69
1029.102	57.75
1029.452	57.56
1029.801	57.83
1030.15	57.49
1030.499	57.3
897.758	1210.85
901.051	1221.25
904.343	1217.15
907.636	1237.8
910.928	1203.31
914.22	1200.8
917.511	1182.97
920.803	1135.28
924.094	1130.11
927.384	1105.07
930.675	1059.65
933.965	1053.47
937.255	990.29
940.544	950.98
943.834	905.53
947.123	899.15
950.411	846.82
953.7	829.18
956.988	787.84
960.276	753.47
963.563	739.2
966.851	714.04
970.138	708.13
973.424	686.47
976.711	690.44
979.997	657.29
983.283	653.24
986.568	640.98
989.853	621.35
993.138	608.29
996.423	588
999.708	573.67
1002.992	566.2
1006.275	542.17
1009.559	536.71
1012.842	517.4
1016.125	503.37
1019.408	493.51
1022.69	488.16
1025.972	479.09
1029.254	467.57
1032.536	459.33
1035.817	450.34
1039.098	445.27
1042.379	435.83
1045.659	431
1048.939	421.44
1052.219	413.29
1055.498	409.23
1058.778	398.59
1062.057	389.8
1065.335	385.68
1068.614	381.86
1071.892	377.83
1075.17	366.23
1078.447	359.81
1081.724	357.54
1085.001	354.7
1088.278	348.66
1091.554	340.4
1094.83	341.96
1098.106	339.04
1101.382	336.52
1104.657	332.56
1107.932	327.06
1111.206	329.71
1114.481	321.38
1117.755	318.2
1121.029	315.26
1124.302	313.44
1127.575	309.45
1130.848	305.22
1134.121	302.13
1137.393	300.12
1140.665	295.27
1143.937	294.06
1147.208	290.35
1150.48	290.21
1153.75	285.7
1157.021	281.84
1160.291	282.45
1163.561	278.53
1166.831	277.75
1170.101	276.09
1173.37	275.34
1176.639	276
1179.907	272.95
1183.176	270.63
1186.444	270.42
1189.711	270.82
1192.979	270.02
1196.246	268.21
1199.513	269.09
1202.78	268.69
1206.046	268.47
1209.312	266.28
1212.578	266.17
1215.843	268.03
1219.108	266.88
1222.373	271.84
1225.638	273.47
1228.902	277.66
1232.166	277.06
1235.43	279.03
1238.693	283.28
1241.956	284.78
1245.219	289
1248.482	289.29
1251.744	289.77
1255.006	290.18
1258.268	283.87
1261.529	281.36
1264.79	279.59
1268.051	278.87
1271.312	275.45
1274.572	270.19
1277.832	268.08
1281.092	263.58
1284.351	261.6
1287.61	261.87
1290.869	257.02
1294.128	255.05
1297.386	256.01
1300.644	252.32
1303.902	253.9
1307.159	252.94
1310.416	253.54
1313.673	252.61
1316.93	255.53
1320.186	254.93
1323.442	255.02
1326.697	260.31
1329.953	261.01
1333.208	260.71
1336.463	265
1339.717	264.51
1342.972	267.92
1346.226	269.95
1349.479	270.82
1352.733	271.9
1355.986	272.9
1359.238	273.07
1362.491	273.62
1365.743	276.63
1368.995	276.75
1372.247	274.76
1375.498	274.72
1378.749	275.45
1382	271.86
1385.251	272.88
1388.501	270.18
1391.751	271.3
1395	269.09
1398.25	266.68
1401.499	264.4
1404.748	263.66
1407.996	260.89
1411.244	259.39
1414.492	257.78
1417.74	254.7
1420.987	250.68
1424.234	250.69
1427.481	246.51
1430.728	247.14
1433.974	244.04
1437.22	241.6
1440.465	240.77
1443.711	238.57
1446.956	237.73
1450.201	234.39
1453.445	232.94
1456.689	231.92
1459.933	227.83
1463.177	226.29
1466.42	222.74
1469.663	221.06
1472.906	219.37
1476.148	213.67
1479.391	211.64
1482.633	209.63
1485.874	207.1
1489.115	205.7
1492.356	203.14
1495.597	203.17
1498.838	199.89
1502.078	198.44
1505.318	197.64
1508.557	197.48
1511.797	198.55
1515.036	196.39
1518.274	196.51
1521.513	194.52
1524.751	194.43
1527.989	194.18
1531.227	192.93
1534.464	194.17
1537.701	193.43
1540.938	192.87
1544.174	190.15
1547.41	189.8
1550.646	189.85
1553.882	188.84
1557.117	187.53
1560.352	186.24
1563.587	186.19
1566.821	185.16
1570.055	183.89
1573.289	182.12
1576.523	182.13
1579.756	181.84
1582.989	180.24
1586.222	180.03
1589.454	179.71
1592.686	180.19
1595.918	179.75
1599.15	178.77
1602.381	179.5
1605.612	178.97
1608.843	179.85
1612.073	179.42
1615.303	180.32
1618.533	180.78
1621.762	179.99
1624.992	179.94
1628.221	180.39
1631.449	180.22
1634.678	180.2
1637.906	180.7
1641.134	181.01
1644.361	180.4
1647.588	181.19
1650.815	180.25
1654.042	179.96
1657.269	181.26
1660.495	181.17
1663.72	180.62
1666.946	181.17
1670.171	181.64
1673.396	181.51
1676.621	181.51
1679.845	181.91
1683.069	182.41
1686.293	183.4
1689.517	184.21
1692.74	184.19
1695.963	185.05
1699.185	186.87
1702.408	186.62
1705.63	187.07
1708.852	187.59
1712.073	187.73
1715.294	188.27
1718.515	188.65
1721.736	188.35
1724.956	189.09
1728.176	189.02
1731.396	190.12
1734.616	188.98
1737.835	190.12
1741.054	188.96
1744.272	189.45
1747.491	191.28
1750.709	191.53
1753.927	191.43
1757.144	190.75
1760.361	190.88
1763.578	191.39
1766.795	190.67
1770.011	192.91
1773.227	192.57
1776.443	194.79
1779.658	194.95
1782.874	194.04
1786.089	194.27
1789.303	194.96
1792.518	197.86
1795.732	197.63
1798.945	199.28
1802.159	199.63
1805.372	199.26
1808.585	202.5
1811.797	202.79
1815.01	203.17
1818.222	205.16
1821.434	207.82
1824.645	207.57
1827.856	210.54
1831.067	212.32
1834.278	212.09
1837.488	213.19
1840.698	214.89
1843.908	213.07
1847.117	214.25
1850.326	215.97
1853.535	214.84
1856.744	217.23
1859.952	217.25
1863.16	215.21
1866.368	213.45
1869.575	214.8
1872.782	212.08
1875.989	211.21
1879.196	210.25
1882.402	208.88
1885.608	208.95
1888.814	209.05
1892.019	207.89
1895.224	207.53
1898.429	207.51
1901.634	208.06
1904.838	208.52
1908.042	210.39
1911.246	211.13
1914.449	212.5
1917.652	212.19
1920.855	211.75
1924.058	211.7
1927.26	210.44
1930.462	211.13
1933.664	212.56
1936.865	211.53
1940.066	210.46
1943.267	209.77
1946.467	209.48
1949.668	210.24
1952.868	213.14
1956.067	213.78
1959.267	212.6
1962.466	213.55
1965.665	212.43
1968.863	213.31
1972.061	216.24
1975.259	218.06
1978.457	219.27
1981.654	220.3
1984.852	221.17
1988.048	219.87
1991.245	222.48
1994.441	225.83
1997.637	227.45
2000.833	232.44
2004.028	235.74
2007.223	236.67
2010.418	240.03
2013.613	244.73
2016.807	248.34
2020.001	250.57
2023.194	254.52
2026.388	259.38
2029.581	265.16
2032.774	267.69
2035.966	271.96
2039.158	271.82
2042.35	277.28
2045.542	278.92
2048.733	282.64
2051.924	286.15
2055.115	290.61
2058.306	291.43
2061.496	293.52
2064.686	295.45
2067.875	300.16
2071.065	301.77
2074.254	299.32
2077.442	304.29
2080.631	305.56
2083.819	308.51
2087.007	308.96
2090.195	311.97
2093.382	314.56
2096.569	313.1
2099.756	317.25
2102.942	318.29
2106.128	320.93
2109.314	329.78
2112.5	327.75
2115.685	334.96
2118.87	334.77
2122.055	342.23
2125.239	344.9
2128.424	349.67
2131.608	352.64
2134.791	358.37
2137.974	359.95
2141.157	360.07
2144.34	360.46
2147.523	367.33
2150.705	364.33
2153.887	368.76
2157.068	368.92
2160.25	366.27
2163.431	367.09
2166.611	371.76
2169.792	376.39
2172.972	381.12
2176.152	384.51
2179.331	389.64
2182.511	394.15
2185.69	398.8
2188.868	405.49
2192.047	406.92
2195.225	418.31
2198.403	429.02
2201.58	437.54
2204.758	447.25
2207.935	455.12
2211.111	464.31
2214.288	468.45
2217.464	470.05
2220.64	478.06
2223.815	484.97
2226.991	504.71
2230.166	505.53
2233.34	514.13
2236.515	521.09
2239.689	520.4
2242.863	523.72
2246.036	539.61
2249.209	534.62
2252.382	544.98
2255.555	559.03
2258.727	562.02
2261.9	564.84
2265.071	569.94
2268.243	580.51
2271.414	589.07
2274.585	601.45
2277.756	607.6
2280.926	607.85
2284.096	624.99
2287.266	636.25
2290.436	642.51
2293.605	656.87
2296.774	677.4
2299.942	696.87
2303.111	700.33
2306.279	713.37
2309.447	724.9
2312.614	743.81
2315.781	768.25
2318.948	802.49
2322.115	790.78
2325.281	836.03
2328.447	819.55
2331.613	850.06
2334.779	844.23
2337.944	876.24
2341.109	883.92
2344.274	907.04
2347.438	939.17
2350.602	939.78
2353.766	970.04
2356.929	985.07
2360.092	978.58
2363.255	1047.88
2366.418	1045.89
2369.58	1066.02
2372.742	1137.15
2375.904	1168.59
2379.066	1162.04
2382.227	1137.66
2385.388	1231.78
2388.548	1232.18
2391.709	1249.19
2394.869	1388.64
2398.029	1328.7
2401.188	1370.38
2404.347	1361.69
2407.506	1334.7
2410.665	1373.36
2413.823	1452.87
2416.981	1540.6
2420.139	1498.21
2423.296	1478.97
2426.453	1546.15
2429.61	1480.22
2432.767	1549.88
2435.923	1531.36
2439.079	1675.7
2442.235	1702.19
2445.391	1687.88
2448.546	1672.56
2451.701	1627.35
2454.855	1617.92
2458.009	1718.97
2461.163	1786.78
2464.317	1858.88
2467.471	1904.21
2470.624	1905.63
2473.777	1858.87
2476.929	1810.49
2480.082	1751.97
2483.234	1740.23
2486.385	1821.81
2489.537	1827.9
2492.688	1895.76
2495.839	1842.21
2498.989	1803.75
2502.14	1809.59
2505.29	1827
2508.439	1850.98
2511.589	1850.36
2514.738	2017.24
2517.887	1972.1
2521.035	2088.75
2524.183	2103.11
2527.331	2116.41
2530.479	2104.12
2533.627	2117.89
