Data from N_3_DEC_ON_6N_Splice17_14-25-58-021.txt Node
Date: Sat Mar 07 14:25:58 EST 2020
User: sa697716
Spectrometer: NQ5500242
Trigger mode: 0
Integration Time (sec): 1.450000E-1
Scans to average: 20
Nonlinearity correction enabled: false
Boxcar width: 5
Storing dark spectrum: false
XAxis mode: Wavelengths
Number of Pixels in Spectrum: 512
>>>>>Begin Spectral Data<<<<<
187.83	133.85
188.298	144.4
188.766	117.7
189.233	97.34
189.701	103.65
190.169	120.56
190.636	118.62
191.104	146.8
191.571	39.29
192.039	160.36
192.506	173.99
192.974	52.46
193.441	150.67
193.908	-3.62
194.375	-15.03
194.842	13.12
195.31	10.28
195.777	-142.22
196.244	46.58
196.711	64.78
197.177	70.32
197.644	70.24
198.111	70.18
198.578	69.87
199.045	70.65
199.511	70.86
199.978	70.6
200.445	70.71
200.911	70.69
201.378	70.88
201.844	70.49
202.31	69.98
202.777	70.16
203.243	70.2
203.709	69.8
204.176	68.95
204.642	68.24
205.108	67.8
205.574	67.45
206.04	66.87
206.506	66.15
206.972	66.11
207.438	65.49
207.903	64.43
208.369	62.99
208.835	61.68
209.301	60.63
209.766	58.95
210.232	57.34
210.697	55.59
211.163	54.06
211.628	52.79
212.094	51.02
212.559	49.76
213.024	48.41
213.49	47.24
213.955	46.1
214.42	44.92
214.885	43.67
215.35	42.03
215.815	39.74
216.28	36.88
216.745	33.72
217.21	30.71
217.675	27.74
218.14	25.17
218.604	22.9
219.069	21.03
219.534	19.39
219.998	18.05
220.463	16.98
220.927	16.01
221.392	15.29
221.856	14.64
222.32	14.08
222.785	13.66
223.249	13.28
223.713	12.94
224.177	12.65
224.642	12.38
225.106	12.11
225.57	11.83
226.034	11.6
226.497	11.37
226.961	11.17
227.425	10.98
227.889	10.76
228.353	10.55
228.816	10.37
229.28	10.18
229.744	10.02
230.207	9.85
230.671	9.7
231.134	9.57
231.597	9.44
232.061	9.3
232.524	9.18
232.987	9.07
233.45	8.96
233.914	8.85
234.377	8.74
234.84	8.64
235.303	8.56
235.766	8.47
236.229	8.38
236.691	8.29
237.154	8.23
237.617	8.15
238.08	8.08
238.542	8.01
239.005	7.95
239.468	7.89
239.93	7.83
240.393	7.76
240.855	7.69
241.317	7.63
241.78	7.56
242.242	7.48
242.704	7.43
243.166	7.37
243.629	7.32
244.091	7.25
244.553	7.18
245.015	7.12
245.477	7.06
245.939	7.01
246.4	6.94
246.862	6.89
247.324	6.85
247.786	6.78
248.247	6.72
248.709	6.66
249.17	6.59
249.632	6.54
250.093	6.5
250.555	6.45
251.016	6.41
251.477	6.37
251.939	6.33
252.4	6.29
252.861	6.26
253.322	6.23
253.783	6.21
254.244	6.2
254.705	6.17
255.166	6.14
255.627	6.11
256.088	6.08
256.549	6.05
257.009	6.01
257.47	5.98
257.931	5.94
258.391	5.9
258.852	5.85
259.312	5.82
259.773	5.78
260.233	5.75
260.694	5.72
261.154	5.69
261.614	5.66
262.074	5.62
262.534	5.59
262.994	5.57
263.455	5.55
263.915	5.53
264.374	5.51
264.834	5.49
265.294	5.46
265.754	5.45
266.214	5.43
266.673	5.41
267.133	5.4
267.593	5.39
268.052	5.38
268.512	5.37
268.971	5.36
269.431	5.35
269.89	5.34
270.349	5.33
270.809	5.32
271.268	5.32
271.727	5.31
272.186	5.3
272.645	5.3
273.104	5.29
273.563	5.28
274.022	5.28
274.481	5.27
274.94	5.27
275.399	5.26
275.857	5.26
276.316	5.25
276.775	5.25
277.233	5.25
277.692	5.24
278.15	5.24
278.609	5.25
279.067	5.24
279.525	5.24
279.984	5.23
280.442	5.23
280.9	5.24
281.358	5.23
281.816	5.23
282.274	5.23
282.732	5.23
283.19	5.22
283.648	5.21
284.106	5.21
284.564	5.21
285.021	5.21
285.479	5.2
285.937	5.2
286.394	5.2
286.852	5.19
287.309	5.19
287.767	5.17
288.224	5.16
288.682	5.16
289.139	5.14
289.596	5.13
290.053	5.1
290.511	5.09
290.968	5.07
291.425	5.05
291.882	5.04
292.339	5.02
292.796	5.01
293.252	5
293.709	4.98
294.166	4.98
294.623	4.97
295.079	4.96
295.536	4.96
295.992	4.96
296.449	4.95
296.905	4.95
297.362	4.94
297.818	4.94
298.274	4.94
298.731	4.94
299.187	4.93
299.643	4.92
300.099	4.92
300.555	4.92
301.011	4.91
301.467	4.91
301.923	4.9
302.379	4.9
302.835	4.91
303.291	4.9
303.746	4.89
304.202	4.89
304.658	4.89
305.113	4.89
305.569	4.89
306.024	4.88
306.479	4.88
306.935	4.88
307.39	4.89
307.845	4.89
308.301	4.9
308.756	4.91
309.211	4.91
309.666	4.92
310.121	4.92
310.576	4.92
311.031	4.93
311.486	4.93
311.94	4.93
312.395	4.93
312.85	4.94
313.305	4.94
313.759	4.95
314.214	4.94
314.668	4.94
315.123	4.94
315.577	4.93
316.032	4.93
316.486	4.93
316.94	4.92
317.394	4.92
317.849	4.91
318.303	4.89
318.757	4.87
319.211	4.86
319.665	4.85
320.119	4.83
320.572	4.83
321.026	4.82
321.48	4.8
321.934	4.79
322.387	4.78
322.841	4.77
323.295	4.77
323.748	4.78
324.202	4.77
324.655	4.77
325.108	4.78
325.562	4.77
326.015	4.78
326.468	4.79
326.921	4.79
327.374	4.79
327.827	4.79
328.28	4.79
328.733	4.79
329.186	4.78
329.639	4.79
330.092	4.79
330.545	4.79
330.997	4.78
331.45	4.78
331.903	4.78
332.355	4.79
332.808	4.8
333.26	4.8
333.713	4.81
334.165	4.81
334.617	4.82
335.069	4.82
335.522	4.84
335.974	4.84
336.426	4.85
336.878	4.84
337.33	4.84
337.782	4.85
338.234	4.85
338.686	4.84
339.137	4.85
339.589	4.84
340.041	4.84
340.493	4.82
340.944	4.81
341.396	4.81
341.847	4.79
342.299	4.78
342.75	4.77
343.201	4.75
343.653	4.74
344.104	4.73
344.555	4.71
345.006	4.7
345.457	4.68
345.908	4.67
346.359	4.66
346.81	4.65
347.261	4.64
347.712	4.63
348.163	4.63
348.613	4.63
349.064	4.63
349.515	4.63
349.965	4.62
350.416	4.62
350.866	4.62
351.317	4.62
351.767	4.63
352.217	4.63
352.668	4.63
353.118	4.64
353.568	4.63
354.018	4.64
354.468	4.65
354.918	4.65
355.368	4.66
355.818	4.67
356.268	4.66
356.718	4.67
357.168	4.67
357.617	4.67
358.067	4.67
358.517	4.69
358.966	4.68
359.416	4.68
359.865	4.68
360.315	4.69
360.764	4.7
361.213	4.7
361.663	4.7
362.112	4.71
362.561	4.74
363.01	4.73
363.459	4.72
363.908	4.72
364.357	4.73
364.806	4.74
365.255	4.74
365.703	4.76
366.152	4.79
366.601	4.81
367.05	4.83
367.498	4.84
367.947	4.87
368.395	4.9
368.844	4.94
369.292	4.97
369.74	5
370.189	5.03
370.637	5.06
371.085	5.09
371.533	5.12
371.981	5.16
372.429	5.2
372.877	5.25
373.325	5.3
373.773	5.35
374.221	5.4
374.669	5.46
375.116	5.51
375.564	5.57
376.012	5.63
376.459	5.7
376.907	5.77
377.354	5.84
377.801	5.91
378.249	5.97
378.696	6.04
379.143	6.12
379.591	6.2
380.038	6.28
380.485	6.37
380.932	6.46
381.379	6.55
381.826	6.64
382.273	6.73
382.72	6.81
383.166	6.89
383.613	6.97
384.06	7.04
384.506	7.12
384.953	7.2
385.4	7.27
385.846	7.35
386.292	7.43
386.739	7.51
387.185	7.58
387.631	7.68
388.078	7.76
388.524	7.85
388.97	7.94
389.416	8.02
389.862	8.1
390.308	8.19
390.754	8.27
391.2	8.33
391.645	8.4
392.091	8.48
392.537	8.55
392.983	8.63
393.428	8.69
393.874	8.77
394.319	8.83
394.765	8.88
395.21	8.91
395.655	8.95
396.101	9
396.546	9.04
396.991	9.08
397.436	9.1
397.881	9.13
398.326	9.17
398.771	9.21
399.216	9.24
399.661	9.28
400.106	9.31
400.551	9.33
400.995	9.34
401.44	9.35
401.885	9.35
402.329	9.36
402.774	9.36
403.218	9.38
403.663	9.38
404.107	9.39
404.551	9.39
404.995	9.38
405.44	9.37
405.884	9.38
406.328	9.39
406.772	9.38
407.216	9.39
407.66	9.39
408.104	9.37
408.547	9.35
408.991	9.33
409.435	9.32
409.879	9.33
410.322	9.34
410.766	9.34
411.209	9.35
411.653	9.37
412.096	9.37
412.54	9.37
412.983	9.37
413.426	9.4
413.869	9.41
414.312	9.45
414.756	9.46
415.199	9.46
415.642	9.45
416.085	9.45
416.527	9.44
416.97	9.42
417.413	9.4
417.856	9.38
418.298	9.35
418.741	9.33
419.184	9.31
419.626	9.29
420.069	9.27
420.511	9.26
420.953	9.24
421.396	9.23
421.838	9.22
422.28	9.22
422.722	9.24
423.164	9.23
423.606	9.24
424.048	9.22
424.49	9.2
424.932	9.19
425.374	9.16
425.816	9.12
426.258	9.09
426.699	9.08
427.141	9.05
427.582	9.03
428.024	9.02
428.465	9.01
428.907	9.02
429.348	9
429.789	8.98
430.231	8.99
430.672	9.01
431.113	9.04
431.554	9.04
431.995	9.05
432.436	9.06
432.877	9.06
433.318	9.05
433.759	9.07
434.2	9.1
434.64	9.12
435.081	9.13
435.522	9.16
435.962	9.17
436.403	9.22
436.843	9.24
437.284	9.25
437.724	9.28
438.164	9.3
438.604	9.32
439.045	9.33
439.485	9.33
439.925	9.35
440.365	9.35
440.805	9.37
441.245	9.38
441.685	9.42
442.125	9.46
442.564	9.5
443.004	9.53
443.444	9.56
443.883	9.61
444.323	9.66
444.762	9.71
445.202	9.77
445.641	9.84
446.081	9.91
446.52	9.95
446.959	10.02
447.398	10.06
447.837	10.11
448.276	10.15
448.716	10.21
449.154	10.27
449.593	10.32
450.032	10.34
450.471	10.36
450.91	10.36
451.349	10.4
451.787	10.4
452.226	10.41
452.664	10.44
453.103	10.44
453.541	10.42
453.98	10.43
454.418	10.4
454.856	10.38
455.295	10.38
455.733	10.36
456.171	10.32
456.609	10.31
457.047	10.29
457.485	10.28
457.923	10.27
458.361	10.27
458.798	10.25
459.236	10.24
459.674	10.23
460.111	10.23
460.549	10.23
460.987	10.23
461.424	10.23
461.862	10.24
462.299	10.24
462.736	10.24
463.173	10.24
463.611	10.23
464.048	10.24
464.485	10.23
464.922	10.23
465.359	10.23
465.796	10.24
466.233	10.24
466.67	10.23
467.106	10.24
467.543	10.24
467.98	10.24
468.416	10.24
468.853	10.26
469.29	10.28
469.726	10.29
470.162	10.29
470.599	10.3
471.035	10.31
471.471	10.31
471.907	10.32
472.344	10.34
472.78	10.37
473.216	10.38
473.652	10.39
474.088	10.37
474.523	10.39
474.959	10.4
475.395	10.4
475.831	10.41
476.266	10.43
476.702	10.42
477.138	10.42
477.573	10.43
478.008	10.44
478.444	10.43
478.879	10.45
479.314	10.43
479.75	10.43
480.185	10.43
480.62	10.43
481.055	10.42
481.49	10.42
481.925	10.42
482.36	10.41
482.795	10.41
483.229	10.42
483.664	10.43
484.099	10.44
484.534	10.45
484.968	10.47
485.403	10.49
485.837	10.52
486.271	10.54
486.706	10.57
487.14	10.6
487.574	10.63
488.009	10.67
488.443	10.71
488.877	10.76
489.311	10.81
489.745	10.86
490.179	10.94
490.613	11
491.046	11.07
491.48	11.14
491.914	11.21
492.348	11.29
492.781	11.38
493.215	11.47
493.648	11.56
494.082	11.66
494.515	11.76
494.948	11.87
495.382	11.97
495.815	12.1
496.248	12.22
496.681	12.36
497.114	12.5
497.547	12.63
497.98	12.78
498.413	12.92
498.846	13.08
499.279	13.23
499.711	13.38
500.144	13.55
500.577	13.7
501.009	13.86
501.442	14.04
501.874	14.21
502.306	14.41
502.739	14.6
503.171	14.79
503.603	14.99
504.036	15.2
504.468	15.41
504.9	15.62
505.332	15.84
505.764	16.06
506.196	16.3
506.627	16.54
507.059	16.78
507.491	17.01
507.923	17.24
508.354	17.5
508.786	17.74
509.217	18.01
509.649	18.28
510.08	18.54
510.512	18.81
510.943	19.06
511.374	19.33
511.805	19.59
512.237	19.86
512.668	20.14
513.099	20.41
513.53	20.68
513.961	20.94
514.391	21.21
514.822	21.5
515.253	21.75
515.684	22.02
516.114	22.28
516.545	22.54
516.975	22.81
517.406	23.06
517.836	23.31
518.267	23.57
518.697	23.8
519.127	24.03
519.558	24.25
519.988	24.51
520.418	24.73
520.848	24.97
521.278	25.2
521.708	25.52
522.138	25.73
522.567	25.94
522.997	26.12
523.427	26.34
523.857	26.54
524.286	26.72
524.716	26.9
525.145	27.07
525.575	27.24
526.004	27.39
526.433	27.44
526.863	27.6
527.292	27.74
527.721	27.87
528.15	28
528.579	28.11
529.008	28.23
529.437	28.35
529.866	28.44
530.295	28.55
530.724	28.65
531.152	28.73
531.581	28.82
532.01	28.91
532.438	29
532.867	29.07
533.295	29.13
533.723	29.19
534.152	29.25
534.58	29.32
535.008	29.35
535.436	29.4
535.865	29.43
536.293	29.48
536.721	29.52
537.149	29.56
537.576	29.59
538.004	29.64
538.432	29.67
538.86	29.68
539.287	29.69
539.715	29.73
540.143	29.75
540.57	29.78
540.998	29.79
541.425	29.8
541.852	29.82
542.28	29.85
542.707	29.88
543.134	29.9
543.561	29.94
543.988	29.98
544.415	29.99
544.842	30.01
545.269	30.04
545.696	30.07
546.123	30.1
546.549	30.13
546.976	30.16
547.403	30.19
547.829	30.21
548.256	30.25
548.682	30.27
549.108	30.3
549.535	30.33
549.961	30.37
550.387	30.38
550.813	30.4
551.24	30.41
551.666	30.41
552.092	30.41
552.518	30.41
552.943	30.41
553.369	30.4
553.795	30.38
554.221	30.37
554.646	30.37
555.072	30.36
555.498	30.34
555.923	30.33
556.349	30.31
556.774	30.28
557.199	30.25
557.625	30.2
558.05	30.15
558.475	30.12
558.9	30.09
559.325	30.03
559.75	29.98
560.175	29.91
560.6	29.83
561.025	29.77
561.449	29.7
561.874	29.63
562.299	29.57
562.723	29.5
563.148	29.4
563.572	29.28
563.997	29.19
564.421	29.08
564.846	28.99
565.27	28.89
565.694	28.77
566.118	28.65
566.542	28.53
566.966	28.4
567.39	28.28
567.814	28.17
568.238	28.06
568.662	27.93
569.086	27.8
569.509	27.67
569.933	27.54
570.357	27.43
570.78	27.29
571.204	27.17
571.627	27.06
572.05	26.95
572.474	26.85
572.897	26.75
573.32	26.64
573.743	26.55
574.166	26.46
574.589	26.36
575.012	26.28
575.435	26.19
575.858	26.11
576.281	26.02
576.704	25.93
577.126	25.85
577.549	25.75
577.972	25.68
578.394	25.61
578.817	25.54
579.239	25.48
579.661	25.4
580.084	25.35
580.506	25.3
580.928	25.25
581.35	25.2
581.772	25.13
582.194	25.09
582.616	25.04
583.038	24.98
583.46	24.92
583.882	24.86
584.303	24.81
584.725	24.76
585.147	24.71
585.568	24.66
585.99	24.6
586.411	24.56
586.833	24.5
587.254	24.44
587.675	24.4
588.096	24.35
588.518	24.3
588.939	24.28
589.36	24.21
589.781	24.18
590.202	24.14
590.623	24.1
591.043	24.07
591.464	24.03
591.885	23.98
592.305	23.95
592.726	23.94
593.147	23.91
593.567	23.86
593.987	23.84
594.408	23.81
594.828	23.77
595.248	23.75
595.669	23.72
596.089	23.7
596.509	23.69
596.929	23.65
597.349	23.61
597.769	23.57
598.189	23.55
598.608	23.5
599.028	23.46
599.448	23.43
599.867	23.38
600.287	23.35
600.706	23.29
601.126	23.25
601.545	23.23
601.965	23.2
602.384	23.16
602.803	23.1
603.222	23.05
603.641	23
604.061	22.95
604.48	22.89
604.898	22.83
605.317	22.78
605.736	22.72
606.155	22.65
606.574	22.57
606.992	22.5
607.411	22.43
607.829	22.35
608.248	22.28
608.666	22.21
609.085	22.14
609.503	22.08
609.921	22
610.339	21.93
610.758	21.86
611.176	21.79
611.594	21.72
612.012	21.65
612.43	21.61
612.847	21.54
613.265	21.47
613.683	21.41
614.101	21.34
614.518	21.28
614.936	21.21
615.353	21.13
615.771	21.07
616.188	21
616.606	20.95
617.023	20.89
617.44	20.84
617.857	20.81
618.274	20.76
618.691	20.71
619.108	20.67
619.525	20.62
619.942	20.59
620.359	20.56
620.776	20.54
621.192	20.5
621.609	20.48
622.026	20.45
622.442	20.41
622.859	20.39
623.275	20.35
623.691	20.34
624.108	20.32
624.524	20.29
624.94	20.26
625.356	20.25
625.772	20.23
626.188	20.21
626.604	20.18
627.02	20.18
627.436	20.15
627.852	20.14
628.268	20.13
628.683	20.12
629.099	20.09
629.514	20.08
629.93	20.04
630.345	20.01
630.761	19.96
631.176	19.94
631.591	19.88
632.007	19.83
632.422	19.76
632.837	19.7
633.252	19.62
633.667	19.55
634.082	19.47
634.497	19.4
634.911	19.3
635.326	19.21
635.741	19.1
636.155	18.99
636.57	18.86
636.984	18.76
637.399	18.63
637.813	18.49
638.228	18.35
638.642	18.2
639.056	18.05
639.47	17.9
639.884	17.75
640.298	17.59
640.712	17.45
641.126	17.3
641.54	17.13
641.954	16.97
642.368	16.82
642.781	16.66
643.195	16.51
643.609	16.37
644.022	16.23
644.436	16.09
644.849	15.97
645.262	15.82
645.676	15.7
646.089	15.59
646.502	15.49
646.915	15.4
647.328	15.32
647.741	15.23
648.154	15.14
648.567	15.07
648.98	15.01
649.393	14.94
649.805	14.9
650.218	14.85
650.631	14.79
651.043	14.74
651.456	14.69
651.868	14.63
652.28	14.59
652.693	14.55
653.105	14.49
653.517	14.44
653.929	14.38
654.341	14.31
654.753	14.23
655.165	14.16
655.577	14.08
655.989	13.99
656.401	13.9
656.813	13.81
657.224	13.68
657.636	13.55
658.047	13.45
658.459	13.32
658.87	13.19
659.282	13.06
659.693	12.94
660.104	12.8
660.515	12.67
660.926	12.53
661.338	12.4
661.749	12.28
662.159	12.16
662.57	12.04
662.981	11.92
663.392	11.81
663.803	11.7
664.213	11.59
664.624	11.48
665.035	11.38
665.445	11.28
665.855	11.2
666.266	11.11
666.676	11.04
667.086	10.95
667.497	10.89
667.907	10.82
668.317	10.75
668.727	10.7
669.137	10.65
669.547	10.61
669.956	10.58
670.366	10.54
670.776	10.51
671.186	10.49
671.595	10.47
672.005	10.45
672.414	10.44
672.824	10.43
673.233	10.43
673.642	10.44
674.052	10.44
674.461	10.44
674.87	10.44
675.279	10.48
675.688	10.51
676.097	10.53
676.506	10.56
676.915	10.62
677.323	10.68
677.732	10.74
678.141	10.81
678.549	10.89
678.958	10.99
679.366	11.11
679.775	11.22
680.183	11.36
680.592	11.52
681	11.72
681.408	11.91
681.816	12.12
682.224	12.34
682.632	12.6
683.04	12.88
683.448	13.18
683.856	13.49
684.264	13.83
684.671	14.18
685.079	14.56
685.487	14.94
685.894	15.35
686.302	15.8
686.709	16.26
687.116	16.73
687.524	17.22
687.931	17.73
688.338	18.24
688.745	18.77
689.152	19.29
689.559	19.83
689.966	20.38
690.373	20.95
690.78	21.5
691.187	22.06
691.593	22.63
692	23.18
692.407	23.7
692.813	24.24
693.22	24.76
693.626	25.29
694.032	25.81
694.439	26.31
694.845	26.82
695.251	27.29
695.657	27.75
696.063	28.21
696.469	28.66
696.875	29.11
697.281	29.55
697.687	29.99
698.093	30.4
698.498	30.79
698.904	31.17
699.31	31.53
699.715	31.91
700.12	32.27
700.526	32.59
700.931	32.91
701.337	33.22
701.742	33.5
702.147	33.8
702.552	34.09
702.957	34.36
703.362	34.64
703.767	34.89
704.172	35.15
704.577	35.39
704.981	35.64
705.386	35.86
705.791	36.11
706.195	36.35
706.6	36.58
707.004	36.81
707.408	37.04
707.813	37.24
708.217	37.44
708.621	37.64
709.025	37.82
709.43	37.99
709.834	38.21
710.237	38.36
710.641	38.51
711.045	38.68
711.449	38.86
711.853	39.01
712.256	39.16
712.66	39.31
713.064	39.46
713.467	39.59
713.87	39.77
714.274	39.88
714.677	40.05
715.08	40.19
715.484	40.32
715.887	40.46
716.29	40.58
716.693	40.72
717.096	40.86
717.499	40.98
717.901	41.13
718.304	41.25
718.707	41.38
719.109	41.49
719.512	41.6
719.915	41.69
720.317	41.77
720.719	41.86
721.122	41.96
721.524	42.05
721.926	42.15
722.328	42.26
722.731	42.35
723.133	42.44
723.535	42.51
723.937	42.59
724.338	42.68
724.74	42.74
725.142	42.87
725.544	42.92
725.945	42.98
726.347	43.03
726.748	43.05
727.15	43.09
727.551	43.15
727.952	43.2
728.354	43.26
728.755	43.28
729.156	43.34
729.557	43.33
729.958	43.37
730.359	43.42
730.76	43.47
731.161	43.5
731.562	43.56
731.962	43.59
732.363	43.64
732.763	43.67
733.164	43.7
733.564	43.73
733.965	43.76
734.365	43.79
734.766	43.82
735.166	43.85
735.566	43.87
735.966	43.9
736.366	43.91
736.766	43.92
737.166	43.93
737.566	43.96
737.966	43.98
738.365	44.01
738.765	44.04
739.165	44.06
739.564	44.08
739.964	44.08
740.363	44.09
740.763	44.12
741.162	44.1
741.561	44.1
741.96	44.09
742.36	44.08
742.759	44.09
743.158	44.09
743.557	44.08
743.955	44.09
744.354	44.13
744.753	44.17
745.152	44.19
745.55	44.25
745.949	44.29
746.348	44.34
746.746	44.37
747.144	44.41
747.543	44.41
747.941	44.44
748.339	44.46
748.737	44.46
749.136	44.45
749.534	44.44
749.932	44.42
750.33	44.43
750.727	44.43
751.125	44.42
751.523	44.4
751.921	44.42
752.318	44.4
752.716	44.39
753.113	44.38
753.511	44.36
753.908	44.37
754.305	44.36
754.703	44.33
755.1	44.3
755.497	44.31
755.894	44.28
756.291	44.27
756.688	44.26
757.085	44.27
757.482	44.23
757.878	44.23
758.275	44.21
758.672	44.19
759.068	44.2
759.465	44.2
759.861	44.19
760.258	44.21
760.654	44.19
761.05	44.2
761.447	44.19
761.843	44.19
762.239	44.19
762.635	44.2
763.031	44.23
763.427	44.23
763.822	44.24
764.218	44.26
764.614	44.24
765.01	44.25
765.405	44.24
765.801	44.22
766.196	44.24
766.592	44.24
766.987	44.23
767.382	44.2
767.778	44.18
768.173	44.17
768.568	44.16
768.963	44.16
769.358	44.18
769.753	44.18
770.148	44.2
770.542	44.19
770.937	44.21
771.332	44.2
771.726	44.23
772.121	44.23
772.515	44.24
772.91	44.21
773.304	44.22
773.699	44.22
774.093	44.22
774.487	44.23
774.881	44.25
775.275	44.23
775.669	44.22
776.063	44.19
776.457	44.19
776.851	44.17
777.245	44.19
777.638	44.18
778.032	44.17
778.425	44.2
778.819	44.19
779.212	44.2
779.606	44.2
779.999	44.23
780.392	44.27
780.786	44.29
781.179	44.33
781.572	44.35
781.965	44.37
782.358	44.39
782.751	44.38
783.143	44.41
783.536	44.41
783.929	44.43
784.322	44.44
784.714	44.47
785.107	44.48
785.499	44.48
785.891	44.48
786.284	44.49
786.676	44.49
787.068	44.5
787.46	44.48
787.852	44.49
788.245	44.5
788.636	44.49
789.028	44.48
789.42	44.5
789.812	44.51
790.204	44.54
790.595	44.55
790.987	44.58
791.378	44.63
791.77	44.66
792.161	44.66
792.553	44.67
792.944	44.68
793.335	44.7
793.726	44.67
794.117	44.66
794.508	44.64
794.899	44.65
795.29	44.63
795.681	44.56
796.072	44.57
796.463	44.57
796.853	44.57
797.244	44.59
797.634	44.58
798.025	44.62
798.415	44.63
798.806	44.65
799.196	44.67
799.586	44.69
799.976	44.72
800.366	44.73
800.756	44.74
801.146	44.77
801.536	44.78
801.926	44.78
802.316	44.77
802.706	44.8
803.095	44.83
803.485	44.82
803.874	44.85
804.264	44.86
804.653	44.88
805.043	44.93
805.432	44.91
805.821	44.94
806.21	44.95
806.599	44.97
806.988	44.99
807.377	44.98
807.766	45.01
808.155	44.98
808.544	45
808.933	45.02
809.321	45.01
809.71	45.04
810.098	45.02
810.487	45.04
810.875	45.04
811.264	45.05
811.652	45.05
812.04	45.04
812.428	45.1
812.816	45.1
813.204	45.07
813.592	45.06
813.98	45.07
814.368	45.09
814.756	45.09
815.144	45.08
815.531	45.07
815.919	45.07
816.306	45.11
816.694	45.09
817.081	45.1
817.469	45.11
817.856	45.13
818.243	45.12
818.63	45.13
819.017	45.14
819.404	45.15
819.791	45.14
820.178	45.16
820.565	45.12
820.952	45.11
821.339	45.1
821.725	45.11
822.112	45.11
822.498	45.12
822.885	45.14
823.271	45.13
823.657	45.1
824.044	45.12
824.43	45.11
824.816	45.11
825.202	45.08
825.588	45.07
825.974	45.05
826.36	45.04
826.746	45.03
827.132	44.99
827.517	44.98
827.903	45.01
828.289	45.01
828.674	44.98
829.06	44.97
829.445	44.99
829.83	44.99
830.216	44.96
830.601	44.94
830.986	44.93
831.371	44.91
831.756	44.89
832.141	44.86
832.526	44.85
832.911	44.83
833.295	44.83
833.68	44.81
834.065	44.79
834.449	44.79
834.834	44.78
835.218	44.76
835.603	44.74
835.987	44.73
836.371	44.7
836.755	44.67
837.139	44.66
837.524	44.66
837.908	44.66
838.291	44.66
838.675	44.67
839.059	44.67
839.443	44.66
839.827	44.66
840.21	44.67
840.594	44.66
840.977	44.65
841.361	44.64
841.744	44.59
842.127	44.58
842.511	44.56
842.894	44.56
843.277	44.54
843.66	44.53
844.043	44.54
844.426	44.52
844.809	44.53
845.191	44.54
845.574	44.55
845.957	44.56
846.339	44.56
846.722	44.57
847.104	44.56
847.487	44.56
847.869	44.57
848.252	44.54
848.634	44.55
849.016	44.56
849.398	44.57
849.78	44.58
850.162	44.6
850.544	44.6
850.926	44.61
851.307	44.6
851.689	44.61
852.071	44.62
852.452	44.64
852.834	44.65
853.215	44.63
853.597	44.64
853.978	44.61
854.359	44.62
854.741	44.63
855.122	44.62
855.503	44.63
855.884	44.62
856.265	44.63
856.646	44.62
857.026	44.64
857.407	44.66
857.788	44.66
858.169	44.68
858.549	44.68
858.93	44.67
859.31	44.69
859.69	44.7
860.071	44.72
860.451	44.73
860.831	44.74
861.211	44.72
861.591	44.72
861.971	44.72
862.351	44.73
862.731	44.73
863.111	44.72
863.491	44.71
863.87	44.71
864.25	44.68
864.629	44.68
865.009	44.65
865.388	44.66
865.768	44.69
866.147	44.68
866.526	44.67
866.905	44.66
867.284	44.68
867.663	44.69
868.042	44.68
868.421	44.71
868.8	44.74
869.179	44.76
869.558	44.76
869.936	44.72
870.315	44.71
870.693	44.7
871.072	44.72
871.45	44.73
871.828	44.73
872.207	44.73
872.585	44.71
872.963	44.67
873.341	44.67
873.719	44.65
874.097	44.65
874.475	44.68
874.853	44.69
875.23	44.69
875.608	44.67
875.986	44.67
876.363	44.69
876.741	44.7
877.118	44.72
877.495	44.74
877.873	44.76
878.25	44.81
878.627	44.81
879.004	44.8
879.381	44.8
879.758	44.79
880.135	44.77
880.512	44.75
880.889	44.75
881.265	44.74
881.642	44.72
882.019	44.71
882.395	44.7
882.772	44.69
883.148	44.69
883.524	44.68
883.901	44.68
884.277	44.65
884.653	44.64
885.029	44.61
885.405	44.6
885.781	44.6
886.157	44.6
886.532	44.59
886.908	44.56
887.284	44.57
887.659	44.56
888.035	44.54
888.411	44.55
888.786	44.55
889.161	44.56
889.537	44.56
889.912	44.54
890.287	44.51
890.662	44.48
891.037	44.47
891.412	44.44
891.787	44.42
892.162	44.41
892.536	44.39
892.911	44.36
893.286	44.33
893.66	44.3
894.035	44.29
894.409	44.28
894.784	44.28
895.158	44.27
895.532	44.29
895.906	44.29
896.281	44.28
896.655	44.27
897.029	44.29
897.402	44.29
897.776	44.31
898.15	44.33
898.524	44.34
898.898	44.33
899.271	44.36
899.645	44.37
900.018	44.4
900.392	44.4
900.765	44.41
901.138	44.4
901.511	44.41
901.884	44.41
902.258	44.4
902.631	44.41
903.003	44.45
903.376	44.45
903.749	44.41
904.122	44.4
904.495	44.43
904.867	44.47
905.24	44.5
905.612	44.54
905.985	44.55
906.357	44.57
906.729	44.58
907.102	44.57
907.474	44.57
907.846	44.62
908.218	44.63
908.59	44.66
908.962	44.66
909.334	44.65
909.705	44.63
910.077	44.64
910.449	44.64
910.82	44.63
911.192	44.63
911.563	44.64
911.935	44.64
912.306	44.64
912.677	44.64
913.048	44.63
913.419	44.63
913.79	44.62
914.161	44.64
914.532	44.65
914.903	44.67
915.274	44.69
915.645	44.72
916.015	44.73
916.386	44.73
916.756	44.74
917.127	44.77
917.497	44.78
917.868	44.79
918.238	44.79
918.608	44.83
918.978	44.8
919.348	44.79
919.718	44.77
920.088	44.79
920.458	44.77
920.828	44.73
921.198	44.68
921.567	44.7
921.937	44.72
922.306	44.69
922.676	44.66
923.045	44.67
923.415	44.67
923.784	44.69
924.153	44.66
924.522	44.7
924.891	44.69
925.26	44.71
925.629	44.71
925.998	44.71
926.367	44.72
926.736	44.74
927.104	44.76
927.473	44.72
927.842	44.7
928.21	44.7
928.578	44.67
928.947	44.7
929.315	44.66
929.683	44.65
930.051	44.65
930.42	44.59
930.788	44.54
931.156	44.48
931.523	44.49
931.891	44.5
932.259	44.49
932.627	44.47
932.994	44.44
933.362	44.44
933.729	44.44
934.097	44.43
934.464	44.48
934.831	44.48
935.199	44.51
935.566	44.51
935.933	44.51
936.3	44.52
936.667	44.51
937.034	44.54
937.401	44.59
937.767	44.58
938.134	44.6
938.501	44.62
938.867	44.67
939.234	44.7
939.6	44.73
939.967	44.73
940.333	44.75
940.699	44.87
941.065	44.87
941.431	44.92
941.798	44.97
942.163	44.97
942.529	45.02
942.895	45.07
943.261	45.13
943.627	45.15
943.992	45.2
944.358	45.21
944.723	45.19
945.089	45.2
945.454	45.21
945.82	45.2
946.185	45.25
946.55	45.16
946.915	45.18
947.28	45.15
947.645	45.15
948.01	45.12
948.375	45.11
948.74	45.09
949.104	45.07
949.469	45.01
949.834	44.99
950.198	44.97
950.562	44.97
950.927	44.88
951.291	44.81
951.655	44.75
952.02	44.74
952.384	44.64
952.748	44.6
953.112	44.63
953.476	44.63
953.839	44.56
954.203	44.5
954.567	44.51
954.931	44.49
955.294	44.42
955.658	44.46
956.021	44.4
956.385	44.38
956.748	44.37
957.111	44.24
957.474	44.16
957.837	44.13
958.2	44.12
958.563	44.06
958.926	44.05
959.289	44.1
959.652	44.06
960.015	44.07
960.377	44.05
960.74	44.06
961.102	44.12
961.465	44.18
961.827	44.22
962.189	44.24
962.552	44.23
962.914	44.24
963.276	44.23
963.638	44.18
964	44.18
964.362	44.19
964.724	44.17
965.085	44.11
965.447	44.04
965.809	44.05
966.17	44.01
966.532	44
966.893	44.02
967.255	44.02
967.616	44.04
967.977	44.02
968.338	44.02
968.699	44.02
969.061	44.02
969.421	44.02
969.782	44
970.143	43.99
970.504	43.98
970.865	43.92
971.225	43.89
971.586	43.88
971.946	43.87
972.307	43.9
972.667	43.86
973.027	43.93
973.388	43.95
973.748	43.97
974.108	44.03
974.468	43.99
974.828	43.99
975.188	44.01
975.548	44.02
975.907	44.09
976.267	44.12
976.627	44.13
976.986	44.06
977.346	44.05
977.705	44
978.064	43.94
978.424	44.01
978.783	43.99
979.142	43.93
979.501	43.94
979.86	43.91
980.219	43.85
980.578	43.94
980.937	44
981.296	43.97
981.654	43.99
982.013	44.02
982.371	44.03
982.73	44.11
983.088	44.17
983.447	44.16
983.805	44.15
984.163	44.16
984.521	44.13
984.879	44.11
985.237	44.19
985.595	44.29
985.953	44.3
986.311	44.28
986.669	44.23
987.026	44.21
987.384	44.34
987.741	44.38
988.099	44.35
988.456	44.33
988.814	44.4
989.171	44.39
989.528	44.34
989.885	44.35
990.242	44.37
990.599	44.55
990.956	44.65
991.313	44.66
991.67	44.73
992.027	44.88
992.383	44.99
992.74	45.06
993.096	45.03
993.453	45.07
993.809	45.08
994.165	45.08
994.522	45
994.878	45.04
995.234	44.96
995.59	44.92
995.946	44.9
996.302	44.91
996.658	44.86
997.013	44.94
997.369	45.01
997.725	45.13
998.08	45.26
998.436	45.32
998.791	45.28
999.147	45.31
999.502	45.47
999.857	45.6
1000.212	45.55
1000.567	45.64
1000.922	45.72
1001.277	45.68
1001.632	45.71
1001.987	45.71
1002.342	45.7
1002.696	45.69
1003.051	45.87
1003.406	45.85
1003.76	45.79
1004.114	45.77
1004.469	45.79
1004.823	46.03
1005.177	46.15
1005.531	46.21
1005.885	46.18
1006.239	46.2
1006.593	46.38
1006.947	46.26
1007.301	46.19
1007.655	46.26
1008.008	46.37
1008.362	46.37
1008.715	46.21
1009.069	46.33
1009.422	46.31
1009.776	46.39
1010.129	46.54
1010.482	46.65
1010.835	46.98
1011.188	47.1
1011.541	47.16
1011.894	47.33
1012.247	47.41
1012.6	47.48
1012.952	47.36
1013.305	47.4
1013.657	47.6
1014.01	47.71
1014.362	47.75
1014.715	47.75
1015.067	47.95
1015.419	47.98
1015.771	47.84
1016.123	47.89
1016.475	48.09
1016.827	48.39
1017.179	48.52
1017.531	48.59
1017.883	48.63
1018.234	48.62
1018.586	48.56
1018.938	48.53
1019.289	48.66
1019.64	48.78
1019.992	48.82
1020.343	48.75
1020.694	48.68
1021.045	48.66
1021.396	48.73
1021.747	48.8
1022.098	48.91
1022.449	49.15
1022.8	49.38
1023.151	49.43
1023.501	49.84
1023.852	50.01
1024.202	49.78
1024.553	49.83
1024.903	49.99
1025.253	50.3
1025.604	50.38
1025.954	50.35
1026.304	50.27
1026.654	50.37
1027.004	50.51
1027.354	50.46
1027.703	50.3
1028.053	50.59
1028.403	50.97
1028.753	50.87
1029.102	50.78
1029.452	50.97
1029.801	51.36
1030.15	51.42
1030.499	51.23
897.758	957.42
901.051	965.08
904.343	968.9
907.636	983.98
910.928	954.76
914.22	953.23
917.511	938.95
920.803	898.98
924.094	897.48
927.384	875.14
930.675	846.71
933.965	843.04
937.255	790.06
940.544	756.15
943.834	723.13
947.123	718.61
950.411	676.82
953.7	664.84
956.988	628.97
960.276	602.84
963.563	594.39
966.851	566.84
970.138	562.58
973.424	548.46
976.711	549.51
979.997	520.45
983.283	516.59
986.568	505.17
989.853	491.37
993.138	481.7
996.423	462.77
999.708	450.16
1002.992	445.56
1006.275	426.95
1009.559	422.55
1012.842	406.89
1016.125	397.56
1019.408	390.28
1022.69	387.81
1025.972	377.29
1029.254	367.94
1032.536	361.83
1035.817	356.58
1039.098	352.12
1042.379	345.49
1045.659	341.42
1048.939	333.98
1052.219	326.99
1055.498	323.39
1058.778	314.34
1062.057	309.46
1065.335	307.28
1068.614	303.11
1071.892	298.02
1075.17	289.87
1078.447	283.79
1081.724	281.66
1085.001	279.28
1088.278	273.76
1091.554	268.75
1094.83	269.75
1098.106	266.4
1101.382	263.21
1104.657	261.87
1107.932	257.43
1111.206	259.25
1114.481	252.39
1117.755	250.95
1121.029	248.65
1124.302	247.96
1127.575	244
1130.848	240.35
1134.121	239.01
1137.393	237.84
1140.665	233.46
1143.937	231.4
1147.208	229.95
1150.48	230.06
1153.75	225.72
1157.021	222.7
1160.291	222.95
1163.561	219.55
1166.831	219.62
1170.101	217.08
1173.37	217.4
1176.639	217.57
1179.907	215.94
1183.176	212.91
1186.444	212.34
1189.711	212.81
1192.979	212.74
1196.246	211.09
1199.513	211.91
1202.78	210.28
1206.046	210.51
1209.312	208.05
1212.578	207.91
1215.843	209.47
1219.108	208.57
1222.373	212.55
1225.638	213.02
1228.902	216.09
1232.166	216.16
1235.43	217.19
1238.693	221.11
1241.956	222.55
1245.219	225.87
1248.482	226.54
1251.744	226.88
1255.006	227.7
1258.268	222.43
1261.529	221.09
1264.79	220.02
1268.051	218.09
1271.312	216.87
1274.572	213.29
1277.832	211.49
1281.092	208.43
1284.351	206.5
1287.61	206.36
1290.869	202.86
1294.128	202.01
1297.386	201.36
1300.644	199.53
1303.902	201
1307.159	199.61
1310.416	199.68
1313.673	199.15
1316.93	200.85
1320.186	200.23
1323.442	200.62
1326.697	203.5
1329.953	204.68
1333.208	205.53
1336.463	207.23
1339.717	207.34
1342.972	209.87
1346.226	211.42
1349.479	211.95
1352.733	212.67
1355.986	215.21
1359.238	215
1362.491	215.9
1365.743	217.22
1368.995	219.04
1372.247	216.71
1375.498	216.88
1378.749	216.85
1382	215.14
1385.251	215.84
1388.501	214.66
1391.751	213.76
1395	213.29
1398.25	211.46
1401.499	210.11
1404.748	208.24
1407.996	207.69
1411.244	206.75
1414.492	205.84
1417.74	202.68
1420.987	200.11
1424.234	199.72
1427.481	198.05
1430.728	197.77
1433.974	195.99
1437.22	193.58
1440.465	193.63
1443.711	191.7
1446.956	189.87
1450.201	188.35
1453.445	187.43
1456.689	185.91
1459.933	182.43
1463.177	180.4
1466.42	177.96
1469.663	175.92
1472.906	175.18
1476.148	169.81
1479.391	168.5
1482.633	167.55
1485.874	164.74
1489.115	163.41
1492.356	161.62
1495.597	161.35
1498.838	159.14
1502.078	158.02
1505.318	157.72
1508.557	157.09
1511.797	157.15
1515.036	155.53
1518.274	155.09
1521.513	153.65
1524.751	153.67
1527.989	153.6
1531.227	152.97
1534.464	152.86
1537.701	152.84
1540.938	152.02
1544.174	150.31
1547.41	151
1550.646	149.97
1553.882	149.33
1557.117	147.98
1560.352	146.88
1563.587	146.71
1566.821	145.63
1570.055	145.21
1573.289	143.15
1576.523	143.61
1579.756	142.57
1582.989	141.14
1586.222	141.53
1589.454	141.28
1592.686	141.94
1595.918	141.48
1599.15	140.69
1602.381	141.04
1605.612	140.57
1608.843	140.75
1612.073	140.49
1615.303	141.44
1618.533	141.63
1621.762	141.38
1624.992	142.06
1628.221	141.88
1631.449	141.8
1634.678	141.59
1637.906	142.81
1641.134	142.01
1644.361	142.12
1647.588	142.35
1650.815	142.43
1654.042	141.72
1657.269	142.52
1660.495	142.21
1663.72	141.8
1666.946	142.46
1670.171	143.06
1673.396	142.59
1676.621	142.6
1679.845	143.43
1683.069	143.6
1686.293	144.15
1689.517	145.38
1692.74	145.13
1695.963	145.52
1699.185	147.18
1702.408	147.21
1705.63	147.18
1708.852	147.44
1712.073	148.51
1715.294	148.43
1718.515	149.41
1721.736	149.02
1724.956	149.18
1728.176	149.41
1731.396	150.13
1734.616	149.44
1737.835	149.97
1741.054	149.75
1744.272	149.56
1747.491	150.87
1750.709	151.18
1753.927	150.75
1757.144	150.66
1760.361	150.62
1763.578	151.55
1766.795	151.13
1770.011	152.97
1773.227	152.32
1776.443	153.72
1779.658	154.57
1782.874	154.58
1786.089	154.33
1789.303	154.7
1792.518	157.11
1795.732	156.75
1798.945	157.23
1802.159	157.51
1805.372	156.63
1808.585	159.82
1811.797	160.01
1815.01	160.5
1818.222	161.24
1821.434	164.49
1824.645	164.59
1827.856	166.32
1831.067	168.01
1834.278	168.73
1837.488	170.1
1840.698	171.31
1843.908	169.74
1847.117	170.47
1850.326	171.94
1853.535	170.58
1856.744	171.6
1859.952	171.66
1863.16	170.24
1866.368	169.36
1869.575	169.81
1872.782	167.79
1875.989	167.08
1879.196	166.83
1882.402	166.14
1885.608	165.4
1888.814	165.92
1892.019	165.6
1895.224	165.22
1898.429	165.17
1901.634	165.52
1904.838	166.01
1908.042	167.21
1911.246	167.48
1914.449	168.03
1917.652	168.43
1920.855	168.84
1924.058	168.93
1927.26	167.57
1930.462	168.06
1933.664	169.49
1936.865	168.31
1940.066	167.55
1943.267	166.97
1946.467	167.62
1949.668	167.85
1952.868	169.91
1956.067	170.39
1959.267	170.2
1962.466	170.82
1965.665	169.58
1968.863	170.41
1972.061	173.69
1975.259	175.16
1978.457	176.13
1981.654	177.84
1984.852	178.51
1988.048	177.15
1991.245	179.66
1994.441	181.36
1997.637	183.33
2000.833	187.27
2004.028	188.82
2007.223	189.56
2010.418	191.53
2013.613	195.54
2016.807	197.26
2020.001	198.64
2023.194	202.38
2026.388	205.64
2029.581	211.02
2032.774	212.03
2035.966	215.73
2039.158	216.82
2042.35	220.62
2045.542	221.8
2048.733	224.9
2051.924	228.48
2055.115	232.59
2058.306	233.07
2061.496	234.93
2064.686	235.2
2067.875	239.5
2071.065	239.84
2074.254	238.39
2077.442	242.57
2080.631	243.74
2083.819	245.35
2087.007	245.72
2090.195	249.44
2093.382	251.85
2096.569	250.66
2099.756	254.64
2102.942	255.41
2106.128	258.3
2109.314	264.28
2112.5	262.45
2115.685	268.46
2118.87	269.64
2122.055	273.56
2125.239	274.88
2128.424	277.7
2131.608	279.04
2134.791	283.07
2137.974	283.74
2141.157	285.45
2144.34	285.61
2147.523	291.35
2150.705	289.5
2153.887	291.49
2157.068	292.97
2160.25	289.86
2163.431	292.19
2166.611	296.46
2169.792	299.92
2172.972	303.58
2176.152	307.38
2179.331	311.05
2182.511	313.94
2185.69	317.42
2188.868	325.02
2192.047	325.36
2195.225	336.35
2198.403	341.95
2201.58	349.66
2204.758	358.88
2207.935	364.73
2211.111	370.54
2214.288	375.45
2217.464	376.99
2220.64	383.47
2223.815	386.65
2226.991	404.05
2230.166	403.8
2233.34	410.8
2236.515	415.84
2239.689	415.81
2242.863	419.06
2246.036	429.37
2249.209	425.77
2252.382	433.88
2255.555	446.32
2258.727	448.85
2261.9	450.25
2265.071	454.88
2268.243	465.53
2271.414	471.22
2274.585	479.29
2277.756	485.54
2280.926	487.4
2284.096	501.81
2287.266	512.3
2290.436	515.99
2293.605	526.37
2296.774	541.65
2299.942	557.83
2303.111	558.14
2306.279	569.24
2309.447	578.78
2312.614	594.54
2315.781	610.83
2318.948	635.55
2322.115	625.96
2325.281	661.26
2328.447	651.47
2331.613	673.86
2334.779	667.54
2337.944	700.85
2341.109	708.62
2344.274	724.74
2347.438	749.93
2350.602	753.05
2353.766	777.95
2356.929	791.23
2360.092	781.88
2363.255	835.87
2366.418	838.55
2369.58	853.14
2372.742	904.08
2375.904	927.14
2379.066	924.56
2382.227	903.43
2385.388	977.53
2388.548	979.47
2391.709	989.24
2394.869	1105.62
2398.029	1062.47
2401.188	1091.36
2404.347	1082.82
2407.506	1061.73
2410.665	1095.22
2413.823	1159.8
2416.981	1229.42
2420.139	1191.27
2423.296	1174.76
2426.453	1229.37
2429.61	1184.56
2432.767	1235.44
2435.923	1223.42
2439.079	1350.96
2442.235	1371.31
2445.391	1358.5
2448.546	1348.1
2451.701	1307.56
2454.855	1306.36
2458.009	1392.6
2461.163	1442.47
2464.317	1491.9
2467.471	1528.23
2470.624	1533.06
2473.777	1485.77
2476.929	1440.22
2480.082	1392.8
2483.234	1380.74
2486.385	1456.31
2489.537	1463.65
2492.688	1512.09
2495.839	1480.49
2498.989	1445.25
2502.14	1446.7
2505.29	1455.9
2508.439	1475.64
2511.589	1476.9
2514.738	1614.62
2517.887	1580.47
2521.035	1662.7
2524.183	1681.2
2527.331	1687.21
2530.479	1668.73
2533.627	1684.13
