Data from N_3_DEC_VA_2N_Splice17_14-19-55-662.txt Node
Date: Sat Mar 07 14:19:55 EST 2020
User: sa697716
Spectrometer: NQ5500242
Trigger mode: 0
Integration Time (sec): 1.450000E-1
Scans to average: 20
Nonlinearity correction enabled: false
Boxcar width: 5
Storing dark spectrum: false
XAxis mode: Wavelengths
Number of Pixels in Spectrum: 512
>>>>>Begin Spectral Data<<<<<
187.83	164.68
188.298	162.37
188.766	135.86
189.233	102.32
189.701	94.56
190.169	107.35
190.636	130.7
191.104	150.59
191.571	164.26
192.039	17.96
192.506	-645.54
192.974	381.28
193.441	368.76
193.908	124.51
194.375	47.41
194.842	-24.33
195.31	-17.72
195.777	-182.85
196.244	53.17
196.711	78.07
197.177	83.75
197.644	85.01
198.111	84.78
198.578	86.05
199.045	86.83
199.511	86.86
199.978	87.32
200.445	87.28
200.911	87.63
201.378	88.04
201.844	88.37
202.31	87.81
202.777	87.77
203.243	88.08
203.709	87.53
204.176	86.92
204.642	86.4
205.108	85.96
205.574	85.36
206.04	84.54
206.506	83.79
206.972	83.09
207.438	82.21
207.903	81.1
208.369	79.46
208.835	77.96
209.301	76.06
209.766	74.09
210.232	72.05
210.697	70.05
211.163	68.06
211.628	66.45
212.094	64.61
212.559	63.23
213.024	61.53
213.49	60.01
213.955	58.7
214.42	57.65
214.885	56.01
215.35	53.99
215.815	51.36
216.28	48.11
216.745	44.28
217.21	40.48
217.675	36.91
218.14	33.94
218.604	31.24
219.069	28.83
219.534	26.88
219.998	25.28
220.463	23.95
220.927	22.76
221.392	21.85
221.856	21.09
222.32	20.42
222.785	19.85
223.249	19.29
223.713	18.79
224.177	18.39
224.642	17.97
225.106	17.57
225.57	17.21
226.034	16.91
226.497	16.6
226.961	16.29
227.425	16
227.889	15.74
228.353	15.49
228.816	15.23
229.28	14.98
229.744	14.74
230.207	14.51
230.671	14.28
231.134	14.07
231.597	13.87
232.061	13.68
232.524	13.5
232.987	13.32
233.45	13.15
233.914	13
234.377	12.85
234.84	12.69
235.303	12.56
235.766	12.44
236.229	12.31
236.691	12.18
237.154	12.06
237.617	11.95
238.08	11.82
238.542	11.7
239.005	11.6
239.468	11.48
239.93	11.39
240.393	11.29
240.855	11.16
241.317	11.06
241.78	10.95
242.242	10.82
242.704	10.71
243.166	10.6
243.629	10.5
244.091	10.38
244.553	10.28
245.015	10.16
245.477	10.07
245.939	9.97
246.4	9.87
246.862	9.78
247.324	9.7
247.786	9.62
248.247	9.54
248.709	9.45
249.17	9.37
249.632	9.3
250.093	9.24
250.555	9.15
251.016	9.09
251.477	9.02
251.939	8.95
252.4	8.89
252.861	8.82
253.322	8.77
253.783	8.72
254.244	8.67
254.705	8.62
255.166	8.57
255.627	8.53
256.088	8.48
256.549	8.44
257.009	8.38
257.47	8.33
257.931	8.27
258.391	8.21
258.852	8.15
259.312	8.1
259.773	8.04
260.233	7.98
260.694	7.92
261.154	7.87
261.614	7.82
262.074	7.77
262.534	7.73
262.994	7.69
263.455	7.65
263.915	7.61
264.374	7.57
264.834	7.54
265.294	7.5
265.754	7.48
266.214	7.45
266.673	7.42
267.133	7.4
267.593	7.37
268.052	7.35
268.512	7.32
268.971	7.3
269.431	7.28
269.89	7.26
270.349	7.25
270.809	7.23
271.268	7.21
271.727	7.19
272.186	7.18
272.645	7.16
273.104	7.15
273.563	7.13
274.022	7.12
274.481	7.11
274.94	7.09
275.399	7.07
275.857	7.06
276.316	7.05
276.775	7.03
277.233	7.01
277.692	7
278.15	6.98
278.609	6.96
279.067	6.95
279.525	6.93
279.984	6.92
280.442	6.91
280.9	6.9
281.358	6.89
281.816	6.88
282.274	6.87
282.732	6.86
283.19	6.85
283.648	6.85
284.106	6.84
284.564	6.83
285.021	6.83
285.479	6.83
285.937	6.82
286.394	6.8
286.852	6.79
287.309	6.78
287.767	6.75
288.224	6.73
288.682	6.71
289.139	6.69
289.596	6.66
290.053	6.63
290.511	6.59
290.968	6.56
291.425	6.53
291.882	6.5
292.339	6.47
292.796	6.45
293.252	6.43
293.709	6.41
294.166	6.39
294.623	6.37
295.079	6.36
295.536	6.34
295.992	6.34
296.449	6.32
296.905	6.31
297.362	6.29
297.818	6.28
298.274	6.26
298.731	6.25
299.187	6.23
299.643	6.21
300.099	6.21
300.555	6.19
301.011	6.16
301.467	6.15
301.923	6.14
302.379	6.13
302.835	6.12
303.291	6.11
303.746	6.11
304.202	6.11
304.658	6.1
305.113	6.1
305.569	6.1
306.024	6.1
306.479	6.09
306.935	6.09
307.39	6.09
307.845	6.09
308.301	6.08
308.756	6.08
309.211	6.08
309.666	6.09
310.121	6.08
310.576	6.08
311.031	6.08
311.486	6.08
311.94	6.08
312.395	6.08
312.85	6.09
313.305	6.09
313.759	6.09
314.214	6.09
314.668	6.07
315.123	6.07
315.577	6.06
316.032	6.05
316.486	6.05
316.94	6.04
317.394	6.02
317.849	5.99
318.303	5.97
318.757	5.94
319.211	5.92
319.665	5.91
320.119	5.89
320.572	5.87
321.026	5.86
321.48	5.83
321.934	5.81
322.387	5.8
322.841	5.8
323.295	5.79
323.748	5.79
324.202	5.78
324.655	5.77
325.108	5.76
325.562	5.75
326.015	5.74
326.468	5.74
326.921	5.73
327.374	5.72
327.827	5.72
328.28	5.71
328.733	5.7
329.186	5.7
329.639	5.7
330.092	5.7
330.545	5.71
330.997	5.7
331.45	5.7
331.903	5.71
332.355	5.71
332.808	5.71
333.26	5.71
333.713	5.72
334.165	5.73
334.617	5.74
335.069	5.75
335.522	5.75
335.974	5.76
336.426	5.76
336.878	5.76
337.33	5.75
337.782	5.76
338.234	5.76
338.686	5.76
339.137	5.75
339.589	5.74
340.041	5.72
340.493	5.71
340.944	5.69
341.396	5.68
341.847	5.68
342.299	5.65
342.75	5.63
343.201	5.6
343.653	5.58
344.104	5.56
344.555	5.54
345.006	5.52
345.457	5.5
345.908	5.48
346.359	5.47
346.81	5.45
347.261	5.44
347.712	5.43
348.163	5.42
348.613	5.42
349.064	5.42
349.515	5.42
349.965	5.42
350.416	5.42
350.866	5.42
351.317	5.42
351.767	5.42
352.217	5.42
352.668	5.41
353.118	5.41
353.568	5.4
354.018	5.41
354.468	5.41
354.918	5.42
355.368	5.42
355.818	5.41
356.268	5.42
356.718	5.42
357.168	5.42
357.617	5.42
358.067	5.42
358.517	5.43
358.966	5.44
359.416	5.43
359.865	5.42
360.315	5.43
360.764	5.43
361.213	5.42
361.663	5.42
362.112	5.42
362.561	5.43
363.01	5.41
363.459	5.4
363.908	5.39
364.357	5.39
364.806	5.38
365.255	5.38
365.703	5.38
366.152	5.39
366.601	5.39
367.05	5.39
367.498	5.39
367.947	5.39
368.395	5.4
368.844	5.4
369.292	5.39
369.74	5.39
370.189	5.39
370.637	5.38
371.085	5.37
371.533	5.36
371.981	5.37
372.429	5.37
372.877	5.36
373.325	5.36
373.773	5.37
374.221	5.37
374.669	5.36
375.116	5.36
375.564	5.35
376.012	5.35
376.459	5.35
376.907	5.35
377.354	5.35
377.801	5.34
378.249	5.34
378.696	5.33
379.143	5.33
379.591	5.35
380.038	5.34
380.485	5.34
380.932	5.35
381.379	5.36
381.826	5.35
382.273	5.35
382.72	5.34
383.166	5.34
383.613	5.35
384.06	5.35
384.506	5.34
384.953	5.35
385.4	5.35
385.846	5.36
386.292	5.37
386.739	5.37
387.185	5.38
387.631	5.39
388.078	5.39
388.524	5.39
388.97	5.4
389.416	5.42
389.862	5.43
390.308	5.46
390.754	5.48
391.2	5.5
391.645	5.53
392.091	5.56
392.537	5.59
392.983	5.62
393.428	5.66
393.874	5.68
394.319	5.69
394.765	5.7
395.21	5.71
395.655	5.72
396.101	5.75
396.546	5.76
396.991	5.78
397.436	5.81
397.881	5.83
398.326	5.86
398.771	5.89
399.216	5.93
399.661	5.97
400.106	6.01
400.551	6.03
400.995	6.03
401.44	6.05
401.885	6.05
402.329	6.06
402.774	6.08
403.218	6.1
403.663	6.13
404.107	6.15
404.551	6.16
404.995	6.16
405.44	6.18
405.884	6.2
406.328	6.23
406.772	6.25
407.216	6.27
407.66	6.28
408.104	6.29
408.547	6.29
408.991	6.31
409.435	6.31
409.879	6.32
410.322	6.34
410.766	6.36
411.209	6.38
411.653	6.41
412.096	6.43
412.54	6.45
412.983	6.48
413.426	6.54
413.869	6.56
414.312	6.61
414.756	6.65
415.199	6.67
415.642	6.7
416.085	6.7
416.527	6.7
416.97	6.69
417.413	6.69
417.856	6.68
418.298	6.64
418.741	6.64
419.184	6.62
419.626	6.61
420.069	6.61
420.511	6.6
420.953	6.61
421.396	6.62
421.838	6.63
422.28	6.64
422.722	6.68
423.164	6.71
423.606	6.71
424.048	6.72
424.49	6.74
424.932	6.74
425.374	6.73
425.816	6.7
426.258	6.7
426.699	6.68
427.141	6.66
427.582	6.65
428.024	6.65
428.465	6.67
428.907	6.67
429.348	6.65
429.789	6.64
430.231	6.66
430.672	6.7
431.113	6.74
431.554	6.76
431.995	6.78
432.436	6.8
432.877	6.82
433.318	6.83
433.759	6.86
434.2	6.88
434.64	6.91
435.081	6.93
435.522	6.95
435.962	6.95
436.403	6.99
436.843	7.02
437.284	7.01
437.724	7.01
438.164	7.01
438.604	7.01
439.045	7.02
439.485	7.04
439.925	7.05
440.365	7.05
440.805	7.06
441.245	7.05
441.685	7.06
442.125	7.1
442.564	7.11
443.004	7.11
443.444	7.12
443.883	7.14
444.323	7.15
444.762	7.17
445.202	7.17
445.641	7.2
446.081	7.23
446.52	7.23
446.959	7.25
447.398	7.27
447.837	7.3
448.276	7.31
448.716	7.33
449.154	7.35
449.593	7.37
450.032	7.37
450.471	7.37
450.91	7.36
451.349	7.38
451.787	7.37
452.226	7.35
452.664	7.34
453.103	7.34
453.541	7.32
453.98	7.3
454.418	7.26
454.856	7.24
455.295	7.22
455.733	7.17
456.171	7.14
456.609	7.11
457.047	7.09
457.485	7.07
457.923	7.05
458.361	7.03
458.798	7.02
459.236	7.01
459.674	7.01
460.111	7
460.549	7.01
460.987	7
461.424	7.01
461.862	7.01
462.299	7.02
462.736	7.02
463.173	7.02
463.611	7.01
464.048	7.02
464.485	7.03
464.922	7.03
465.359	7.03
465.796	7.04
466.233	7.03
466.67	7.04
467.106	7.03
467.543	7.03
467.98	7.04
468.416	7.05
468.853	7.05
469.29	7.03
469.726	7.04
470.162	7.03
470.599	7.03
471.035	7.03
471.471	7.01
471.907	7.01
472.344	7.01
472.78	7
473.216	6.99
473.652	6.99
474.088	6.99
474.523	6.98
474.959	6.97
475.395	6.96
475.831	6.94
476.266	6.93
476.702	6.92
477.138	6.9
477.573	6.89
478.008	6.88
478.444	6.84
478.879	6.83
479.314	6.82
479.75	6.82
480.185	6.8
480.62	6.79
481.055	6.79
481.49	6.78
481.925	6.77
482.36	6.76
482.795	6.74
483.229	6.75
483.664	6.75
484.099	6.73
484.534	6.72
484.968	6.72
485.403	6.72
485.837	6.72
486.271	6.73
486.706	6.74
487.14	6.74
487.574	6.76
488.009	6.77
488.443	6.77
488.877	6.8
489.311	6.83
489.745	6.85
490.179	6.88
490.613	6.92
491.046	6.95
491.48	6.98
491.914	7.02
492.348	7.06
492.781	7.11
493.215	7.16
493.648	7.2
494.082	7.25
494.515	7.31
494.948	7.37
495.382	7.42
495.815	7.48
496.248	7.56
496.681	7.63
497.114	7.7
497.547	7.79
497.98	7.86
498.413	7.95
498.846	8.05
499.279	8.14
499.711	8.23
500.144	8.35
500.577	8.46
501.009	8.56
501.442	8.68
501.874	8.81
502.306	8.94
502.739	9.09
503.171	9.23
503.603	9.38
504.036	9.54
504.468	9.7
504.9	9.85
505.332	10.02
505.764	10.21
506.196	10.39
506.627	10.59
507.059	10.79
507.491	10.99
507.923	11.2
508.354	11.44
508.786	11.67
509.217	11.91
509.649	12.17
510.08	12.42
510.512	12.69
510.943	12.96
511.374	13.23
511.805	13.51
512.237	13.79
512.668	14.1
513.099	14.38
513.53	14.69
513.961	14.99
514.391	15.3
514.822	15.62
515.253	15.93
515.684	16.25
516.114	16.58
516.545	16.91
516.975	17.24
517.406	17.57
517.836	17.9
518.267	18.23
518.697	18.56
519.127	18.88
519.558	19.22
519.988	19.54
520.418	19.86
520.848	20.17
521.278	20.48
521.708	20.9
522.138	21.19
522.567	21.5
522.997	21.78
523.427	22.06
523.857	22.34
524.286	22.6
524.716	22.85
525.145	23.11
525.575	23.37
526.004	23.62
526.433	23.75
526.863	23.97
527.292	24.18
527.721	24.39
528.15	24.58
528.579	24.78
529.008	24.97
529.437	25.14
529.866	25.3
530.295	25.45
530.724	25.59
531.152	25.73
531.581	25.87
532.01	26
532.438	26.12
532.867	26.24
533.295	26.33
533.723	26.42
534.152	26.5
534.58	26.58
535.008	26.63
535.436	26.71
535.865	26.77
536.293	26.81
536.721	26.86
537.149	26.92
537.576	26.97
538.004	27.02
538.432	27.04
538.86	27.08
539.287	27.11
539.715	27.16
540.143	27.18
540.57	27.2
540.998	27.23
541.425	27.25
541.852	27.27
542.28	27.29
542.707	27.32
543.134	27.36
543.561	27.41
543.988	27.44
544.415	27.46
544.842	27.48
545.269	27.52
545.696	27.56
546.123	27.59
546.549	27.64
546.976	27.68
547.403	27.71
547.829	27.73
548.256	27.77
548.682	27.79
549.108	27.81
549.535	27.86
549.961	27.88
550.387	27.88
550.813	27.88
551.24	27.89
551.666	27.89
552.092	27.88
552.518	27.88
552.943	27.86
553.369	27.84
553.795	27.82
554.221	27.77
554.646	27.74
555.072	27.71
555.498	27.67
555.923	27.61
556.349	27.52
556.774	27.46
557.199	27.38
557.625	27.3
558.05	27.21
558.475	27.12
558.9	27.04
559.325	26.94
559.75	26.84
560.175	26.73
560.6	26.6
561.025	26.5
561.449	26.38
561.874	26.23
562.299	26.09
562.723	25.94
563.148	25.79
563.572	25.61
563.997	25.44
564.421	25.26
564.846	25.08
565.27	24.9
565.694	24.71
566.118	24.51
566.542	24.33
566.966	24.13
567.39	23.93
567.814	23.73
568.238	23.53
568.662	23.33
569.086	23.14
569.509	22.96
569.933	22.77
570.357	22.57
570.78	22.37
571.204	22.18
571.627	22
572.05	21.83
572.474	21.68
572.897	21.53
573.32	21.38
573.743	21.21
574.166	21.07
574.589	20.92
575.012	20.8
575.435	20.68
575.858	20.55
576.281	20.42
576.704	20.31
577.126	20.18
577.549	20.05
577.972	19.93
578.394	19.82
578.817	19.71
579.239	19.6
579.661	19.5
580.084	19.41
580.506	19.31
580.928	19.23
581.35	19.15
581.772	19.06
582.194	18.97
582.616	18.89
583.038	18.82
583.46	18.72
583.882	18.65
584.303	18.55
584.725	18.46
585.147	18.37
585.568	18.28
585.99	18.19
586.411	18.12
586.833	18.04
587.254	17.97
587.675	17.91
588.096	17.85
588.518	17.78
588.939	17.72
589.36	17.65
589.781	17.62
590.202	17.57
590.623	17.53
591.043	17.48
591.464	17.43
591.885	17.37
592.305	17.32
592.726	17.28
593.147	17.23
593.567	17.2
593.987	17.16
594.408	17.11
594.828	17.07
595.248	17.03
595.669	17
596.089	16.95
596.509	16.92
596.929	16.88
597.349	16.84
597.769	16.79
598.189	16.74
598.608	16.71
599.028	16.67
599.448	16.61
599.867	16.56
600.287	16.51
600.706	16.46
601.126	16.4
601.545	16.36
601.965	16.31
602.384	16.26
602.803	16.2
603.222	16.13
603.641	16.07
604.061	16.02
604.48	15.95
604.898	15.87
605.317	15.81
605.736	15.74
606.155	15.67
606.574	15.58
606.992	15.5
607.411	15.43
607.829	15.33
608.248	15.23
608.666	15.13
609.085	15.05
609.503	14.97
609.921	14.89
610.339	14.81
610.758	14.73
611.176	14.65
611.594	14.57
612.012	14.49
612.43	14.44
612.847	14.37
613.265	14.3
613.683	14.21
614.101	14.15
614.518	14.07
614.936	13.98
615.353	13.9
615.771	13.85
616.188	13.77
616.606	13.72
617.023	13.64
617.44	13.6
617.857	13.55
618.274	13.49
618.691	13.43
619.108	13.39
619.525	13.34
619.942	13.3
620.359	13.25
620.776	13.23
621.192	13.18
621.609	13.16
622.026	13.12
622.442	13.09
622.859	13.07
623.275	13.04
623.691	13.01
624.108	13
624.524	12.97
624.94	12.95
625.356	12.93
625.772	12.91
626.188	12.89
626.604	12.86
627.02	12.84
627.436	12.82
627.852	12.81
628.268	12.8
628.683	12.78
629.099	12.77
629.514	12.75
629.93	12.71
630.345	12.67
630.761	12.63
631.176	12.6
631.591	12.55
632.007	12.5
632.422	12.44
632.837	12.37
633.252	12.3
633.667	12.23
634.082	12.15
634.497	12.08
634.911	11.99
635.326	11.9
635.741	11.8
636.155	11.7
636.57	11.57
636.984	11.47
637.399	11.35
637.813	11.23
638.228	11.1
638.642	10.97
639.056	10.83
639.47	10.72
639.884	10.61
640.298	10.48
640.712	10.37
641.126	10.27
641.54	10.15
641.954	10.03
642.368	9.92
642.781	9.82
643.195	9.72
643.609	9.62
644.022	9.5
644.436	9.4
644.849	9.31
645.262	9.21
645.676	9.12
646.089	9.05
646.502	8.98
646.915	8.91
647.328	8.84
647.741	8.79
648.154	8.75
648.567	8.71
648.98	8.65
649.393	8.62
649.805	8.59
650.218	8.56
650.631	8.53
651.043	8.49
651.456	8.48
651.868	8.44
652.28	8.4
652.693	8.36
653.105	8.33
653.517	8.3
653.929	8.25
654.341	8.2
654.753	8.15
655.165	8.09
655.577	8.05
655.989	7.98
656.401	7.92
656.813	7.88
657.224	7.81
657.636	7.74
658.047	7.67
658.459	7.61
658.87	7.54
659.282	7.47
659.693	7.42
660.104	7.34
660.515	7.28
660.926	7.22
661.338	7.16
661.749	7.11
662.159	7.05
662.57	7.01
662.981	6.96
663.392	6.91
663.803	6.87
664.213	6.82
664.624	6.79
665.035	6.76
665.445	6.73
665.855	6.69
666.266	6.67
666.676	6.66
667.086	6.62
667.497	6.61
667.907	6.59
668.317	6.58
668.727	6.57
669.137	6.56
669.547	6.56
669.956	6.57
670.366	6.57
670.776	6.56
671.186	6.56
671.595	6.57
672.005	6.58
672.414	6.59
672.824	6.6
673.233	6.62
673.642	6.64
674.052	6.65
674.461	6.67
674.87	6.71
675.279	6.75
675.688	6.79
676.097	6.83
676.506	6.86
676.915	6.9
677.323	6.95
677.732	6.99
678.141	7.03
678.549	7.09
678.958	7.15
679.366	7.2
679.775	7.26
680.183	7.32
680.592	7.39
681	7.48
681.408	7.56
681.816	7.66
682.224	7.76
682.632	7.89
683.04	8
683.448	8.13
683.856	8.27
684.264	8.44
684.671	8.63
685.079	8.83
685.487	9.06
685.894	9.31
686.302	9.57
686.709	9.87
687.116	10.18
687.524	10.54
687.931	10.92
688.338	11.33
688.745	11.77
689.152	12.22
689.559	12.71
689.966	13.22
690.373	13.76
690.78	14.33
691.187	14.92
691.593	15.53
692	16.14
692.407	16.76
692.813	17.42
693.22	18.08
693.626	18.75
694.032	19.43
694.439	20.12
694.845	20.81
695.251	21.52
695.657	22.21
696.063	22.93
696.469	23.64
696.875	24.36
697.281	25.06
697.687	25.78
698.093	26.49
698.498	27.19
698.904	27.87
699.31	28.56
699.715	29.23
700.12	29.9
700.526	30.54
700.931	31.18
701.337	31.82
701.742	32.45
702.147	33.05
702.552	33.68
702.957	34.25
703.362	34.84
703.767	35.41
704.172	35.98
704.577	36.52
704.981	37.1
705.386	37.63
705.791	38.17
706.195	38.69
706.6	39.22
707.004	39.72
707.408	40.25
707.813	40.75
708.217	41.24
708.621	41.75
709.025	42.24
709.43	42.67
709.834	43.15
710.237	43.59
710.641	44.04
711.045	44.46
711.449	44.89
711.853	45.32
712.256	45.73
712.66	46.17
713.064	46.55
713.467	46.96
713.87	47.39
714.274	47.76
714.677	48.15
715.08	48.51
715.484	48.9
715.887	49.28
716.29	49.62
716.693	49.98
717.096	50.32
717.499	50.66
717.901	50.98
718.304	51.3
718.707	51.62
719.109	51.97
719.512	52.3
719.915	52.61
720.317	52.89
720.719	53.15
721.122	53.42
721.524	53.67
721.926	53.95
722.328	54.21
722.731	54.45
723.133	54.7
723.535	54.93
723.937	55.17
724.338	55.37
724.74	55.6
725.142	55.82
725.544	56.03
725.945	56.26
726.347	56.41
726.748	56.59
727.15	56.75
727.551	56.94
727.952	57.09
728.354	57.22
728.755	57.37
729.156	57.48
729.557	57.62
729.958	57.73
730.359	57.88
730.76	58.03
731.161	58.16
731.562	58.31
731.962	58.4
732.363	58.53
732.763	58.66
733.164	58.77
733.564	58.91
733.965	58.98
734.365	59.1
734.766	59.17
735.166	59.26
735.566	59.35
735.966	59.43
736.366	59.53
736.766	59.58
737.166	59.67
737.566	59.76
737.966	59.83
738.365	59.91
738.765	59.98
739.165	60.04
739.564	60.1
739.964	60.16
740.363	60.21
740.763	60.22
741.162	60.27
741.561	60.28
741.96	60.3
742.36	60.32
742.759	60.37
743.158	60.43
743.557	60.44
743.955	60.48
744.354	60.51
744.753	60.6
745.152	60.68
745.55	60.72
745.949	60.77
746.348	60.84
746.746	60.91
747.144	60.96
747.543	60.96
747.941	61.02
748.339	61.03
748.737	61.06
749.136	61.02
749.534	61
749.932	61.02
750.33	61.03
750.727	61.02
751.125	61.02
751.523	61.03
751.921	61.03
752.318	61.02
752.716	61.02
753.113	61.03
753.511	61.04
753.908	61.07
754.305	61.07
754.703	61.03
755.1	61.03
755.497	61
755.894	60.98
756.291	60.97
756.688	60.95
757.085	60.97
757.482	60.94
757.878	60.93
758.275	60.9
758.672	60.9
759.068	60.94
759.465	60.92
759.861	60.94
760.258	60.96
760.654	60.95
761.05	60.97
761.447	60.97
761.843	60.93
762.239	60.91
762.635	60.93
763.031	60.89
763.427	60.85
763.822	60.86
764.218	60.87
764.614	60.87
765.01	60.88
765.405	60.86
765.801	60.81
766.196	60.85
766.592	60.89
766.987	60.87
767.382	60.87
767.778	60.88
768.173	60.9
768.568	60.87
768.963	60.83
769.358	60.83
769.753	60.82
770.148	60.85
770.542	60.85
770.937	60.84
771.332	60.83
771.726	60.85
772.121	60.82
772.515	60.83
772.91	60.82
773.304	60.86
773.699	60.88
774.093	60.9
774.487	60.91
774.881	60.93
775.275	60.91
775.669	60.91
776.063	60.9
776.457	60.94
776.851	60.91
777.245	60.92
777.638	60.92
778.032	60.92
778.425	60.95
778.819	60.94
779.212	60.94
779.606	60.96
779.999	60.96
780.392	61
780.786	60.99
781.179	61.01
781.572	61.06
781.965	61.09
782.358	61.09
782.751	61.07
783.143	61.09
783.536	61.07
783.929	61.09
784.322	61.12
784.714	61.1
785.107	61.15
785.499	61.14
785.891	61.12
786.284	61.14
786.676	61.14
787.068	61.15
787.46	61.14
787.852	61.17
788.245	61.18
788.636	61.18
789.028	61.19
789.42	61.16
789.812	61.17
790.204	61.17
790.595	61.17
790.987	61.17
791.378	61.18
791.77	61.17
792.161	61.18
792.553	61.19
792.944	61.17
793.335	61.21
793.726	61.25
794.117	61.27
794.508	61.27
794.899	61.24
795.29	61.27
795.681	61.27
796.072	61.31
796.463	61.29
796.853	61.28
797.244	61.33
797.634	61.31
798.025	61.34
798.415	61.32
798.806	61.33
799.196	61.38
799.586	61.38
799.976	61.42
800.366	61.43
800.756	61.48
801.146	61.5
801.536	61.52
801.926	61.52
802.316	61.47
802.706	61.5
803.095	61.52
803.485	61.55
803.874	61.56
804.264	61.56
804.653	61.58
805.043	61.59
805.432	61.62
805.821	61.63
806.21	61.65
806.599	61.72
806.988	61.76
807.377	61.75
807.766	61.74
808.155	61.73
808.544	61.75
808.933	61.77
809.321	61.78
809.71	61.75
810.098	61.76
810.487	61.77
810.875	61.76
811.264	61.75
811.652	61.77
812.04	61.79
812.428	61.84
812.816	61.85
813.204	61.82
813.592	61.82
813.98	61.86
814.368	61.88
814.756	61.89
815.144	61.91
815.531	61.91
815.919	61.92
816.306	61.92
816.694	61.9
817.081	61.89
817.469	61.92
817.856	61.92
818.243	61.89
818.63	61.89
819.017	61.89
819.404	61.87
819.791	61.88
820.178	61.88
820.565	61.86
820.952	61.83
821.339	61.81
821.725	61.81
822.112	61.84
822.498	61.86
822.885	61.85
823.271	61.83
823.657	61.81
824.044	61.81
824.43	61.83
824.816	61.83
825.202	61.83
825.588	61.84
825.974	61.8
826.36	61.75
826.746	61.73
827.132	61.7
827.517	61.7
827.903	61.69
828.289	61.66
828.674	61.62
829.06	61.58
829.445	61.57
829.83	61.55
830.216	61.53
830.601	61.52
830.986	61.48
831.371	61.46
831.756	61.44
832.141	61.42
832.526	61.4
832.911	61.37
833.295	61.38
833.68	61.38
834.065	61.35
834.449	61.33
834.834	61.32
835.218	61.32
835.603	61.28
835.987	61.24
836.371	61.22
836.755	61.19
837.139	61.17
837.524	61.14
837.908	61.13
838.291	61.14
838.675	61.13
839.059	61.11
839.443	61.08
839.827	61.08
840.21	61.06
840.594	61.07
840.977	61.05
841.361	61.05
841.744	61.02
842.127	60.99
842.511	60.98
842.894	60.94
843.277	60.93
843.66	60.91
844.043	60.89
844.426	60.9
844.809	60.91
845.191	60.93
845.574	60.89
845.957	60.91
846.339	60.92
846.722	60.91
847.104	60.93
847.487	60.93
847.869	60.95
848.252	60.97
848.634	60.98
849.016	60.96
849.398	60.95
849.78	60.99
850.162	60.97
850.544	60.96
850.926	60.95
851.307	60.96
851.689	60.97
852.071	60.96
852.452	60.93
852.834	60.91
853.215	60.91
853.597	60.9
853.978	60.88
854.359	60.9
854.741	60.9
855.122	60.89
855.503	60.85
855.884	60.85
856.265	60.86
856.646	60.88
857.026	60.9
857.407	60.92
857.788	60.91
858.169	60.93
858.549	60.92
858.93	60.95
859.31	60.97
859.69	61.03
860.071	61.04
860.451	61.04
860.831	61.04
861.211	61.02
861.591	60.99
861.971	61.01
862.351	61.02
862.731	61.01
863.111	60.98
863.491	60.96
863.87	60.92
864.25	60.9
864.629	60.92
865.009	60.9
865.388	60.91
865.768	60.92
866.147	60.9
866.526	60.89
866.905	60.88
867.284	60.9
867.663	60.9
868.042	60.92
868.421	60.95
868.8	60.94
869.179	60.97
869.558	60.97
869.936	60.97
870.315	60.96
870.693	60.96
871.072	60.98
871.45	61
871.828	61.03
872.207	61.04
872.585	61
872.963	61.01
873.341	60.98
873.719	60.97
874.097	60.95
874.475	60.98
874.853	60.97
875.23	60.98
875.608	60.95
875.986	60.96
876.363	60.95
876.741	60.99
877.118	60.97
877.495	61.01
877.873	61.03
878.25	61.06
878.627	61.08
879.004	61.11
879.381	61.11
879.758	61.09
880.135	61.08
880.512	61.06
880.889	61.04
881.265	61.01
881.642	61
882.019	61
882.395	60.97
882.772	60.93
883.148	60.91
883.524	60.91
883.901	60.91
884.277	60.88
884.653	60.86
885.029	60.84
885.405	60.84
885.781	60.83
886.157	60.8
886.532	60.8
886.908	60.79
887.284	60.78
887.659	60.72
888.035	60.71
888.411	60.69
888.786	60.68
889.161	60.69
889.537	60.68
889.912	60.65
890.287	60.66
890.662	60.62
891.037	60.62
891.412	60.56
891.787	60.54
892.162	60.53
892.536	60.53
892.911	60.51
893.286	60.47
893.66	60.45
894.035	60.44
894.409	60.4
894.784	60.4
895.158	60.41
895.532	60.43
895.906	60.44
896.281	60.41
896.655	60.4
897.029	60.4
897.402	60.37
897.776	60.39
898.15	60.38
898.524	60.4
898.898	60.39
899.271	60.36
899.645	60.37
900.018	60.39
900.392	60.4
900.765	60.42
901.138	60.43
901.511	60.48
901.884	60.48
902.258	60.5
902.631	60.52
903.003	60.54
903.376	60.55
903.749	60.53
904.122	60.59
904.495	60.62
904.867	60.65
905.24	60.69
905.612	60.72
905.985	60.72
906.357	60.72
906.729	60.73
907.102	60.76
907.474	60.8
907.846	60.84
908.218	60.8
908.59	60.83
908.962	60.82
909.334	60.81
909.705	60.8
910.077	60.82
910.449	60.83
910.82	60.85
911.192	60.84
911.563	60.82
911.935	60.83
912.306	60.85
912.677	60.87
913.048	60.86
913.419	60.85
913.79	60.86
914.161	60.85
914.532	60.83
914.903	60.82
915.274	60.82
915.645	60.8
916.015	60.81
916.386	60.8
916.756	60.77
917.127	60.79
917.497	60.8
917.868	60.81
918.238	60.82
918.608	60.88
918.978	60.91
919.348	60.94
919.718	60.95
920.088	60.95
920.458	60.99
920.828	61
921.198	60.99
921.567	60.99
921.937	61.01
922.306	60.98
922.676	60.96
923.045	60.91
923.415	60.88
923.784	60.91
924.153	60.92
924.522	60.92
924.891	60.92
925.26	60.93
925.629	60.94
925.998	60.91
926.367	60.93
926.736	60.91
927.104	60.95
927.473	60.98
927.842	60.94
928.21	60.93
928.578	60.91
928.947	60.92
929.315	60.88
929.683	60.86
930.051	60.83
930.42	60.82
930.788	60.78
931.156	60.71
931.523	60.67
931.891	60.68
932.259	60.61
932.627	60.55
932.994	60.49
933.362	60.44
933.729	60.41
934.097	60.39
934.464	60.36
934.831	60.3
935.199	60.32
935.566	60.28
935.933	60.27
936.3	60.27
936.667	60.28
937.034	60.29
937.401	60.35
937.767	60.34
938.134	60.38
938.501	60.44
938.867	60.54
939.234	60.56
939.6	60.67
939.967	60.72
940.333	60.75
940.699	60.84
941.065	60.89
941.431	60.98
941.798	61.02
942.163	61.06
942.529	61.12
942.895	61.2
943.261	61.24
943.627	61.23
943.992	61.25
944.358	61.28
944.723	61.29
945.089	61.29
945.454	61.3
945.82	61.36
946.185	61.36
946.55	61.28
946.915	61.21
947.28	61.15
947.645	61.13
948.01	61.1
948.375	61.08
948.74	61.04
949.104	61.05
949.469	61
949.834	60.92
950.198	60.9
950.562	60.89
950.927	60.86
951.291	60.82
951.655	60.75
952.02	60.72
952.384	60.7
952.748	60.66
953.112	60.55
953.476	60.46
953.839	60.39
954.203	60.31
954.567	60.28
954.931	60.24
955.294	60.23
955.658	60.26
956.021	60.21
956.385	60.17
956.748	60.14
957.111	60.14
957.474	60.15
957.837	60.12
958.2	60.14
958.563	60.19
958.926	60.2
959.289	60.19
959.652	60.11
960.015	60.09
960.377	60.06
960.74	60.08
961.102	60.1
961.465	60.12
961.827	60.18
962.189	60.13
962.552	60.06
962.914	60.01
963.276	60.07
963.638	60.1
964	60.11
964.362	60.13
964.724	60.09
965.085	60.05
965.447	60.03
965.809	60
966.17	60.02
966.532	60.04
966.893	60.12
967.255	60.07
967.616	60.06
967.977	60.06
968.338	60.06
968.699	60.07
969.061	60.11
969.421	60.09
969.782	60.1
970.143	60.17
970.504	60.14
970.865	60.11
971.225	60.06
971.586	60.06
971.946	60.07
972.307	60.01
972.667	59.99
973.027	60.01
973.388	60.06
973.748	60.05
974.108	60.08
974.468	60.06
974.828	60.1
975.188	60.19
975.548	60.21
975.907	60.23
976.267	60.34
976.627	60.41
976.986	60.37
977.346	60.28
977.705	60.29
978.064	60.24
978.424	60.31
978.783	60.26
979.142	60.23
979.501	60.2
979.86	60.27
980.219	60.2
980.578	60.25
980.937	60.34
981.296	60.36
981.654	60.36
982.013	60.34
982.371	60.3
982.73	60.42
983.088	60.4
983.447	60.41
983.805	60.39
984.163	60.35
984.521	60.29
984.879	60.21
985.237	60.19
985.595	60.22
985.953	60.26
986.311	60.24
986.669	60.2
987.026	60.16
987.384	60.28
987.741	60.21
988.099	60.34
988.456	60.35
988.814	60.48
989.171	60.56
989.528	60.6
989.885	60.63
990.242	60.7
990.599	60.76
990.956	60.87
991.313	60.86
991.67	60.92
992.027	60.99
992.383	61.14
992.74	61.16
993.096	61.18
993.453	61.15
993.809	61.09
994.165	61.19
994.522	61.11
994.878	61.24
995.234	61.26
995.59	61.31
995.946	61.42
996.302	61.36
996.658	61.42
997.013	61.44
997.369	61.53
997.725	61.66
998.08	61.74
998.436	61.85
998.791	61.75
999.147	61.74
999.502	61.78
999.857	61.77
1000.212	61.77
1000.567	61.84
1000.922	61.92
1001.277	61.89
1001.632	62.02
1001.987	61.94
1002.342	61.81
1002.696	61.84
1003.051	62.07
1003.406	62.22
1003.76	62.2
1004.114	62.3
1004.469	62.34
1004.823	62.65
1005.177	62.87
1005.531	62.85
1005.885	62.88
1006.239	62.97
1006.593	63.16
1006.947	63.07
1007.301	63.03
1007.655	63.12
1008.008	63.1
1008.362	63.07
1008.715	63.03
1009.069	63.06
1009.422	63.07
1009.776	63.15
1010.129	63.41
1010.482	63.35
1010.835	63.47
1011.188	63.43
1011.541	63.45
1011.894	63.71
1012.247	63.73
1012.6	63.63
1012.952	63.69
1013.305	63.91
1013.657	64.02
1014.01	63.96
1014.362	64.09
1014.715	64.11
1015.067	64.39
1015.419	64.54
1015.771	64.33
1016.123	64.49
1016.475	64.68
1016.827	64.84
1017.179	64.81
1017.531	64.97
1017.883	65.09
1018.234	65.14
1018.586	65.34
1018.938	65.59
1019.289	65.6
1019.64	65.78
1019.992	65.79
1020.343	65.88
1020.694	65.86
1021.045	65.99
1021.396	66.05
1021.747	66.27
1022.098	66.48
1022.449	66.51
1022.8	66.4
1023.151	66.44
1023.501	66.74
1023.852	66.85
1024.202	66.85
1024.553	66.88
1024.903	66.79
1025.253	67.02
1025.604	67.16
1025.954	67.05
1026.304	67.12
1026.654	67.12
1027.004	67.11
1027.354	67.1
1027.703	67.15
1028.053	67.24
1028.403	67.46
1028.753	67.35
1029.102	67.54
1029.452	67.7
1029.801	68.16
1030.15	68.23
1030.499	68.26
897.758	954.89
901.051	963.7
904.343	964.3
907.636	981.93
910.928	957.75
914.22	953.41
917.511	940.73
920.803	903.13
924.094	900.9
927.384	879.6
930.675	847.41
933.965	845.17
937.255	791.43
940.544	759.16
943.834	726.89
947.123	719.19
950.411	679.68
953.7	666.55
956.988	629.36
960.276	605.88
963.563	598.98
966.851	574.99
970.138	570.69
973.424	557.19
976.711	558.4
979.997	530.46
983.283	528.45
986.568	518.85
989.853	504.52
993.138	494.85
996.423	476.8
999.708	462.4
1002.992	457.76
1006.275	438.43
1009.559	434.97
1012.842	420.24
1016.125	409.23
1019.408	400.69
1022.69	396.66
1025.972	388.55
1029.254	379.75
1032.536	372.26
1035.817	367.35
1039.098	363.33
1042.379	357.67
1045.659	353.29
1048.939	345.13
1052.219	338.44
1055.498	336.5
1058.778	328.27
1062.057	321.75
1065.335	319.6
1068.614	317.17
1071.892	312.38
1075.17	303.77
1078.447	297.97
1081.724	296.2
1085.001	294.17
1088.278	289.67
1091.554	283.56
1094.83	284.54
1098.106	281.74
1101.382	279.82
1104.657	276.56
1107.932	272.73
1111.206	274.31
1114.481	268
1117.755	265.96
1121.029	264.01
1124.302	262.08
1127.575	258.18
1130.848	254.92
1134.121	253.31
1137.393	251.54
1140.665	246.73
1143.937	244.83
1147.208	243
1150.48	242.29
1153.75	238.09
1157.021	235.46
1160.291	236.66
1163.561	233.75
1166.831	233.21
1170.101	231.18
1173.37	231.33
1176.639	232.46
1179.907	230.76
1183.176	228.35
1186.444	227.89
1189.711	228.68
1192.979	228.58
1196.246	226.67
1199.513	226.94
1202.78	226.04
1206.046	226.07
1209.312	223.81
1212.578	223.88
1215.843	224.98
1219.108	224.52
1222.373	228.32
1225.638	229.38
1228.902	231.94
1232.166	231.11
1235.43	232.42
1238.693	235.61
1241.956	237.04
1245.219	240.12
1248.482	240.47
1251.744	240.9
1255.006	241.25
1258.268	236.12
1261.529	234.33
1264.79	233.27
1268.051	232.52
1271.312	230.15
1274.572	226.8
1277.832	225.48
1281.092	221.92
1284.351	220.51
1287.61	220.5
1290.869	217.09
1294.128	216.15
1297.386	215.42
1300.644	213.49
1303.902	215.1
1307.159	214.62
1310.416	214.87
1313.673	213.48
1316.93	215.71
1320.186	214.85
1323.442	215.36
1326.697	218.04
1329.953	219.25
1333.208	220.07
1336.463	222.38
1339.717	222.3
1342.972	224.29
1346.226	225.9
1349.479	226.43
1352.733	227.21
1355.986	229.53
1359.238	228.82
1362.491	229.91
1365.743	232.05
1368.995	232.2
1372.247	231.26
1375.498	231.05
1378.749	231.64
1382	229.87
1385.251	230.52
1388.501	228.98
1391.751	227.8
1395	227.42
1398.25	225.62
1401.499	222.39
1404.748	221.81
1407.996	219.32
1411.244	217.95
1414.492	216.96
1417.74	213.42
1420.987	210.22
1424.234	209.59
1427.481	207.99
1430.728	207.48
1433.974	205.22
1437.22	203.98
1440.465	203.29
1443.711	201.33
1446.956	199.95
1450.201	197.26
1453.445	196.44
1456.689	195.22
1459.933	192.32
1463.177	189.87
1466.42	187.92
1469.663	186.32
1472.906	185.28
1476.148	180.8
1479.391	179.06
1482.633	178
1485.874	176.47
1489.115	175.05
1492.356	173.86
1495.597	173.55
1498.838	172.06
1502.078	170.55
1505.318	170.25
1508.557	170.11
1511.797	170.21
1515.036	169.15
1518.274	168.68
1521.513	167.64
1524.751	167.62
1527.989	167.38
1531.227	166.55
1534.464	166.79
1537.701	166.74
1540.938	166.18
1544.174	163.79
1547.41	164.77
1550.646	164.38
1553.882	164.08
1557.117	162.34
1560.352	161.7
1563.587	161.41
1566.821	160.24
1570.055	160.03
1573.289	157.93
1576.523	158.2
1579.756	158.27
1582.989	156.82
1586.222	156.56
1589.454	156.46
1592.686	157.62
1595.918	156.98
1599.15	156.44
1602.381	157.2
1605.612	156.21
1608.843	157.03
1612.073	156.86
1615.303	157.22
1618.533	157.52
1621.762	157.54
1624.992	157.68
1628.221	157.15
1631.449	156.77
1634.678	157.57
1637.906	158.16
1641.134	158.05
1644.361	157.88
1647.588	158.31
1650.815	157.92
1654.042	157.64
1657.269	158.11
1660.495	157.74
1663.72	157.54
1666.946	158.1
1670.171	157.96
1673.396	157.6
1676.621	157.53
1679.845	158.28
1683.069	158.22
1686.293	158.82
1689.517	159.24
1692.74	159.21
1695.963	159.66
1699.185	161
1702.408	161.01
1705.63	161.09
1708.852	161.86
1712.073	162.01
1715.294	161.8
1718.515	162.8
1721.736	162.75
1724.956	163.13
1728.176	163.28
1731.396	164.1
1734.616	163.3
1737.835	164.17
1741.054	163.13
1744.272	163.17
1747.491	164.75
1750.709	165.11
1753.927	164.57
1757.144	164.49
1760.361	164.5
1763.578	165.14
1766.795	164.85
1770.011	166.34
1773.227	166.11
1776.443	168.03
1779.658	168.06
1782.874	167.87
1786.089	167.72
1789.303	167.97
1792.518	169.73
1795.732	169.73
1798.945	170.52
1802.159	170.82
1805.372	170.4
1808.585	173.08
1811.797	173.33
1815.01	174.48
1818.222	175.66
1821.434	178.38
1824.645	178.59
1827.856	180.87
1831.067	182.23
1834.278	182.23
1837.488	183.72
1840.698	184.88
1843.908	183.29
1847.117	183.85
1850.326	184.61
1853.535	183.22
1856.744	184.64
1859.952	184.35
1863.16	182.95
1866.368	181.73
1869.575	182.42
1872.782	178.87
1875.989	178.32
1879.196	177.13
1882.402	176.05
1885.608	174.64
1888.814	174.17
1892.019	172.79
1895.224	171.76
1898.429	169.75
1901.634	169.82
1904.838	169.2
1908.042	170.84
1911.246	170.42
1914.449	170.49
1917.652	170.88
1920.855	170.55
1924.058	170.81
1927.26	169.13
1930.462	169.74
1933.664	171.83
1936.865	170.36
1940.066	170.33
1943.267	169.27
1946.467	169.2
1949.668	169.84
1952.868	170.91
1956.067	172.17
1959.267	172.21
1962.466	172.76
1965.665	172.42
1968.863	173.29
1972.061	176.7
1975.259	177.95
1978.457	179
1981.654	180.85
1984.852	181.7
1988.048	181.02
1991.245	183.02
1994.441	184.61
1997.637	186.67
2000.833	190.64
2004.028	192.83
2007.223	193.1
2010.418	194.94
2013.613	199.09
2016.807	200.8
2020.001	202.39
2023.194	206.36
2026.388	211.06
2029.581	216.94
2032.774	217.73
2035.966	221.64
2039.158	222.59
2042.35	226.06
2045.542	228.68
2048.733	232
2051.924	235.73
2055.115	239.84
2058.306	240
2061.496	241.01
2064.686	242.05
2067.875	246.66
2071.065	247.26
2074.254	245.58
2077.442	250.73
2080.631	250.84
2083.819	252.95
2087.007	252.55
2090.195	257.06
2093.382	259.6
2096.569	258.56
2099.756	261.65
2102.942	262.75
2106.128	264.5
2109.314	271.94
2112.5	270.37
2115.685	276.35
2118.87	277.13
2122.055	282.55
2125.239	282.54
2128.424	285.51
2131.608	287.35
2134.791	292.02
2137.974	293.31
2141.157	295.05
2144.34	294.4
2147.523	298.8
2150.705	297.35
2153.887	301.12
2157.068	301.66
2160.25	300
2163.431	302.2
2166.611	305.72
2169.792	309.75
2172.972	312.75
2176.152	316.06
2179.331	319.2
2182.511	323.01
2185.69	326.51
2188.868	332.59
2192.047	332.32
2195.225	341.98
2198.403	349.47
2201.58	355.3
2204.758	362.06
2207.935	369.12
2211.111	374.71
2214.288	379.22
2217.464	380.66
2220.64	387.1
2223.815	390.19
2226.991	407.25
2230.166	407.54
2233.34	412.93
2236.515	420.1
2239.689	421.63
2242.863	424.16
2246.036	433.62
2249.209	431.32
2252.382	439.77
2255.555	449.29
2258.727	452.27
2261.9	455.78
2265.071	459.02
2268.243	468.73
2271.414	474.8
2274.585	481.74
2277.756	487
2280.926	492.17
2284.096	503.4
2287.266	513.78
2290.436	520.27
2293.605	530.02
2296.774	545.02
2299.942	560.71
2303.111	562.55
2306.279	573.68
2309.447	583.14
2312.614	598.08
2315.781	612.3
2318.948	644.12
2322.115	633.3
2325.281	666.83
2328.447	655.16
2331.613	678.81
2334.779	673.54
2337.944	700.97
2341.109	707.92
2344.274	726.82
2347.438	751.22
2350.602	754.83
2353.766	772.02
2356.929	785.82
2360.092	780.33
2363.255	833.75
2366.418	833.62
2369.58	848
2372.742	907.39
2375.904	930.26
2379.066	924.84
2382.227	907.68
2385.388	978.25
2388.548	982.1
2391.709	989.45
2394.869	1102.01
2398.029	1058.2
2401.188	1087.6
2404.347	1086.49
2407.506	1057.97
2410.665	1089.36
2413.823	1155.54
2416.981	1221.01
2420.139	1189.62
2423.296	1171.07
2426.453	1227.66
2429.61	1186.84
2432.767	1238.37
2435.923	1229.15
2439.079	1340.39
2442.235	1364.09
2445.391	1348.09
2448.546	1334.14
2451.701	1300.19
2454.855	1292.4
2458.009	1378.34
2461.163	1435.69
2464.317	1472.06
2467.471	1510.99
2470.624	1509.78
2473.777	1473.95
2476.929	1429.81
2480.082	1384.62
2483.234	1375.58
2486.385	1450.99
2489.537	1455.93
2492.688	1502.73
2495.839	1461.36
2498.989	1432.81
2502.14	1436.71
2505.29	1450.34
2508.439	1461.73
2511.589	1460.98
2514.738	1606.74
2517.887	1567.02
2521.035	1636.7
2524.183	1665.76
2527.331	1675.4
2530.479	1659.89
2533.627	1676.36
