Data from N_3_DIV_PA_2N_Splice17_14-11-22-345.txt Node
Date: Sat Mar 07 14:11:22 EST 2020
User: sa697716
Spectrometer: NQ5500242
Trigger mode: 0
Integration Time (sec): 1.450000E-1
Scans to average: 20
Nonlinearity correction enabled: false
Boxcar width: 5
Storing dark spectrum: false
XAxis mode: Wavelengths
Number of Pixels in Spectrum: 512
>>>>>Begin Spectral Data<<<<<
187.83	136.33
188.298	165.56
188.766	150.89
189.233	127.78
189.701	138.04
190.169	146.23
190.636	188.04
191.104	330.69
191.571	542.87
192.039	549.97
192.506	946.72
192.974	30.24
193.441	238.8
193.908	161.52
194.375	120.04
194.842	137
195.31	120.49
195.777	164.93
196.244	58.65
196.711	59.77
197.177	61.63
197.644	61.07
198.111	60.63
198.578	60.48
199.045	60.57
199.511	60.48
199.978	60.51
200.445	61
200.911	60.99
201.378	61.21
201.844	61.29
202.31	61.36
202.777	61.3
203.243	61.42
203.709	61.09
204.176	60.46
204.642	60.13
205.108	60.06
205.574	59.6
206.04	59.37
206.506	58.92
206.972	58.66
207.438	58.02
207.903	57.35
208.369	56.21
208.835	55.57
209.301	55.02
209.766	54.02
210.232	52.48
210.697	51.35
211.163	50.56
211.628	49.51
212.094	48.34
212.559	47.47
213.024	46.87
213.49	46.11
213.955	45.12
214.42	44.26
214.885	43.27
215.35	42.35
215.815	40.71
216.28	38.58
216.745	36.45
217.21	34.24
217.675	32.11
218.14	30.28
218.604	28.74
219.069	27.36
219.534	26.17
219.998	25.18
220.463	24.34
220.927	23.6
221.392	22.99
221.856	22.47
222.32	22.01
222.785	21.58
223.249	21.15
223.713	20.76
224.177	20.47
224.642	20.17
225.106	19.86
225.57	19.52
226.034	19.24
226.497	18.96
226.961	18.68
227.425	18.45
227.889	18.2
228.353	17.95
228.816	17.69
229.28	17.43
229.744	17.2
230.207	16.96
230.671	16.76
231.134	16.53
231.597	16.34
232.061	16.15
232.524	15.94
232.987	15.75
233.45	15.58
233.914	15.4
234.377	15.23
234.84	15.04
235.303	14.9
235.766	14.74
236.229	14.58
236.691	14.43
237.154	14.29
237.617	14.15
238.08	14.02
238.542	13.89
239.005	13.77
239.468	13.63
239.93	13.51
240.393	13.39
240.855	13.25
241.317	13.13
241.78	13
242.242	12.87
242.704	12.74
243.166	12.62
243.629	12.5
244.091	12.38
244.553	12.27
245.015	12.16
245.477	12.05
245.939	11.94
246.4	11.84
246.862	11.73
247.324	11.63
247.786	11.53
248.247	11.43
248.709	11.32
249.17	11.21
249.632	11.13
250.093	11.04
250.555	10.95
251.016	10.87
251.477	10.79
251.939	10.71
252.4	10.64
252.861	10.56
253.322	10.49
253.783	10.42
254.244	10.35
254.705	10.27
255.166	10.21
255.627	10.13
256.088	10.06
256.549	10
257.009	9.93
257.47	9.85
257.931	9.77
258.391	9.7
258.852	9.64
259.312	9.57
259.773	9.5
260.233	9.44
260.694	9.38
261.154	9.32
261.614	9.26
262.074	9.2
262.534	9.16
262.994	9.1
263.455	9.06
263.915	9.01
264.374	8.97
264.834	8.94
265.294	8.89
265.754	8.86
266.214	8.82
266.673	8.78
267.133	8.75
267.593	8.72
268.052	8.7
268.512	8.67
268.971	8.63
269.431	8.59
269.89	8.56
270.349	8.52
270.809	8.49
271.268	8.46
271.727	8.43
272.186	8.4
272.645	8.37
273.104	8.34
273.563	8.31
274.022	8.29
274.481	8.26
274.94	8.23
275.399	8.2
275.857	8.18
276.316	8.15
276.775	8.12
277.233	8.1
277.692	8.07
278.15	8.04
278.609	8.02
279.067	8
279.525	7.97
279.984	7.94
280.442	7.91
280.9	7.89
281.358	7.87
281.816	7.84
282.274	7.81
282.732	7.78
283.19	7.77
283.648	7.74
284.106	7.71
284.564	7.69
285.021	7.68
285.479	7.67
285.937	7.66
286.394	7.64
286.852	7.62
287.309	7.6
287.767	7.57
288.224	7.54
288.682	7.52
289.139	7.49
289.596	7.46
290.053	7.42
290.511	7.38
290.968	7.34
291.425	7.3
291.882	7.27
292.339	7.24
292.796	7.21
293.252	7.19
293.709	7.15
294.166	7.13
294.623	7.1
295.079	7.08
295.536	7.06
295.992	7.04
296.449	7.02
296.905	7
297.362	6.98
297.818	6.96
298.274	6.94
298.731	6.92
299.187	6.89
299.643	6.86
300.099	6.85
300.555	6.83
301.011	6.81
301.467	6.78
301.923	6.76
302.379	6.73
302.835	6.72
303.291	6.7
303.746	6.68
304.202	6.67
304.658	6.65
305.113	6.63
305.569	6.62
306.024	6.6
306.479	6.59
306.935	6.58
307.39	6.57
307.845	6.56
308.301	6.55
308.756	6.55
309.211	6.53
309.666	6.53
310.121	6.52
310.576	6.51
311.031	6.49
311.486	6.49
311.94	6.49
312.395	6.47
312.85	6.46
313.305	6.44
313.759	6.43
314.214	6.41
314.668	6.4
315.123	6.39
315.577	6.38
316.032	6.37
316.486	6.35
316.94	6.33
317.394	6.31
317.849	6.29
318.303	6.27
318.757	6.24
319.211	6.22
319.665	6.2
320.119	6.18
320.572	6.16
321.026	6.13
321.48	6.12
321.934	6.1
322.387	6.08
322.841	6.08
323.295	6.07
323.748	6.05
324.202	6.04
324.655	6.01
325.108	6
325.562	5.99
326.015	5.98
326.468	5.97
326.921	5.96
327.374	5.94
327.827	5.92
328.28	5.91
328.733	5.91
329.186	5.9
329.639	5.9
330.092	5.88
330.545	5.87
330.997	5.86
331.45	5.85
331.903	5.86
332.355	5.86
332.808	5.85
333.26	5.85
333.713	5.84
334.165	5.84
334.617	5.84
335.069	5.84
335.522	5.85
335.974	5.85
336.426	5.84
336.878	5.83
337.33	5.82
337.782	5.8
338.234	5.8
338.686	5.79
339.137	5.79
339.589	5.76
340.041	5.75
340.493	5.73
340.944	5.71
341.396	5.69
341.847	5.68
342.299	5.65
342.75	5.64
343.201	5.62
343.653	5.6
344.104	5.58
344.555	5.56
345.006	5.54
345.457	5.52
345.908	5.5
346.359	5.49
346.81	5.47
347.261	5.46
347.712	5.46
348.163	5.45
348.613	5.44
349.064	5.43
349.515	5.43
349.965	5.42
350.416	5.4
350.866	5.4
351.317	5.39
351.767	5.39
352.217	5.38
352.668	5.36
353.118	5.36
353.568	5.34
354.018	5.34
354.468	5.34
354.918	5.34
355.368	5.35
355.818	5.35
356.268	5.34
356.718	5.33
357.168	5.33
357.617	5.32
358.067	5.32
358.517	5.32
358.966	5.32
359.416	5.31
359.865	5.29
360.315	5.28
360.764	5.28
361.213	5.27
361.663	5.26
362.112	5.26
362.561	5.26
363.01	5.25
363.459	5.24
363.908	5.23
364.357	5.23
364.806	5.22
365.255	5.22
365.703	5.21
366.152	5.21
366.601	5.21
367.05	5.2
367.498	5.19
367.947	5.19
368.395	5.18
368.844	5.19
369.292	5.17
369.74	5.18
370.189	5.16
370.637	5.16
371.085	5.15
371.533	5.14
371.981	5.13
372.429	5.12
372.877	5.13
373.325	5.11
373.773	5.1
374.221	5.09
374.669	5.08
375.116	5.07
375.564	5.06
376.012	5.05
376.459	5.05
376.907	5.05
377.354	5.06
377.801	5.05
378.249	5.05
378.696	5.04
379.143	5.04
379.591	5.05
380.038	5.04
380.485	5.04
380.932	5.03
381.379	5.03
381.826	5.03
382.273	5.02
382.72	5
383.166	5
383.613	5
384.06	4.99
384.506	4.99
384.953	4.99
385.4	4.98
385.846	5
386.292	5
386.739	4.99
387.185	5
387.631	5.02
388.078	5.02
388.524	5.02
388.97	5.03
389.416	5.03
389.862	5.05
390.308	5.06
390.754	5.08
391.2	5.09
391.645	5.11
392.091	5.12
392.537	5.14
392.983	5.15
393.428	5.17
393.874	5.19
394.319	5.2
394.765	5.21
395.21	5.22
395.655	5.22
396.101	5.23
396.546	5.25
396.991	5.27
397.436	5.28
397.881	5.3
398.326	5.33
398.771	5.36
399.216	5.38
399.661	5.42
400.106	5.44
400.551	5.46
400.995	5.47
401.44	5.48
401.885	5.49
402.329	5.5
402.774	5.51
403.218	5.51
403.663	5.53
404.107	5.54
404.551	5.55
404.995	5.56
405.44	5.57
405.884	5.59
406.328	5.62
406.772	5.64
407.216	5.66
407.66	5.67
408.104	5.69
408.547	5.7
408.991	5.72
409.435	5.72
409.879	5.74
410.322	5.75
410.766	5.78
411.209	5.8
411.653	5.83
412.096	5.84
412.54	5.86
412.983	5.87
413.426	5.91
413.869	5.94
414.312	5.98
414.756	6.01
415.199	6.02
415.642	6.04
416.085	6.05
416.527	6.05
416.97	6.05
417.413	6.05
417.856	6.05
418.298	6.05
418.741	6.05
419.184	6.05
419.626	6.05
420.069	6.07
420.511	6.06
420.953	6.07
421.396	6.09
421.838	6.1
422.28	6.13
422.722	6.16
423.164	6.16
423.606	6.16
424.048	6.16
424.49	6.17
424.932	6.18
425.374	6.17
425.816	6.15
426.258	6.14
426.699	6.13
427.141	6.1
427.582	6.09
428.024	6.1
428.465	6.1
428.907	6.1
429.348	6.09
429.789	6.08
430.231	6.08
430.672	6.1
431.113	6.12
431.554	6.14
431.995	6.17
432.436	6.17
432.877	6.19
433.318	6.2
433.759	6.24
434.2	6.26
434.64	6.3
435.081	6.32
435.522	6.34
435.962	6.35
436.403	6.39
436.843	6.4
437.284	6.41
437.724	6.4
438.164	6.41
438.604	6.42
439.045	6.41
439.485	6.41
439.925	6.4
440.365	6.4
440.805	6.41
441.245	6.41
441.685	6.43
442.125	6.46
442.564	6.47
443.004	6.48
443.444	6.47
443.883	6.5
444.323	6.51
444.762	6.53
445.202	6.54
445.641	6.55
446.081	6.56
446.52	6.56
446.959	6.58
447.398	6.61
447.837	6.62
448.276	6.64
448.716	6.67
449.154	6.7
449.593	6.72
450.032	6.73
450.471	6.73
450.91	6.73
451.349	6.75
451.787	6.75
452.226	6.73
452.664	6.73
453.103	6.71
453.541	6.7
453.98	6.7
454.418	6.68
454.856	6.66
455.295	6.65
455.733	6.63
456.171	6.61
456.609	6.6
457.047	6.58
457.485	6.56
457.923	6.55
458.361	6.52
458.798	6.5
459.236	6.5
459.674	6.51
460.111	6.49
460.549	6.49
460.987	6.48
461.424	6.48
461.862	6.48
462.299	6.48
462.736	6.47
463.173	6.47
463.611	6.46
464.048	6.46
464.485	6.46
464.922	6.46
465.359	6.47
465.796	6.47
466.233	6.47
466.67	6.48
467.106	6.48
467.543	6.48
467.98	6.48
468.416	6.47
468.853	6.48
469.29	6.48
469.726	6.49
470.162	6.49
470.599	6.5
471.035	6.49
471.471	6.49
471.907	6.49
472.344	6.49
472.78	6.49
473.216	6.48
473.652	6.48
474.088	6.46
474.523	6.44
474.959	6.44
475.395	6.42
475.831	6.42
476.266	6.41
476.702	6.39
477.138	6.39
477.573	6.38
478.008	6.39
478.444	6.37
478.879	6.38
479.314	6.38
479.75	6.36
480.185	6.35
480.62	6.34
481.055	6.34
481.49	6.33
481.925	6.32
482.36	6.31
482.795	6.3
483.229	6.3
483.664	6.3
484.099	6.29
484.534	6.28
484.968	6.29
485.403	6.3
485.837	6.31
486.271	6.33
486.706	6.34
487.14	6.36
487.574	6.37
488.009	6.4
488.443	6.41
488.877	6.45
489.311	6.48
489.745	6.5
490.179	6.53
490.613	6.55
491.046	6.58
491.48	6.62
491.914	6.66
492.348	6.7
492.781	6.75
493.215	6.79
493.648	6.84
494.082	6.89
494.515	6.94
494.948	7
495.382	7.07
495.815	7.14
496.248	7.2
496.681	7.27
497.114	7.34
497.547	7.42
497.98	7.51
498.413	7.59
498.846	7.68
499.279	7.77
499.711	7.86
500.144	7.97
500.577	8.09
501.009	8.19
501.442	8.31
501.874	8.44
502.306	8.56
502.739	8.7
503.171	8.84
503.603	9
504.036	9.16
504.468	9.32
504.9	9.47
505.332	9.64
505.764	9.82
506.196	10
506.627	10.18
507.059	10.39
507.491	10.58
507.923	10.78
508.354	10.99
508.786	11.21
509.217	11.43
509.649	11.67
510.08	11.9
510.512	12.15
510.943	12.39
511.374	12.64
511.805	12.89
512.237	13.14
512.668	13.4
513.099	13.67
513.53	13.94
513.961	14.21
514.391	14.48
514.822	14.77
515.253	15.04
515.684	15.33
516.114	15.61
516.545	15.89
516.975	16.19
517.406	16.48
517.836	16.75
518.267	17.05
518.697	17.34
519.127	17.61
519.558	17.87
519.988	18.16
520.418	18.41
520.848	18.69
521.278	18.95
521.708	19.23
522.138	19.48
522.567	19.74
522.997	19.97
523.427	20.22
523.857	20.47
524.286	20.7
524.716	20.92
525.145	21.16
525.575	21.37
526.004	21.57
526.433	21.74
526.863	21.94
527.292	22.13
527.721	22.29
528.15	22.46
528.579	22.61
529.008	22.75
529.437	22.89
529.866	23.02
530.295	23.16
530.724	23.29
531.152	23.41
531.581	23.51
532.01	23.62
532.438	23.72
532.867	23.81
533.295	23.9
533.723	23.99
534.152	24.06
534.58	24.14
535.008	24.2
535.436	24.27
535.865	24.32
536.293	24.35
536.721	24.4
537.149	24.45
537.576	24.49
538.004	24.53
538.432	24.57
538.86	24.6
539.287	24.61
539.715	24.65
540.143	24.67
540.57	24.71
540.998	24.75
541.425	24.77
541.852	24.8
542.28	24.84
542.707	24.85
543.134	24.87
543.561	24.9
543.988	24.91
544.415	24.92
544.842	24.94
545.269	24.96
545.696	24.98
546.123	24.99
546.549	25
546.976	25.02
547.403	25.06
547.829	25.08
548.256	25.1
548.682	25.13
549.108	25.15
549.535	25.17
549.961	25.19
550.387	25.21
550.813	25.24
551.24	25.25
551.666	25.26
552.092	25.27
552.518	25.26
552.943	25.25
553.369	25.24
553.795	25.23
554.221	25.2
554.646	25.18
555.072	25.14
555.498	25.08
555.923	25.04
556.349	24.97
556.774	24.91
557.199	24.84
557.625	24.79
558.05	24.73
558.475	24.65
558.9	24.59
559.325	24.51
559.75	24.43
560.175	24.35
560.6	24.25
561.025	24.18
561.449	24.09
561.874	23.99
562.299	23.87
562.723	23.76
563.148	23.64
563.572	23.51
563.997	23.39
564.421	23.26
564.846	23.14
565.27	23
565.694	22.84
566.118	22.68
566.542	22.54
566.966	22.38
567.39	22.21
567.814	22.04
568.238	21.89
568.662	21.71
569.086	21.55
569.509	21.38
569.933	21.22
570.357	21.06
570.78	20.91
571.204	20.74
571.627	20.6
572.05	20.45
572.474	20.33
572.897	20.2
573.32	20.06
573.743	19.94
574.166	19.82
574.589	19.7
575.012	19.59
575.435	19.49
575.858	19.37
576.281	19.26
576.704	19.17
577.126	19.07
577.549	18.97
577.972	18.88
578.394	18.78
578.817	18.68
579.239	18.6
579.661	18.51
580.084	18.43
580.506	18.37
580.928	18.31
581.35	18.24
581.772	18.15
582.194	18.08
582.616	18.01
583.038	17.94
583.46	17.87
583.882	17.81
584.303	17.73
584.725	17.66
585.147	17.59
585.568	17.53
585.99	17.45
586.411	17.39
586.833	17.33
587.254	17.26
587.675	17.19
588.096	17.13
588.518	17.08
588.939	17.03
589.36	16.98
589.781	16.93
590.202	16.88
590.623	16.85
591.043	16.8
591.464	16.76
591.885	16.73
592.305	16.72
592.726	16.69
593.147	16.65
593.567	16.61
593.987	16.57
594.408	16.54
594.828	16.5
595.248	16.47
595.669	16.43
596.089	16.4
596.509	16.37
596.929	16.33
597.349	16.29
597.769	16.26
598.189	16.22
598.608	16.19
599.028	16.16
599.448	16.11
599.867	16.07
600.287	16.04
600.706	16.01
601.126	15.96
601.545	15.91
601.965	15.87
602.384	15.82
602.803	15.77
603.222	15.71
603.641	15.65
604.061	15.6
604.48	15.53
604.898	15.44
605.317	15.36
605.736	15.3
606.155	15.23
606.574	15.15
606.992	15.07
607.411	15
607.829	14.9
608.248	14.81
608.666	14.73
609.085	14.65
609.503	14.59
609.921	14.53
610.339	14.45
610.758	14.37
611.176	14.28
611.594	14.2
612.012	14.13
612.43	14.07
612.847	14
613.265	13.93
613.683	13.86
614.101	13.78
614.518	13.69
614.936	13.62
615.353	13.55
615.771	13.5
616.188	13.44
616.606	13.37
617.023	13.32
617.44	13.28
617.857	13.22
618.274	13.17
618.691	13.13
619.108	13.08
619.525	13.05
619.942	13
620.359	12.96
620.776	12.92
621.192	12.9
621.609	12.87
622.026	12.83
622.442	12.79
622.859	12.76
623.275	12.74
623.691	12.72
624.108	12.68
624.524	12.66
624.94	12.64
625.356	12.62
625.772	12.6
626.188	12.59
626.604	12.58
627.02	12.57
627.436	12.56
627.852	12.54
628.268	12.51
628.683	12.5
629.099	12.49
629.514	12.48
629.93	12.46
630.345	12.44
630.761	12.39
631.176	12.36
631.591	12.32
632.007	12.27
632.422	12.22
632.837	12.17
633.252	12.12
633.667	12.05
634.082	11.97
634.497	11.9
634.911	11.82
635.326	11.74
635.741	11.66
636.155	11.57
636.57	11.49
636.984	11.4
637.399	11.29
637.813	11.19
638.228	11.07
638.642	10.96
639.056	10.84
639.47	10.72
639.884	10.61
640.298	10.49
640.712	10.37
641.126	10.25
641.54	10.13
641.954	10.02
642.368	9.9
642.781	9.8
643.195	9.69
643.609	9.58
644.022	9.48
644.436	9.38
644.849	9.28
645.262	9.18
645.676	9.08
646.089	9
646.502	8.93
646.915	8.86
647.328	8.79
647.741	8.73
648.154	8.68
648.567	8.63
648.98	8.58
649.393	8.55
649.805	8.53
650.218	8.49
650.631	8.45
651.043	8.41
651.456	8.38
651.868	8.35
652.28	8.31
652.693	8.28
653.105	8.24
653.517	8.19
653.929	8.14
654.341	8.09
654.753	8.05
655.165	7.99
655.577	7.94
655.989	7.88
656.401	7.81
656.813	7.75
657.224	7.67
657.636	7.59
658.047	7.53
658.459	7.45
658.87	7.37
659.282	7.28
659.693	7.21
660.104	7.12
660.515	7.05
660.926	6.97
661.338	6.88
661.749	6.81
662.159	6.75
662.57	6.69
662.981	6.62
663.392	6.57
663.803	6.53
664.213	6.47
664.624	6.42
665.035	6.38
665.445	6.34
665.855	6.3
666.266	6.27
666.676	6.24
667.086	6.21
667.497	6.19
667.907	6.16
668.317	6.13
668.727	6.11
669.137	6.1
669.547	6.09
669.956	6.07
670.366	6.07
670.776	6.06
671.186	6.06
671.595	6.06
672.005	6.07
672.414	6.08
672.824	6.09
673.233	6.12
673.642	6.15
674.052	6.16
674.461	6.18
674.87	6.2
675.279	6.24
675.688	6.26
676.097	6.29
676.506	6.33
676.915	6.35
677.323	6.39
677.732	6.42
678.141	6.46
678.549	6.5
678.958	6.55
679.366	6.6
679.775	6.65
680.183	6.73
680.592	6.81
681	6.89
681.408	7
681.816	7.1
682.224	7.22
682.632	7.35
683.04	7.49
683.448	7.63
683.856	7.79
684.264	7.98
684.671	8.17
685.079	8.36
685.487	8.6
685.894	8.86
686.302	9.13
686.709	9.42
687.116	9.73
687.524	10.06
687.931	10.43
688.338	10.83
688.745	11.25
689.152	11.68
689.559	12.14
689.966	12.62
690.373	13.1
690.78	13.62
691.187	14.14
691.593	14.69
692	15.25
692.407	15.8
692.813	16.36
693.22	16.92
693.626	17.49
694.032	18.07
694.439	18.65
694.845	19.24
695.251	19.8
695.657	20.36
696.063	20.93
696.469	21.51
696.875	22.08
697.281	22.64
697.687	23.2
698.093	23.75
698.498	24.28
698.904	24.83
699.31	25.34
699.715	25.86
700.12	26.38
700.526	26.87
700.931	27.34
701.337	27.82
701.742	28.29
702.147	28.74
702.552	29.21
702.957	29.63
703.362	30.04
703.767	30.45
704.172	30.86
704.577	31.26
704.981	31.67
705.386	32.05
705.791	32.43
706.195	32.81
706.6	33.19
707.004	33.53
707.408	33.9
707.813	34.26
708.217	34.6
708.621	34.95
709.025	35.28
709.43	35.6
709.834	35.94
710.237	36.25
710.641	36.56
711.045	36.86
711.449	37.19
711.853	37.49
712.256	37.77
712.66	38.05
713.064	38.31
713.467	38.58
713.87	38.83
714.274	39.07
714.677	39.32
715.08	39.56
715.484	39.81
715.887	40.02
716.29	40.24
716.693	40.47
717.096	40.71
717.499	40.95
717.901	41.17
718.304	41.39
718.707	41.59
719.109	41.81
719.512	42.02
719.915	42.19
720.317	42.38
720.719	42.55
721.122	42.73
721.524	42.89
721.926	43.07
722.328	43.24
722.731	43.43
723.133	43.61
723.535	43.76
723.937	43.92
724.338	44.1
724.74	44.24
725.142	44.43
725.544	44.55
725.945	44.69
726.347	44.83
726.748	44.96
727.15	45.05
727.551	45.16
727.952	45.26
728.354	45.36
728.755	45.42
729.156	45.5
729.557	45.55
729.958	45.66
730.359	45.73
730.76	45.82
731.161	45.9
731.562	45.99
731.962	46.05
732.363	46.16
732.763	46.2
733.164	46.3
733.564	46.39
733.965	46.47
734.365	46.53
734.766	46.59
735.166	46.65
735.566	46.71
735.966	46.77
736.366	46.82
736.766	46.83
737.166	46.88
737.566	46.91
737.966	46.95
738.365	47
738.765	47.04
739.165	47.08
739.564	47.12
739.964	47.13
740.363	47.13
740.763	47.15
741.162	47.2
741.561	47.2
741.96	47.23
742.36	47.26
742.759	47.27
743.158	47.26
743.557	47.29
743.955	47.29
744.354	47.32
744.753	47.35
745.152	47.4
745.55	47.41
745.949	47.45
746.348	47.48
746.746	47.48
747.144	47.52
747.543	47.56
747.941	47.58
748.339	47.58
748.737	47.58
749.136	47.6
749.534	47.59
749.932	47.6
750.33	47.61
750.727	47.61
751.125	47.62
751.523	47.6
751.921	47.6
752.318	47.59
752.716	47.62
753.113	47.63
753.511	47.63
753.908	47.65
754.305	47.62
754.703	47.6
755.1	47.59
755.497	47.6
755.894	47.59
756.291	47.57
756.688	47.57
757.085	47.54
757.482	47.54
757.878	47.52
758.275	47.5
758.672	47.52
759.068	47.55
759.465	47.55
759.861	47.54
760.258	47.55
760.654	47.57
761.05	47.57
761.447	47.6
761.843	47.59
762.239	47.59
762.635	47.6
763.031	47.57
763.427	47.53
763.822	47.54
764.218	47.52
764.614	47.51
765.01	47.49
765.405	47.5
765.801	47.46
766.196	47.47
766.592	47.47
766.987	47.48
767.382	47.51
767.778	47.53
768.173	47.53
768.568	47.53
768.963	47.54
769.358	47.56
769.753	47.53
770.148	47.55
770.542	47.55
770.937	47.56
771.332	47.54
771.726	47.54
772.121	47.51
772.515	47.5
772.91	47.47
773.304	47.48
773.699	47.49
774.093	47.49
774.487	47.49
774.881	47.5
775.275	47.48
775.669	47.47
776.063	47.46
776.457	47.47
776.851	47.46
777.245	47.45
777.638	47.43
778.032	47.42
778.425	47.41
778.819	47.38
779.212	47.39
779.606	47.39
779.999	47.39
780.392	47.4
780.786	47.41
781.179	47.4
781.572	47.46
781.965	47.48
782.358	47.49
782.751	47.5
783.143	47.52
783.536	47.5
783.929	47.51
784.322	47.54
784.714	47.54
785.107	47.54
785.499	47.56
785.891	47.53
786.284	47.55
786.676	47.53
787.068	47.53
787.46	47.55
787.852	47.56
788.245	47.56
788.636	47.54
789.028	47.57
789.42	47.59
789.812	47.61
790.204	47.63
790.595	47.62
790.987	47.63
791.378	47.65
791.77	47.66
792.161	47.65
792.553	47.66
792.944	47.65
793.335	47.65
793.726	47.66
794.117	47.64
794.508	47.64
794.899	47.64
795.29	47.65
795.681	47.63
796.072	47.61
796.463	47.62
796.853	47.63
797.244	47.64
797.634	47.64
798.025	47.63
798.415	47.65
798.806	47.66
799.196	47.69
799.586	47.71
799.976	47.75
800.366	47.78
800.756	47.82
801.146	47.82
801.536	47.88
801.926	47.87
802.316	47.9
802.706	47.92
803.095	47.93
803.485	47.92
803.874	47.93
804.264	47.91
804.653	47.94
805.043	47.93
805.432	47.93
805.821	47.91
806.21	47.95
806.599	47.97
806.988	47.95
807.377	47.95
807.766	47.96
808.155	47.94
808.544	47.97
808.933	47.96
809.321	47.94
809.71	47.95
810.098	47.96
810.487	47.93
810.875	47.9
811.264	47.92
811.652	47.94
812.04	47.95
812.428	47.98
812.816	47.98
813.204	47.95
813.592	47.98
813.98	48
814.368	48.01
814.756	48.03
815.144	48.05
815.531	48.05
815.919	48.06
816.306	48.06
816.694	48.07
817.081	48.05
817.469	48.1
817.856	48.09
818.243	48.06
818.63	48.04
819.017	48.02
819.404	48
819.791	48
820.178	47.99
820.565	47.95
820.952	47.93
821.339	47.94
821.725	47.92
822.112	47.94
822.498	47.96
822.885	47.98
823.271	47.99
823.657	47.99
824.044	48
824.43	48.01
824.816	48.03
825.202	48.01
825.588	48.01
825.974	48
826.36	47.99
826.746	47.99
827.132	47.97
827.517	47.97
827.903	47.96
828.289	47.96
828.674	47.95
829.06	47.93
829.445	47.92
829.83	47.89
830.216	47.89
830.601	47.88
830.986	47.85
831.371	47.85
831.756	47.85
832.141	47.84
832.526	47.82
832.911	47.8
833.295	47.8
833.68	47.8
834.065	47.82
834.449	47.81
834.834	47.79
835.218	47.78
835.603	47.75
835.987	47.73
836.371	47.71
836.755	47.69
837.139	47.69
837.524	47.69
837.908	47.71
838.291	47.7
838.675	47.68
839.059	47.7
839.443	47.7
839.827	47.69
840.21	47.67
840.594	47.66
840.977	47.64
841.361	47.63
841.744	47.58
842.127	47.55
842.511	47.53
842.894	47.51
843.277	47.47
843.66	47.45
844.043	47.46
844.426	47.47
844.809	47.46
845.191	47.46
845.574	47.46
845.957	47.48
846.339	47.46
846.722	47.46
847.104	47.49
847.487	47.51
847.869	47.52
848.252	47.51
848.634	47.48
849.016	47.49
849.398	47.5
849.78	47.5
850.162	47.5
850.544	47.51
850.926	47.5
851.307	47.48
851.689	47.48
852.071	47.48
852.452	47.47
852.834	47.49
853.215	47.49
853.597	47.49
853.978	47.47
854.359	47.48
854.741	47.48
855.122	47.47
855.503	47.44
855.884	47.42
856.265	47.4
856.646	47.42
857.026	47.43
857.407	47.43
857.788	47.42
858.169	47.44
858.549	47.42
858.93	47.42
859.31	47.42
859.69	47.44
860.071	47.45
860.451	47.45
860.831	47.44
861.211	47.4
861.591	47.39
861.971	47.38
862.351	47.38
862.731	47.39
863.111	47.38
863.491	47.37
863.87	47.39
864.25	47.38
864.629	47.4
865.009	47.4
865.388	47.43
865.768	47.45
866.147	47.45
866.526	47.43
866.905	47.43
867.284	47.44
867.663	47.45
868.042	47.43
868.421	47.44
868.8	47.44
869.179	47.46
869.558	47.45
869.936	47.43
870.315	47.44
870.693	47.46
871.072	47.47
871.45	47.47
871.828	47.47
872.207	47.48
872.585	47.46
872.963	47.47
873.341	47.45
873.719	47.44
874.097	47.43
874.475	47.46
874.853	47.45
875.23	47.48
875.608	47.49
875.986	47.5
876.363	47.52
876.741	47.54
877.118	47.54
877.495	47.57
877.873	47.59
878.25	47.63
878.627	47.65
879.004	47.66
879.381	47.65
879.758	47.66
880.135	47.64
880.512	47.62
880.889	47.62
881.265	47.6
881.642	47.58
882.019	47.58
882.395	47.56
882.772	47.54
883.148	47.51
883.524	47.46
883.901	47.44
884.277	47.43
884.653	47.42
885.029	47.4
885.405	47.4
885.781	47.4
886.157	47.37
886.532	47.37
886.908	47.33
887.284	47.33
887.659	47.33
888.035	47.3
888.411	47.3
888.786	47.31
889.161	47.3
889.537	47.29
889.912	47.29
890.287	47.28
890.662	47.25
891.037	47.26
891.412	47.24
891.787	47.23
892.162	47.22
892.536	47.19
892.911	47.14
893.286	47.11
893.66	47.1
894.035	47.08
894.409	47.06
894.784	47.06
895.158	47.02
895.532	47.03
895.906	47.01
896.281	46.98
896.655	46.98
897.029	47.01
897.402	47.01
897.776	47.01
898.15	47.01
898.524	47.01
898.898	47.01
899.271	47.01
899.645	46.99
900.018	47.02
900.392	47.05
900.765	47.07
901.138	47.08
901.511	47.09
901.884	47.09
902.258	47.07
902.631	47.07
903.003	47.07
903.376	47.09
903.749	47.12
904.122	47.13
904.495	47.14
904.867	47.13
905.24	47.15
905.612	47.18
905.985	47.19
906.357	47.21
906.729	47.24
907.102	47.26
907.474	47.28
907.846	47.27
908.218	47.26
908.59	47.28
908.962	47.3
909.334	47.3
909.705	47.26
910.077	47.3
910.449	47.29
910.82	47.27
911.192	47.27
911.563	47.26
911.935	47.28
912.306	47.29
912.677	47.29
913.048	47.3
913.419	47.28
913.79	47.31
914.161	47.28
914.532	47.31
914.903	47.33
915.274	47.33
915.645	47.31
916.015	47.3
916.386	47.32
916.756	47.32
917.127	47.35
917.497	47.37
917.868	47.36
918.238	47.36
918.608	47.39
918.978	47.41
919.348	47.45
919.718	47.47
920.088	47.47
920.458	47.46
920.828	47.45
921.198	47.4
921.567	47.41
921.937	47.42
922.306	47.4
922.676	47.37
923.045	47.34
923.415	47.29
923.784	47.27
924.153	47.27
924.522	47.28
924.891	47.27
925.26	47.26
925.629	47.26
925.998	47.26
926.367	47.28
926.736	47.27
927.104	47.27
927.473	47.25
927.842	47.25
928.21	47.3
928.578	47.27
928.947	47.28
929.315	47.27
929.683	47.23
930.051	47.19
930.42	47.15
930.788	47.12
931.156	47.09
931.523	47.1
931.891	47.08
932.259	47.01
932.627	47.04
932.994	47.01
933.362	46.96
933.729	46.96
934.097	46.95
934.464	46.98
934.831	46.99
935.199	46.95
935.566	46.98
935.933	46.93
936.3	46.87
936.667	46.78
937.034	46.78
937.401	46.86
937.767	46.86
938.134	46.81
938.501	46.81
938.867	46.8
939.234	46.84
939.6	46.82
939.967	46.89
940.333	46.98
940.699	47.07
941.065	47.11
941.431	47.12
941.798	47.17
942.163	47.26
942.529	47.27
942.895	47.33
943.261	47.34
943.627	47.38
943.992	47.43
944.358	47.43
944.723	47.4
945.089	47.37
945.454	47.36
945.82	47.37
946.185	47.42
946.55	47.41
946.915	47.4
947.28	47.43
947.645	47.49
948.01	47.49
948.375	47.44
948.74	47.45
949.104	47.5
949.469	47.49
949.834	47.45
950.198	47.38
950.562	47.36
950.927	47.32
951.291	47.23
951.655	47.13
952.02	47.1
952.384	47.07
952.748	47.04
953.112	46.98
953.476	46.92
953.839	46.9
954.203	46.89
954.567	46.82
954.931	46.79
955.294	46.78
955.658	46.87
956.021	46.86
956.385	46.87
956.748	46.81
957.111	46.74
957.474	46.79
957.837	46.79
958.2	46.78
958.563	46.8
958.926	46.8
959.289	46.81
959.652	46.72
960.015	46.68
960.377	46.7
960.74	46.75
961.102	46.77
961.465	46.76
961.827	46.77
962.189	46.78
962.552	46.76
962.914	46.76
963.276	46.8
963.638	46.79
964	46.81
964.362	46.79
964.724	46.74
965.085	46.76
965.447	46.73
965.809	46.71
966.17	46.7
966.532	46.77
966.893	46.79
967.255	46.72
967.616	46.72
967.977	46.68
968.338	46.68
968.699	46.73
969.061	46.71
969.421	46.72
969.782	46.73
970.143	46.7
970.504	46.66
970.865	46.67
971.225	46.65
971.586	46.71
971.946	46.67
972.307	46.64
972.667	46.63
973.027	46.69
973.388	46.69
973.748	46.68
974.108	46.7
974.468	46.7
974.828	46.69
975.188	46.73
975.548	46.69
975.907	46.77
976.267	46.77
976.627	46.77
976.986	46.69
977.346	46.66
977.705	46.67
978.064	46.7
978.424	46.71
978.783	46.72
979.142	46.71
979.501	46.7
979.86	46.7
980.219	46.76
980.578	46.8
980.937	46.8
981.296	46.81
981.654	46.84
982.013	46.81
982.371	46.8
982.73	46.8
983.088	46.82
983.447	46.85
983.805	46.85
984.163	46.79
984.521	46.72
984.879	46.78
985.237	46.82
985.595	46.79
985.953	46.77
986.311	46.75
986.669	46.71
987.026	46.72
987.384	46.71
987.741	46.7
988.099	46.78
988.456	46.84
988.814	46.83
989.171	46.82
989.528	46.89
989.885	46.93
990.242	46.97
990.599	47.03
990.956	47.06
991.313	47.09
991.67	47.14
992.027	47.17
992.383	47.21
992.74	47.24
993.096	47.2
993.453	47.18
993.809	47.17
994.165	47.24
994.522	47.21
994.878	47.24
995.234	47.33
995.59	47.38
995.946	47.38
996.302	47.38
996.658	47.41
997.013	47.47
997.369	47.51
997.725	47.58
998.08	47.6
998.436	47.75
998.791	47.71
999.147	47.61
999.502	47.64
999.857	47.73
1000.212	47.74
1000.567	47.82
1000.922	47.78
1001.277	47.76
1001.632	47.75
1001.987	47.74
1002.342	47.66
1002.696	47.68
1003.051	47.87
1003.406	47.97
1003.76	47.97
1004.114	48.05
1004.469	48.07
1004.823	48.47
1005.177	48.5
1005.531	48.54
1005.885	48.52
1006.239	48.57
1006.593	48.72
1006.947	48.72
1007.301	48.6
1007.655	48.52
1008.008	48.44
1008.362	48.55
1008.715	48.34
1009.069	48.45
1009.422	48.51
1009.776	48.6
1010.129	48.64
1010.482	48.65
1010.835	48.77
1011.188	48.79
1011.541	48.81
1011.894	49.01
1012.247	48.88
1012.6	49.07
1012.952	49.08
1013.305	49.2
1013.657	49.33
1014.01	49.39
1014.362	49.45
1014.715	49.55
1015.067	49.8
1015.419	49.98
1015.771	49.82
1016.123	49.92
1016.475	49.82
1016.827	49.92
1017.179	50.03
1017.531	50.16
1017.883	50.29
1018.234	50.4
1018.586	50.22
1018.938	50.14
1019.289	50.12
1019.64	50.25
1019.992	50.27
1020.343	50.26
1020.694	50.18
1021.045	50.1
1021.396	50.03
1021.747	49.99
1022.098	49.97
1022.449	50
1022.8	50.11
1023.151	50.15
1023.501	50.39
1023.852	50.62
1024.202	50.54
1024.553	50.79
1024.903	50.97
1025.253	51.11
1025.604	51.2
1025.954	51.03
1026.304	51.13
1026.654	51.22
1027.004	51.29
1027.354	51.32
1027.703	51.22
1028.053	51.35
1028.403	51.32
1028.753	50.97
1029.102	51.11
1029.452	51.32
1029.801	51.74
1030.15	51.79
1030.499	51.68
897.758	1025.23
901.051	1033.7
904.343	1031.44
907.636	1047.09
910.928	1022.63
914.22	1018.1
917.511	1000.52
920.803	965.19
924.094	958.76
927.384	936.94
930.675	903.18
933.965	898.57
937.255	845.65
940.544	812.58
943.834	776.87
947.123	768.18
950.411	726.79
953.7	715
956.988	674.05
960.276	648.91
963.563	638.77
966.851	613.92
970.138	610.29
973.424	591.2
976.711	595.21
979.997	566.1
983.283	563.61
986.568	552.36
989.853	536.81
993.138	526.78
996.423	507.48
999.708	494.41
1002.992	489.26
1006.275	468.53
1009.559	465.29
1012.842	447.23
1016.125	435.96
1019.408	427.1
1022.69	423.63
1025.972	413.88
1029.254	404.5
1032.536	397.63
1035.817	391.6
1039.098	386.42
1042.379	377.45
1045.659	373.32
1048.939	365.54
1052.219	359.42
1055.498	355.21
1058.778	345.76
1062.057	339.49
1065.335	336.26
1068.614	331.99
1071.892	327.17
1075.17	318.41
1078.447	313.21
1081.724	310.76
1085.001	308.24
1088.278	302.46
1091.554	296.42
1094.83	297.75
1098.106	294.9
1101.382	291.79
1104.657	289.91
1107.932	285.49
1111.206	286.48
1114.481	281.08
1117.755	278.58
1121.029	275.97
1124.302	274.71
1127.575	270.89
1130.848	266.83
1134.121	264.85
1137.393	263.78
1140.665	258.8
1143.937	256.52
1147.208	256.04
1150.48	254.37
1153.75	250.46
1157.021	248.34
1160.291	248.85
1163.561	245.2
1166.831	245.23
1170.101	243.21
1173.37	243.3
1176.639	244.11
1179.907	242.48
1183.176	239.18
1186.444	239.02
1189.711	239.55
1192.979	238.09
1196.246	236.36
1199.513	237.81
1202.78	236.31
1206.046	236.12
1209.312	233.24
1212.578	233.28
1215.843	234.87
1219.108	233.66
1222.373	238.11
1225.638	239.33
1228.902	243.02
1232.166	242.79
1235.43	243.93
1238.693	247.63
1241.956	249.33
1245.219	253.18
1248.482	253.5
1251.744	253.35
1255.006	255.25
1258.268	248.82
1261.529	247.04
1264.79	245.5
1268.051	244.64
1271.312	241.69
1274.572	238.59
1277.832	236.31
1281.092	232.36
1284.351	231.07
1287.61	231.42
1290.869	226.08
1294.128	225.29
1297.386	225.75
1300.644	222.86
1303.902	224.06
1307.159	223.64
1310.416	223.3
1313.673	222.86
1316.93	225.62
1320.186	224.98
1323.442	224.69
1326.697	229.05
1329.953	230.25
1333.208	230.38
1336.463	233.74
1339.717	233.14
1342.972	236.81
1346.226	238.31
1349.479	238.91
1352.733	239.46
1355.986	241.4
1359.238	241.68
1362.491	242.32
1365.743	243.38
1368.995	244.43
1372.247	242.01
1375.498	242.47
1378.749	241.59
1382	240.13
1385.251	241.51
1388.501	239.17
1391.751	238.77
1395	238.67
1398.25	236.94
1401.499	235.15
1404.748	233.57
1407.996	233.74
1411.244	232.19
1414.492	231.3
1417.74	227.8
1420.987	224.01
1424.234	224.61
1427.481	222.03
1430.728	221.44
1433.974	219.41
1437.22	218.27
1440.465	217.52
1443.711	214.43
1446.956	213.8
1450.201	211.53
1453.445	210.52
1456.689	210.07
1459.933	206.35
1463.177	204.93
1466.42	201.48
1469.663	199.36
1472.906	198.17
1476.148	193.61
1479.391	192.16
1482.633	190.39
1485.874	187.73
1489.115	186.79
1492.356	184.77
1495.597	184.86
1498.838	181.85
1502.078	181.35
1505.318	181.11
1508.557	180.6
1511.797	180.55
1515.036	179.1
1518.274	178.47
1521.513	178.03
1524.751	177.14
1527.989	177.14
1531.227	175.98
1534.464	176.93
1537.701	176.01
1540.938	175.54
1544.174	173.53
1547.41	173.89
1550.646	173.24
1553.882	173.02
1557.117	171.1
1560.352	170.65
1563.587	170.23
1566.821	169.46
1570.055	168.38
1573.289	166.94
1576.523	166.66
1579.756	165.81
1582.989	164.76
1586.222	164.71
1589.454	164.54
1592.686	165.35
1595.918	164.55
1599.15	163.44
1602.381	164.12
1605.612	163.55
1608.843	163.84
1612.073	163.73
1615.303	164.89
1618.533	164.81
1621.762	165.33
1624.992	164.86
1628.221	164.5
1631.449	164.48
1634.678	164.67
1637.906	165.2
1641.134	165.01
1644.361	164.97
1647.588	165.32
1650.815	164.67
1654.042	163.94
1657.269	164.22
1660.495	164.35
1663.72	164.29
1666.946	165.05
1670.171	165.25
1673.396	164.42
1676.621	164.67
1679.845	165.14
1683.069	165.5
1686.293	166.11
1689.517	167.42
1692.74	167.03
1695.963	167.79
1699.185	169.03
1702.408	168.76
1705.63	169.19
1708.852	169.62
1712.073	170.24
1715.294	170.23
1718.515	171.22
1721.736	170.97
1724.956	171.34
1728.176	171.31
1731.396	172.43
1734.616	171.39
1737.835	172.55
1741.054	171.45
1744.272	172.59
1747.491	173.78
1750.709	174.14
1753.927	173.51
1757.144	172.95
1760.361	173.24
1763.578	173.8
1766.795	172.82
1770.011	175.29
1773.227	174.62
1776.443	177.04
1779.658	177.08
1782.874	176.55
1786.089	176.7
1789.303	177.52
1792.518	180.24
1795.732	179.6
1798.945	180.79
1802.159	181.45
1805.372	180.77
1808.585	183.79
1811.797	183.79
1815.01	183.99
1818.222	185.26
1821.434	188.16
1824.645	188.27
1827.856	190.34
1831.067	192.21
1834.278	192.25
1837.488	193.39
1840.698	194.91
1843.908	193.11
1847.117	193.67
1850.326	195.24
1853.535	194.64
1856.744	195.46
1859.952	195.08
1863.16	193.73
1866.368	191.98
1869.575	192.78
1872.782	189.86
1875.989	188.84
1879.196	187.5
1882.402	186.06
1885.608	185.6
1888.814	184.86
1892.019	183.51
1895.224	182.62
1898.429	181.74
1901.634	181.69
1904.838	181.59
1908.042	182.69
1911.246	182.64
1914.449	183.74
1917.652	183.4
1920.855	183.22
1924.058	182.81
1927.26	181.86
1930.462	182.59
1933.664	184.45
1936.865	183.05
1940.066	182.62
1943.267	182.06
1946.467	182.08
1949.668	182.38
1952.868	184.84
1956.067	185.08
1959.267	185.88
1962.466	186.77
1965.665	185.41
1968.863	186.43
1972.061	189.83
1975.259	191.62
1978.457	192.79
1981.654	194.34
1984.852	195.55
1988.048	195.05
1991.245	197.72
1994.441	199.35
1997.637	201.11
2000.833	206.35
2004.028	208.37
2007.223	209.21
2010.418	211.72
2013.613	215.27
2016.807	217.77
2020.001	220.49
2023.194	224.28
2026.388	228.08
2029.581	234.46
2032.774	236.4
2035.966	239.98
2039.158	240.44
2042.35	245.4
2045.542	246.53
2048.733	250.61
2051.924	253.94
2055.115	257.63
2058.306	258.09
2061.496	260.27
2064.686	259.66
2067.875	264.08
2071.065	266.04
2074.254	264.32
2077.442	268.05
2080.631	270.01
2083.819	272.54
2087.007	273.11
2090.195	274.97
2093.382	277.7
2096.569	276.51
2099.756	281.3
2102.942	282.22
2106.128	283.12
2109.314	291.64
2112.5	290.44
2115.685	294.57
2118.87	295.02
2122.055	300.51
2125.239	302.77
2128.424	305.01
2131.608	308.35
2134.791	311.69
2137.974	313.72
2141.157	314.77
2144.34	313.51
2147.523	319.49
2150.705	318.36
2153.887	322.06
2157.068	322.14
2160.25	319.53
2163.431	321.76
2166.611	325.09
2169.792	330.72
2172.972	333.22
2176.152	336.82
2179.331	340.89
2182.511	344.48
2185.69	348.62
2188.868	355.35
2192.047	356.47
2195.225	367.47
2198.403	377
2201.58	382.33
2204.758	390.28
2207.935	397.74
2211.111	405.9
2214.288	409.66
2217.464	411.33
2220.64	416.98
2223.815	421.11
2226.991	437.26
2230.166	437.65
2233.34	443.41
2236.515	450.76
2239.689	451.5
2242.863	453.57
2246.036	463.1
2249.209	460.42
2252.382	468.97
2255.555	482.07
2258.727	484.18
2261.9	488.41
2265.071	492.3
2268.243	500.37
2271.414	507.19
2274.585	515.86
2277.756	521.58
2280.926	524.65
2284.096	538.32
2287.266	548.71
2290.436	553.18
2293.605	565.82
2296.774	583.12
2299.942	600.92
2303.111	604.81
2306.279	616.08
2309.447	626.72
2312.614	641.7
2315.781	661.79
2318.948	690.61
2322.115	680.39
2325.281	720.13
2328.447	703.77
2331.613	727.69
2334.779	721.76
2337.944	750.3
2341.109	758.55
2344.274	778.61
2347.438	808.87
2350.602	806.62
2353.766	832.49
2356.929	846.72
2360.092	837.17
2363.255	900.95
2366.418	898.88
2369.58	915.42
2372.742	973.76
2375.904	997.81
2379.066	991.5
2382.227	969.44
2385.388	1053.16
2388.548	1049.4
2391.709	1061.93
2394.869	1182.25
2398.029	1129.62
2401.188	1163.39
2404.347	1155.61
2407.506	1135.08
2410.665	1168.78
2413.823	1235.63
2416.981	1309.21
2420.139	1268.8
2423.296	1253.06
2426.453	1313.91
2429.61	1263.15
2432.767	1317.75
2435.923	1305
2439.079	1430.99
2442.235	1454.11
2445.391	1443.36
2448.546	1432.11
2451.701	1390.63
2454.855	1387.83
2458.009	1476.76
2461.163	1536.77
2464.317	1585.92
2467.471	1623.24
2470.624	1630.92
2473.777	1583.7
2476.929	1535.25
2480.082	1487.53
2483.234	1474.26
2486.385	1548.63
2489.537	1555.34
2492.688	1609.35
2495.839	1557.79
2498.989	1530.54
2502.14	1539.28
2505.29	1545.91
2508.439	1567.84
2511.589	1569.68
2514.738	1705.67
2517.887	1669.99
2521.035	1761.55
2524.183	1775.75
2527.331	1788.64
2530.479	1774.92
2533.627	1787.02
