Data from N_3_DIV_OH_2N_Splice17_13-46-08-395.txt Node
Date: Sat Mar 07 13:46:08 EST 2020
User: sa697716
Spectrometer: NQ5500242
Trigger mode: 0
Integration Time (sec): 1.450000E-1
Scans to average: 20
Nonlinearity correction enabled: false
Boxcar width: 5
Storing dark spectrum: false
XAxis mode: Wavelengths
Number of Pixels in Spectrum: 512
>>>>>Begin Spectral Data<<<<<
187.83	228.26
188.298	242.03
188.766	217.58
189.233	179.8
189.701	197.8
190.169	249.86
190.636	271.45
191.104	416.8
191.571	188.44
192.039	-94.1
192.506	-98.12
192.974	-70.72
193.441	-87.71
193.908	-29.33
194.375	14.07
194.842	4.93
195.31	111.09
195.777	260.64
196.244	54.55
196.711	31.02
197.177	29.72
197.644	29.21
198.111	29.2
198.578	29.53
199.045	29.83
199.511	29.57
199.978	29.57
200.445	30.01
200.911	30.14
201.378	29.7
201.844	29.9
202.31	30.05
202.777	30.08
203.243	30.33
203.709	29.85
204.176	29.3
204.642	28.93
205.108	28.9
205.574	28.19
206.04	27.45
206.506	27.5
206.972	27.54
207.438	27.27
207.903	26.87
208.369	26.07
208.835	25.98
209.301	25.59
209.766	24.9
210.232	24.2
210.697	23.72
211.163	23.09
211.628	22.39
212.094	21.61
212.559	21.26
213.024	20.87
213.49	20.37
213.955	19.59
214.42	18.94
214.885	18.48
215.35	17.59
215.815	16.72
216.28	15.37
216.745	13.93
217.21	12.53
217.675	11.08
218.14	9.9
218.604	8.91
219.069	8.11
219.534	7.47
219.998	6.9
220.463	6.49
220.927	6.02
221.392	5.69
221.856	5.44
222.32	5.19
222.785	5.03
223.249	4.84
223.713	4.7
224.177	4.57
224.642	4.44
225.106	4.3
225.57	4.16
226.034	4.09
226.497	4.04
226.961	3.96
227.425	3.89
227.889	3.82
228.353	3.74
228.816	3.69
229.28	3.63
229.744	3.57
230.207	3.52
230.671	3.46
231.134	3.39
231.597	3.35
232.061	3.29
232.524	3.25
232.987	3.2
233.45	3.17
233.914	3.12
234.377	3.07
234.84	3.03
235.303	3
235.766	2.97
236.229	2.94
236.691	2.9
237.154	2.86
237.617	2.83
238.08	2.79
238.542	2.75
239.005	2.74
239.468	2.72
239.93	2.69
240.393	2.66
240.855	2.63
241.317	2.61
241.78	2.57
242.242	2.54
242.704	2.54
243.166	2.52
243.629	2.52
244.091	2.49
244.553	2.47
245.015	2.45
245.477	2.43
245.939	2.41
246.4	2.4
246.862	2.37
247.324	2.36
247.786	2.34
248.247	2.31
248.709	2.27
249.17	2.24
249.632	2.23
250.093	2.23
250.555	2.21
251.016	2.2
251.477	2.18
251.939	2.17
252.4	2.15
252.861	2.13
253.322	2.12
253.783	2.11
254.244	2.12
254.705	2.1
255.166	2.07
255.627	2.06
256.088	2.06
256.549	2.05
257.009	2.03
257.47	2.02
257.931	2
258.391	1.99
258.852	1.97
259.312	1.95
259.773	1.94
260.233	1.94
260.694	1.93
261.154	1.91
261.614	1.9
262.074	1.88
262.534	1.87
262.994	1.86
263.455	1.84
263.915	1.83
264.374	1.82
264.834	1.81
265.294	1.79
265.754	1.79
266.214	1.78
266.673	1.77
267.133	1.77
267.593	1.76
268.052	1.76
268.512	1.76
268.971	1.76
269.431	1.76
269.89	1.75
270.349	1.75
270.809	1.74
271.268	1.74
271.727	1.74
272.186	1.74
272.645	1.74
273.104	1.73
273.563	1.72
274.022	1.71
274.481	1.72
274.94	1.72
275.399	1.71
275.857	1.71
276.316	1.7
276.775	1.7
277.233	1.7
277.692	1.7
278.15	1.71
278.609	1.71
279.067	1.71
279.525	1.7
279.984	1.7
280.442	1.7
280.9	1.71
281.358	1.71
281.816	1.72
282.274	1.71
282.732	1.71
283.19	1.7
283.648	1.7
284.106	1.7
284.564	1.7
285.021	1.7
285.479	1.69
285.937	1.69
286.394	1.68
286.852	1.67
287.309	1.67
287.767	1.67
288.224	1.66
288.682	1.65
289.139	1.64
289.596	1.63
290.053	1.61
290.511	1.6
290.968	1.6
291.425	1.58
291.882	1.58
292.339	1.57
292.796	1.56
293.252	1.56
293.709	1.56
294.166	1.56
294.623	1.55
295.079	1.55
295.536	1.55
295.992	1.55
296.449	1.55
296.905	1.55
297.362	1.55
297.818	1.55
298.274	1.55
298.731	1.54
299.187	1.53
299.643	1.52
300.099	1.53
300.555	1.52
301.011	1.52
301.467	1.52
301.923	1.51
302.379	1.51
302.835	1.51
303.291	1.5
303.746	1.51
304.202	1.52
304.658	1.52
305.113	1.52
305.569	1.52
306.024	1.52
306.479	1.51
306.935	1.51
307.39	1.51
307.845	1.5
308.301	1.5
308.756	1.5
309.211	1.5
309.666	1.5
310.121	1.51
310.576	1.51
311.031	1.51
311.486	1.51
311.94	1.51
312.395	1.51
312.85	1.52
313.305	1.52
313.759	1.52
314.214	1.53
314.668	1.52
315.123	1.52
315.577	1.52
316.032	1.52
316.486	1.52
316.94	1.53
317.394	1.53
317.849	1.52
318.303	1.52
318.757	1.51
319.211	1.5
319.665	1.49
320.119	1.49
320.572	1.48
321.026	1.47
321.48	1.46
321.934	1.45
322.387	1.44
322.841	1.44
323.295	1.45
323.748	1.45
324.202	1.45
324.655	1.46
325.108	1.47
325.562	1.47
326.015	1.48
326.468	1.49
326.921	1.49
327.374	1.5
327.827	1.51
328.28	1.5
328.733	1.5
329.186	1.5
329.639	1.5
330.092	1.5
330.545	1.5
330.997	1.5
331.45	1.5
331.903	1.51
332.355	1.51
332.808	1.5
333.26	1.51
333.713	1.5
334.165	1.5
334.617	1.5
335.069	1.49
335.522	1.5
335.974	1.5
336.426	1.48
336.878	1.47
337.33	1.47
337.782	1.48
338.234	1.49
338.686	1.49
339.137	1.49
339.589	1.48
340.041	1.49
340.493	1.48
340.944	1.47
341.396	1.47
341.847	1.47
342.299	1.46
342.75	1.46
343.201	1.45
343.653	1.44
344.104	1.43
344.555	1.42
345.006	1.41
345.457	1.42
345.908	1.42
346.359	1.43
346.81	1.42
347.261	1.43
347.712	1.42
348.163	1.41
348.613	1.42
349.064	1.43
349.515	1.44
349.965	1.44
350.416	1.43
350.866	1.43
351.317	1.42
351.767	1.43
352.217	1.43
352.668	1.43
353.118	1.44
353.568	1.42
354.018	1.43
354.468	1.42
354.918	1.42
355.368	1.42
355.818	1.42
356.268	1.41
356.718	1.42
357.168	1.42
357.617	1.41
358.067	1.4
358.517	1.41
358.966	1.42
359.416	1.42
359.865	1.42
360.315	1.44
360.764	1.44
361.213	1.44
361.663	1.44
362.112	1.45
362.561	1.46
363.01	1.46
363.459	1.45
363.908	1.45
364.357	1.45
364.806	1.44
365.255	1.45
365.703	1.46
366.152	1.47
366.601	1.49
367.05	1.49
367.498	1.5
367.947	1.5
368.395	1.52
368.844	1.53
369.292	1.53
369.74	1.54
370.189	1.55
370.637	1.54
371.085	1.53
371.533	1.53
371.981	1.53
372.429	1.54
372.877	1.55
373.325	1.57
373.773	1.57
374.221	1.58
374.669	1.59
375.116	1.59
375.564	1.61
376.012	1.63
376.459	1.65
376.907	1.67
377.354	1.68
377.801	1.7
378.249	1.72
378.696	1.74
379.143	1.76
379.591	1.78
380.038	1.81
380.485	1.83
380.932	1.85
381.379	1.88
381.826	1.9
382.273	1.92
382.72	1.93
383.166	1.96
383.613	1.99
384.06	2.01
384.506	2.04
384.953	2.06
385.4	2.09
385.846	2.12
386.292	2.14
386.739	2.16
387.185	2.19
387.631	2.23
388.078	2.26
388.524	2.29
388.97	2.32
389.416	2.35
389.862	2.39
390.308	2.43
390.754	2.47
391.2	2.51
391.645	2.54
392.091	2.59
392.537	2.63
392.983	2.65
393.428	2.7
393.874	2.73
394.319	2.76
394.765	2.78
395.21	2.8
395.655	2.83
396.101	2.86
396.546	2.89
396.991	2.91
397.436	2.93
397.881	2.97
398.326	2.98
398.771	3.01
399.216	3.03
399.661	3.05
400.106	3.07
400.551	3.09
400.995	3.1
401.44	3.11
401.885	3.14
402.329	3.16
402.774	3.17
403.218	3.21
403.663	3.22
404.107	3.24
404.551	3.25
404.995	3.27
405.44	3.26
405.884	3.27
406.328	3.28
406.772	3.27
407.216	3.27
407.66	3.26
408.104	3.24
408.547	3.23
408.991	3.23
409.435	3.23
409.879	3.23
410.322	3.25
410.766	3.27
411.209	3.29
411.653	3.29
412.096	3.31
412.54	3.33
412.983	3.34
413.426	3.38
413.869	3.38
414.312	3.4
414.756	3.42
415.199	3.41
415.642	3.4
416.085	3.4
416.527	3.41
416.97	3.38
417.413	3.36
417.856	3.36
418.298	3.35
418.741	3.35
419.184	3.33
419.626	3.32
420.069	3.34
420.511	3.35
420.953	3.35
421.396	3.35
421.838	3.36
422.28	3.38
422.722	3.39
423.164	3.39
423.606	3.4
424.048	3.39
424.49	3.38
424.932	3.37
425.374	3.33
425.816	3.31
426.258	3.3
426.699	3.29
427.141	3.28
427.582	3.28
428.024	3.27
428.465	3.27
428.907	3.27
429.348	3.25
429.789	3.26
430.231	3.3
430.672	3.32
431.113	3.33
431.554	3.35
431.995	3.33
432.436	3.34
432.877	3.35
433.318	3.37
433.759	3.39
434.2	3.41
434.64	3.41
435.081	3.41
435.522	3.42
435.962	3.43
436.403	3.44
436.843	3.47
437.284	3.46
437.724	3.46
438.164	3.45
438.604	3.44
439.045	3.46
439.485	3.47
439.925	3.47
440.365	3.49
440.805	3.5
441.245	3.52
441.685	3.53
442.125	3.57
442.564	3.59
443.004	3.62
443.444	3.65
443.883	3.68
444.323	3.68
444.762	3.71
445.202	3.72
445.641	3.75
446.081	3.77
446.52	3.8
446.959	3.83
447.398	3.87
447.837	3.9
448.276	3.92
448.716	3.95
449.154	4
449.593	4.04
450.032	4.07
450.471	4.06
450.91	4.07
451.349	4.1
451.787	4.09
452.226	4.09
452.664	4.09
453.103	4.1
453.541	4.1
453.98	4.13
454.418	4.11
454.856	4.12
455.295	4.13
455.733	4.12
456.171	4.12
456.609	4.13
457.047	4.12
457.485	4.12
457.923	4.13
458.361	4.12
458.798	4.1
459.236	4.1
459.674	4.1
460.111	4.09
460.549	4.1
460.987	4.1
461.424	4.1
461.862	4.1
462.299	4.11
462.736	4.11
463.173	4.11
463.611	4.12
464.048	4.13
464.485	4.14
464.922	4.14
465.359	4.13
465.796	4.17
466.233	4.17
466.67	4.19
467.106	4.2
467.543	4.19
467.98	4.18
468.416	4.15
468.853	4.15
469.29	4.15
469.726	4.15
470.162	4.15
470.599	4.11
471.035	4.11
471.471	4.1
471.907	4.08
472.344	4.09
472.78	4.11
473.216	4.1
473.652	4.11
474.088	4.1
474.523	4.12
474.959	4.14
475.395	4.13
475.831	4.14
476.266	4.15
476.702	4.15
477.138	4.16
477.573	4.17
478.008	4.19
478.444	4.19
478.879	4.2
479.314	4.2
479.75	4.2
480.185	4.2
480.62	4.2
481.055	4.2
481.49	4.2
481.925	4.2
482.36	4.21
482.795	4.21
483.229	4.22
483.664	4.22
484.099	4.22
484.534	4.22
484.968	4.25
485.403	4.26
485.837	4.28
486.271	4.3
486.706	4.32
487.14	4.33
487.574	4.35
488.009	4.38
488.443	4.4
488.877	4.45
489.311	4.48
489.745	4.52
490.179	4.56
490.613	4.61
491.046	4.65
491.48	4.7
491.914	4.75
492.348	4.8
492.781	4.86
493.215	4.92
493.648	4.97
494.082	5.03
494.515	5.08
494.948	5.15
495.382	5.2
495.815	5.27
496.248	5.35
496.681	5.43
497.114	5.51
497.547	5.58
497.98	5.68
498.413	5.76
498.846	5.84
499.279	5.95
499.711	6.04
500.144	6.15
500.577	6.27
501.009	6.36
501.442	6.48
501.874	6.6
502.306	6.71
502.739	6.85
503.171	6.99
503.603	7.12
504.036	7.26
504.468	7.39
504.9	7.53
505.332	7.67
505.764	7.82
506.196	7.97
506.627	8.13
507.059	8.3
507.491	8.43
507.923	8.59
508.354	8.76
508.786	8.94
509.217	9.12
509.649	9.3
510.08	9.48
510.512	9.67
510.943	9.87
511.374	10.05
511.805	10.24
512.237	10.43
512.668	10.64
513.099	10.85
513.53	11.04
513.961	11.24
514.391	11.44
514.822	11.66
515.253	11.85
515.684	12.05
516.114	12.25
516.545	12.45
516.975	12.67
517.406	12.86
517.836	13.05
518.267	13.26
518.697	13.45
519.127	13.64
519.558	13.84
519.988	14.04
520.418	14.22
520.848	14.39
521.278	14.57
521.708	15.01
522.138	15.18
522.567	15.35
522.997	15.51
523.427	15.67
523.857	15.82
524.286	15.95
524.716	16.1
525.145	16.24
525.575	16.4
526.004	16.54
526.433	16.39
526.863	16.51
527.292	16.63
527.721	16.74
528.15	16.85
528.579	16.94
529.008	17.05
529.437	17.14
529.866	17.22
530.295	17.3
530.724	17.38
531.152	17.46
531.581	17.53
532.01	17.59
532.438	17.66
532.867	17.72
533.295	17.77
533.723	17.83
534.152	17.88
534.58	17.94
535.008	17.97
535.436	18.01
535.865	18.05
536.293	18.09
536.721	18.12
537.149	18.15
537.576	18.18
538.004	18.22
538.432	18.24
538.86	18.27
539.287	18.28
539.715	18.33
540.143	18.36
540.57	18.37
540.998	18.38
541.425	18.41
541.852	18.42
542.28	18.45
542.707	18.46
543.134	18.49
543.561	18.5
543.988	18.53
544.415	18.53
544.842	18.53
545.269	18.56
545.696	18.59
546.123	18.61
546.549	18.64
546.976	18.66
547.403	18.68
547.829	18.67
548.256	18.68
548.682	18.69
549.108	18.71
549.535	18.73
549.961	18.73
550.387	18.72
550.813	18.72
551.24	18.71
551.666	18.71
552.092	18.71
552.518	18.73
552.943	18.73
553.369	18.72
553.795	18.7
554.221	18.68
554.646	18.65
555.072	18.64
555.498	18.59
555.923	18.58
556.349	18.54
556.774	18.49
557.199	18.45
557.625	18.39
558.05	18.36
558.475	18.31
558.9	18.27
559.325	18.24
559.75	18.19
560.175	18.13
560.6	18.08
561.025	18.01
561.449	17.96
561.874	17.89
562.299	17.82
562.723	17.75
563.148	17.67
563.572	17.58
563.997	17.5
564.421	17.4
564.846	17.33
565.27	17.23
565.694	17.16
566.118	17.06
566.542	16.98
566.966	16.89
567.39	16.79
567.814	16.71
568.238	16.62
568.662	16.53
569.086	16.45
569.509	16.37
569.933	16.29
570.357	16.2
570.78	16.11
571.204	16.02
571.627	15.94
572.05	15.86
572.474	15.8
572.897	15.73
573.32	15.66
573.743	15.58
574.166	15.5
574.589	15.42
575.012	15.34
575.435	15.28
575.858	15.22
576.281	15.14
576.704	15.06
577.126	14.98
577.549	14.9
577.972	14.83
578.394	14.77
578.817	14.72
579.239	14.67
579.661	14.62
580.084	14.57
580.506	14.52
580.928	14.46
581.35	14.41
581.772	14.35
582.194	14.29
582.616	14.25
583.038	14.2
583.46	14.13
583.882	14.07
584.303	14.01
584.725	13.95
585.147	13.91
585.568	13.87
585.99	13.81
586.411	13.78
586.833	13.74
587.254	13.7
587.675	13.65
588.096	13.61
588.518	13.56
588.939	13.53
589.36	13.49
589.781	13.43
590.202	13.41
590.623	13.39
591.043	13.34
591.464	13.31
591.885	13.27
592.305	13.24
592.726	13.22
593.147	13.19
593.567	13.17
593.987	13.15
594.408	13.13
594.828	13.09
595.248	13.07
595.669	13.05
596.089	13.02
596.509	13.01
596.929	12.99
597.349	12.97
597.769	12.94
598.189	12.91
598.608	12.88
599.028	12.86
599.448	12.85
599.867	12.81
600.287	12.79
600.706	12.77
601.126	12.74
601.545	12.71
601.965	12.68
602.384	12.66
602.803	12.63
603.222	12.61
603.641	12.56
604.061	12.53
604.48	12.48
604.898	12.44
605.317	12.39
605.736	12.36
606.155	12.32
606.574	12.27
606.992	12.21
607.411	12.15
607.829	12.07
608.248	12.01
608.666	11.96
609.085	11.91
609.503	11.87
609.921	11.81
610.339	11.75
610.758	11.68
611.176	11.62
611.594	11.57
612.012	11.51
612.43	11.48
612.847	11.42
613.265	11.37
613.683	11.32
614.101	11.27
614.518	11.21
614.936	11.15
615.353	11.09
615.771	11.06
616.188	11.01
616.606	10.98
617.023	10.93
617.44	10.91
617.857	10.86
618.274	10.82
618.691	10.78
619.108	10.74
619.525	10.71
619.942	10.69
620.359	10.65
620.776	10.62
621.192	10.58
621.609	10.56
622.026	10.54
622.442	10.53
622.859	10.5
623.275	10.48
623.691	10.47
624.108	10.45
624.524	10.44
624.94	10.43
625.356	10.42
625.772	10.41
626.188	10.4
626.604	10.38
627.02	10.37
627.436	10.37
627.852	10.35
628.268	10.34
628.683	10.34
629.099	10.33
629.514	10.31
629.93	10.3
630.345	10.28
630.761	10.25
631.176	10.22
631.591	10.19
632.007	10.16
632.422	10.13
632.837	10.09
633.252	10.05
633.667	10
634.082	9.95
634.497	9.9
634.911	9.85
635.326	9.78
635.741	9.74
636.155	9.66
636.57	9.6
636.984	9.53
637.399	9.45
637.813	9.36
638.228	9.27
638.642	9.19
639.056	9.1
639.47	9.01
639.884	8.93
640.298	8.82
640.712	8.74
641.126	8.64
641.54	8.53
641.954	8.43
642.368	8.33
642.781	8.25
643.195	8.15
643.609	8.06
644.022	7.96
644.436	7.88
644.849	7.79
645.262	7.7
645.676	7.62
646.089	7.55
646.502	7.5
646.915	7.44
647.328	7.38
647.741	7.32
648.154	7.26
648.567	7.22
648.98	7.18
649.393	7.14
649.805	7.11
650.218	7.07
650.631	7.04
651.043	7
651.456	6.96
651.868	6.92
652.28	6.88
652.693	6.85
653.105	6.8
653.517	6.75
653.929	6.71
654.341	6.67
654.753	6.61
655.165	6.56
655.577	6.5
655.989	6.44
656.401	6.37
656.813	6.32
657.224	6.24
657.636	6.15
658.047	6.09
658.459	6.01
658.87	5.92
659.282	5.83
659.693	5.75
660.104	5.66
660.515	5.58
660.926	5.49
661.338	5.4
661.749	5.33
662.159	5.25
662.57	5.17
662.981	5.11
663.392	5.03
663.803	4.97
664.213	4.9
664.624	4.84
665.035	4.78
665.445	4.73
665.855	4.67
666.266	4.62
666.676	4.58
667.086	4.52
667.497	4.47
667.907	4.44
668.317	4.4
668.727	4.38
669.137	4.35
669.547	4.32
669.956	4.3
670.366	4.28
670.776	4.26
671.186	4.24
671.595	4.24
672.005	4.23
672.414	4.23
672.824	4.22
673.233	4.21
673.642	4.22
674.052	4.22
674.461	4.23
674.87	4.24
675.279	4.26
675.688	4.28
676.097	4.31
676.506	4.33
676.915	4.35
677.323	4.39
677.732	4.43
678.141	4.46
678.549	4.5
678.958	4.55
679.366	4.62
679.775	4.67
680.183	4.75
680.592	4.84
681	4.93
681.408	5.04
681.816	5.14
682.224	5.26
682.632	5.39
683.04	5.54
683.448	5.68
683.856	5.85
684.264	6.03
684.671	6.21
685.079	6.4
685.487	6.62
685.894	6.85
686.302	7.09
686.709	7.34
687.116	7.63
687.524	7.93
687.931	8.24
688.338	8.56
688.745	8.89
689.152	9.24
689.559	9.62
689.966	9.99
690.373	10.36
690.78	10.76
691.187	11.16
691.593	11.55
692	11.94
692.407	12.32
692.813	12.72
693.22	13.11
693.626	13.5
694.032	13.9
694.439	14.28
694.845	14.69
695.251	15.07
695.657	15.44
696.063	15.82
696.469	16.2
696.875	16.58
697.281	16.94
697.687	17.3
698.093	17.66
698.498	18
698.904	18.34
699.31	18.66
699.715	19
700.12	19.31
700.526	19.63
700.931	19.93
701.337	20.2
701.742	20.48
702.147	20.76
702.552	21.05
702.957	21.29
703.362	21.54
703.767	21.8
704.172	22.03
704.577	22.26
704.981	22.48
705.386	22.72
705.791	22.99
706.195	23.21
706.6	23.43
707.004	23.63
707.408	23.86
707.813	24.07
708.217	24.28
708.621	24.49
709.025	24.68
709.43	24.87
709.834	25.05
710.237	25.22
710.641	25.41
711.045	25.58
711.449	25.77
711.853	25.96
712.256	26.1
712.66	26.26
713.064	26.4
713.467	26.58
713.87	26.74
714.274	26.88
714.677	27.03
715.08	27.17
715.484	27.31
715.887	27.46
716.29	27.57
716.693	27.74
717.096	27.87
717.499	28.01
717.901	28.12
718.304	28.25
718.707	28.37
719.109	28.5
719.512	28.61
719.915	28.73
720.317	28.81
720.719	28.88
721.122	28.96
721.524	29.03
721.926	29.15
722.328	29.24
722.731	29.31
723.133	29.4
723.535	29.47
723.937	29.55
724.338	29.62
724.74	29.7
725.142	30.01
725.544	30.08
725.945	30.22
726.347	30.24
726.748	30.3
727.15	30.35
727.551	30.44
727.952	30.49
728.354	30.54
728.755	30.59
729.156	30.63
729.557	30.46
729.958	30.48
730.359	30.48
730.76	30.54
731.161	30.6
731.562	30.66
731.962	30.66
732.363	30.7
732.763	30.73
733.164	30.76
733.564	30.82
733.965	30.85
734.365	30.92
734.766	30.95
735.166	30.99
735.566	31.01
735.966	31.01
736.366	31.03
736.766	31.05
737.166	31.08
737.566	31.12
737.966	31.12
738.365	31.15
738.765	31.18
739.165	31.2
739.564	31.21
739.964	31.23
740.363	31.27
740.763	31.3
741.162	31.31
741.561	31.32
741.96	31.32
742.36	31.33
742.759	31.34
743.158	31.34
743.557	31.34
743.955	31.35
744.354	31.36
744.753	31.37
745.152	31.38
745.55	31.4
745.949	31.43
746.348	31.45
746.746	31.44
747.144	31.45
747.543	31.44
747.941	31.44
748.339	31.44
748.737	31.42
749.136	31.41
749.534	31.39
749.932	31.38
750.33	31.38
750.727	31.37
751.125	31.38
751.523	31.36
751.921	31.38
752.318	31.38
752.716	31.4
753.113	31.42
753.511	31.43
753.908	31.45
754.305	31.49
754.703	31.48
755.1	31.49
755.497	31.48
755.894	31.49
756.291	31.48
756.688	31.46
757.085	31.45
757.482	31.44
757.878	31.46
758.275	31.45
758.672	31.42
759.068	31.44
759.465	31.43
759.861	31.43
760.258	31.42
760.654	31.42
761.05	31.46
761.447	31.45
761.843	31.46
762.239	31.44
762.635	31.42
763.031	31.42
763.427	31.4
763.822	31.43
764.218	31.45
764.614	31.45
765.01	31.44
765.405	31.44
765.801	31.44
766.196	31.43
766.592	31.42
766.987	31.42
767.382	31.41
767.778	31.41
768.173	31.39
768.568	31.39
768.963	31.4
769.358	31.41
769.753	31.41
770.148	31.44
770.542	31.44
770.937	31.45
771.332	31.46
771.726	31.47
772.121	31.46
772.515	31.48
772.91	31.44
773.304	31.44
773.699	31.42
774.093	31.39
774.487	31.36
774.881	31.36
775.275	31.36
775.669	31.34
776.063	31.32
776.457	31.34
776.851	31.31
777.245	31.32
777.638	31.32
778.032	31.35
778.425	31.4
778.819	31.41
779.212	31.43
779.606	31.44
779.999	31.45
780.392	31.49
780.786	31.48
781.179	31.48
781.572	31.49
781.965	31.5
782.358	31.47
782.751	31.43
783.143	31.41
783.536	31.39
783.929	31.36
784.322	31.38
784.714	31.36
785.107	31.33
785.499	31.33
785.891	31.34
786.284	31.31
786.676	31.31
787.068	31.32
787.46	31.32
787.852	31.32
788.245	31.32
788.636	31.29
789.028	31.3
789.42	31.3
789.812	31.31
790.204	31.29
790.595	31.32
790.987	31.3
791.378	31.32
791.77	31.32
792.161	31.27
792.553	31.28
792.944	31.28
793.335	31.26
793.726	31.28
794.117	31.26
794.508	31.23
794.899	31.21
795.29	31.22
795.681	31.2
796.072	31.2
796.463	31.32
796.853	31.35
797.244	31.35
797.634	31.35
798.025	31.36
798.415	31.35
798.806	31.39
799.196	31.4
799.586	31.41
799.976	31.43
800.366	31.44
800.756	31.35
801.146	31.35
801.536	31.36
801.926	31.35
802.316	31.32
802.706	31.32
803.095	31.31
803.485	31.3
803.874	31.3
804.264	31.28
804.653	31.26
805.043	31.27
805.432	31.24
805.821	31.25
806.21	31.28
806.599	31.29
806.988	31.29
807.377	31.27
807.766	31.25
808.155	31.23
808.544	31.22
808.933	31.21
809.321	31.23
809.71	31.22
810.098	31.21
810.487	31.18
810.875	31.14
811.264	31.15
811.652	31.2
812.04	31.19
812.428	31.22
812.816	31.21
813.204	31.22
813.592	31.18
813.98	31.18
814.368	31.19
814.756	31.2
815.144	31.23
815.531	31.22
815.919	31.2
816.306	31.21
816.694	31.18
817.081	31.2
817.469	31.21
817.856	31.2
818.243	31.2
818.63	31.17
819.017	31.15
819.404	31.13
819.791	31.12
820.178	31.11
820.565	31.08
820.952	31.09
821.339	31.06
821.725	31.05
822.112	31.07
822.498	31.07
822.885	31.08
823.271	31.08
823.657	31.05
824.044	31.04
824.43	31.03
824.816	31.07
825.202	31.05
825.588	31.04
825.974	31.04
826.36	31.02
826.746	30.97
827.132	30.96
827.517	30.99
827.903	31.01
828.289	31.03
828.674	31.03
829.06	30.99
829.445	30.97
829.83	30.96
830.216	30.95
830.601	30.96
830.986	30.99
831.371	30.99
831.756	30.98
832.141	30.97
832.526	30.95
832.911	30.96
833.295	30.97
833.68	30.98
834.065	30.98
834.449	30.97
834.834	30.96
835.218	30.96
835.603	30.94
835.987	30.94
836.371	30.93
836.755	30.91
837.139	30.88
837.524	30.85
837.908	30.85
838.291	30.86
838.675	30.87
839.059	30.87
839.443	30.83
839.827	30.82
840.21	30.81
840.594	30.82
840.977	30.83
841.361	30.84
841.744	30.83
842.127	30.82
842.511	30.81
842.894	30.79
843.277	30.78
843.66	30.78
844.043	30.81
844.426	30.8
844.809	30.78
845.191	30.8
845.574	30.79
845.957	30.8
846.339	30.81
846.722	30.81
847.104	30.82
847.487	30.83
847.869	30.82
848.252	30.8
848.634	30.78
849.016	30.79
849.398	30.77
849.78	30.79
850.162	30.78
850.544	30.76
850.926	30.75
851.307	30.74
851.689	30.75
852.071	30.76
852.452	30.79
852.834	30.81
853.215	30.79
853.597	30.8
853.978	30.79
854.359	30.8
854.741	30.79
855.122	30.78
855.503	30.77
855.884	30.76
856.265	30.76
856.646	30.71
857.026	30.71
857.407	30.72
857.788	30.71
858.169	30.71
858.549	30.69
858.93	30.7
859.31	30.69
859.69	30.71
860.071	30.71
860.451	30.72
860.831	30.73
861.211	30.69
861.591	30.68
861.971	30.67
862.351	30.66
862.731	30.66
863.111	30.67
863.491	30.67
863.87	30.66
864.25	30.63
864.629	30.64
865.009	30.65
865.388	30.65
865.768	30.64
866.147	30.65
866.526	30.65
866.905	30.65
867.284	30.64
867.663	30.62
868.042	30.63
868.421	30.64
868.8	30.63
869.179	30.63
869.558	30.64
869.936	30.63
870.315	30.62
870.693	30.63
871.072	30.63
871.45	30.63
871.828	30.65
872.207	30.64
872.585	30.62
872.963	30.59
873.341	30.57
873.719	30.58
874.097	30.57
874.475	30.56
874.853	30.54
875.23	30.54
875.608	30.53
875.986	30.51
876.363	30.51
876.741	30.53
877.118	30.55
877.495	30.55
877.873	30.54
878.25	30.55
878.627	30.56
879.004	30.55
879.381	30.54
879.758	30.55
880.135	30.53
880.512	30.52
880.889	30.52
881.265	30.51
881.642	30.51
882.019	30.52
882.395	30.52
882.772	30.53
883.148	30.54
883.524	30.54
883.901	30.55
884.277	30.54
884.653	30.53
885.029	30.54
885.405	30.55
885.781	30.55
886.157	30.54
886.532	30.54
886.908	30.52
887.284	30.53
887.659	30.51
888.035	30.49
888.411	30.49
888.786	30.49
889.161	30.48
889.537	30.47
889.912	30.45
890.287	30.45
890.662	30.43
891.037	30.42
891.412	30.4
891.787	30.38
892.162	30.39
892.536	30.38
892.911	30.38
893.286	30.37
893.66	30.36
894.035	30.37
894.409	30.38
894.784	30.39
895.158	30.39
895.532	30.4
895.906	30.4
896.281	30.41
896.655	30.41
897.029	30.42
897.402	30.42
897.776	30.43
898.15	30.43
898.524	30.42
898.898	30.43
899.271	30.43
899.645	30.44
900.018	30.47
900.392	30.46
900.765	30.47
901.138	30.45
901.511	30.43
901.884	30.43
902.258	30.45
902.631	30.46
903.003	30.45
903.376	30.44
903.749	30.43
904.122	30.44
904.495	30.43
904.867	30.44
905.24	30.47
905.612	30.5
905.985	30.5
906.357	30.5
906.729	30.5
907.102	30.51
907.474	30.52
907.846	30.52
908.218	30.51
908.59	30.54
908.962	30.54
909.334	30.54
909.705	30.52
910.077	30.53
910.449	30.51
910.82	30.51
911.192	30.5
911.563	30.5
911.935	30.5
912.306	30.5
912.677	30.5
913.048	30.52
913.419	30.53
913.79	30.54
914.161	30.54
914.532	30.56
914.903	30.54
915.274	30.53
915.645	30.54
916.015	30.54
916.386	30.53
916.756	30.52
917.127	30.51
917.497	30.51
917.868	30.51
918.238	30.52
918.608	30.52
918.978	30.55
919.348	30.56
919.718	30.55
920.088	30.58
920.458	30.59
920.828	30.6
921.198	30.56
921.567	30.56
921.937	30.55
922.306	30.55
922.676	30.54
923.045	30.56
923.415	30.57
923.784	30.57
924.153	30.59
924.522	30.6
924.891	30.59
925.26	30.6
925.629	30.62
925.998	30.63
926.367	30.63
926.736	30.65
927.104	30.64
927.473	30.62
927.842	30.63
928.21	30.62
928.578	30.63
928.947	30.66
929.315	30.68
929.683	30.69
930.051	30.7
930.42	30.7
930.788	30.69
931.156	30.7
931.523	30.73
931.891	30.76
932.259	30.81
932.627	30.85
932.994	30.85
933.362	30.87
933.729	30.9
934.097	30.89
934.464	30.93
934.831	30.96
935.199	30.96
935.566	30.97
935.933	30.95
936.3	30.92
936.667	30.86
937.034	30.95
937.401	30.93
937.767	30.93
938.134	30.96
938.501	30.95
938.867	30.97
939.234	30.95
939.6	30.98
939.967	31.01
940.333	30.98
940.699	30.99
941.065	30.84
941.431	30.88
941.798	30.85
942.163	30.81
942.529	30.74
942.895	30.67
943.261	30.64
943.627	30.54
943.992	30.52
944.358	30.54
944.723	30.53
945.089	30.5
945.454	30.5
945.82	30.42
946.185	30.4
946.55	30.36
946.915	30.36
947.28	30.37
947.645	30.37
948.01	30.33
948.375	30.29
948.74	30.25
949.104	30.28
949.469	30.19
949.834	30.24
950.198	30.29
950.562	30.29
950.927	30.27
951.291	30.19
951.655	30.13
952.02	30.11
952.384	30.09
952.748	30.11
953.112	30.11
953.476	30.1
953.839	30.08
954.203	30.05
954.567	30.06
954.931	30.02
955.294	30.05
955.658	30.15
956.021	30.15
956.385	30.11
956.748	30.09
957.111	30.07
957.474	30.06
957.837	30.03
958.2	30.03
958.563	30.03
958.926	30.05
959.289	30.07
959.652	30
960.015	30.02
960.377	30.08
960.74	30.13
961.102	30.12
961.465	30.19
961.827	30.31
962.189	30.33
962.552	30.37
962.914	30.4
963.276	30.43
963.638	30.47
964	30.45
964.362	30.44
964.724	30.38
965.085	30.4
965.447	30.36
965.809	30.23
966.17	30.21
966.532	30.16
966.893	30.17
967.255	30.14
967.616	30.13
967.977	30.18
968.338	30.17
968.699	30.22
969.061	30.2
969.421	30.27
969.782	30.31
970.143	30.33
970.504	30.43
970.865	30.44
971.225	30.46
971.586	30.46
971.946	30.44
972.307	30.48
972.667	30.44
973.027	30.51
973.388	30.47
973.748	30.45
974.108	30.52
974.468	30.45
974.828	30.5
975.188	30.52
975.548	30.52
975.907	30.49
976.267	30.45
976.627	30.48
976.986	30.42
977.346	30.38
977.705	30.43
978.064	30.4
978.424	30.41
978.783	30.32
979.142	30.29
979.501	30.33
979.86	30.46
980.219	30.5
980.578	30.56
980.937	30.58
981.296	30.61
981.654	30.56
982.013	30.54
982.371	30.56
982.73	30.6
983.088	30.61
983.447	30.58
983.805	30.52
984.163	30.47
984.521	30.42
984.879	30.44
985.237	30.53
985.595	30.65
985.953	30.66
986.311	30.61
986.669	30.63
987.026	30.65
987.384	30.67
987.741	30.61
988.099	30.71
988.456	30.71
988.814	30.78
989.171	30.65
989.528	30.56
989.885	30.5
990.242	30.59
990.599	30.57
990.956	30.6
991.313	30.63
991.67	30.72
992.027	30.95
992.383	31.04
992.74	30.98
993.096	31.06
993.453	31.09
993.809	31.1
994.165	31.16
994.522	31.35
994.878	31.36
995.234	31.38
995.59	31.35
995.946	31.08
996.302	31.01
996.658	31.07
997.013	31.13
997.369	31.19
997.725	31.3
998.08	31.23
998.436	31.08
998.791	31.11
999.147	31.08
999.502	31.12
999.857	31.11
1000.212	31.09
1000.567	31.08
1000.922	30.97
1001.277	30.97
1001.632	30.9
1001.987	30.99
1002.342	30.91
1002.696	30.82
1003.051	30.91
1003.406	30.97
1003.76	31.02
1004.114	31.04
1004.469	31.1
1004.823	31.45
1005.177	31.42
1005.531	31.57
1005.885	31.56
1006.239	31.73
1006.593	31.95
1006.947	31.87
1007.301	31.73
1007.655	31.66
1008.008	31.76
1008.362	31.82
1008.715	31.62
1009.069	31.66
1009.422	31.69
1009.776	31.5
1010.129	31.44
1010.482	31.33
1010.835	31.41
1011.188	31.56
1011.541	31.76
1011.894	31.9
1012.247	31.87
1012.6	31.83
1012.952	31.76
1013.305	31.68
1013.657	31.93
1014.01	32.06
1014.362	31.94
1014.715	32.11
1015.067	32.21
1015.419	32.13
1015.771	32.11
1016.123	32.1
1016.475	32.02
1016.827	32.09
1017.179	32.16
1017.531	32.17
1017.883	32
1018.234	32.4
1018.586	32.42
1018.938	32.55
1019.289	32.52
1019.64	32.33
1019.992	32.24
1020.343	32.27
1020.694	32.43
1021.045	32.42
1021.396	32.27
1021.747	32.42
1022.098	32.14
1022.449	31.99
1022.8	31.88
1023.151	31.88
1023.501	32
1023.852	32.24
1024.202	32.35
1024.553	32.28
1024.903	32.66
1025.253	32.99
1025.604	32.9
1025.954	32.79
1026.304	32.64
1026.654	32.62
1027.004	32.42
1027.354	32.23
1027.703	32.07
1028.053	32.08
1028.403	32.04
1028.753	31.23
1029.102	31.07
1029.452	31.05
1029.801	31.18
1030.15	31.17
1030.499	30.86
897.758	2110.05
901.051	2110.93
904.343	2099.26
907.636	2143.61
910.928	2087.32
914.22	2078.63
917.511	2049.54
920.803	1960.54
924.094	1950.66
927.384	1907.04
930.675	1817.62
933.965	1804.13
937.255	1701.77
940.544	1633.96
943.834	1545.68
947.123	1530.54
950.411	1443.78
953.7	1410.46
956.988	1332.5
960.276	1271.57
963.563	1252.55
966.851	1209.24
970.138	1199.97
973.424	1159.7
976.711	1167.19
979.997	1108.64
983.283	1103.7
986.568	1078.64
989.853	1041.27
993.138	1025.12
996.423	987.39
999.708	959.41
1002.992	950.29
1006.275	901.23
1009.559	891.94
1012.842	858.38
1016.125	833.88
1019.408	818.94
1022.69	805.85
1025.972	792.13
1029.254	770.94
1032.536	757.5
1035.817	739.21
1039.098	728.25
1042.379	713.2
1045.659	705.04
1048.939	687.92
1052.219	674.03
1055.498	659.79
1058.778	647.09
1062.057	629.16
1065.335	621.03
1068.614	613.95
1071.892	608
1075.17	585.18
1078.447	574.51
1081.724	570.96
1085.001	564.75
1088.278	552.92
1091.554	542.3
1094.83	540.79
1098.106	538.24
1101.382	532.73
1104.657	528.33
1107.932	518.49
1111.206	523.84
1114.481	510.05
1117.755	503.16
1121.029	499.98
1124.302	500.93
1127.575	489.89
1130.848	483.26
1134.121	477.16
1137.393	475.79
1140.665	464.12
1143.937	462.56
1147.208	455.34
1150.48	456.21
1153.75	450.34
1157.021	442.12
1160.291	441.43
1163.561	437.19
1166.831	436.51
1170.101	434.46
1173.37	431.04
1176.639	432.95
1179.907	427.79
1183.176	424.96
1186.444	423.8
1189.711	423.32
1192.979	421.83
1196.246	417.41
1199.513	419.96
1202.78	418.07
1206.046	417.85
1209.312	413.91
1212.578	414.37
1215.843	417.97
1219.108	415.16
1222.373	424.09
1225.638	427.68
1228.902	435.95
1232.166	436.53
1235.43	439.71
1238.693	446.24
1241.956	447.17
1245.219	457.03
1248.482	455.56
1251.744	455.47
1255.006	457.62
1258.268	444.97
1261.529	440.43
1264.79	435.25
1268.051	432.95
1271.312	427.51
1274.572	421.17
1277.832	417.52
1281.092	408.78
1284.351	406.47
1287.61	406.27
1290.869	399.24
1294.128	397.01
1297.386	395.93
1300.644	392.18
1303.902	393.82
1307.159	391.37
1310.416	392.85
1313.673	392.47
1316.93	397.29
1320.186	397.36
1323.442	398.66
1326.697	407.52
1329.953	407.53
1333.208	411.35
1336.463	415.71
1339.717	416.64
1342.972	421.3
1346.226	424.3
1349.479	424.71
1352.733	428.1
1355.986	429.72
1359.238	430.41
1362.491	433.04
1365.743	438.66
1368.995	437.88
1372.247	436.54
1375.498	437.6
1378.749	444.62
1382	438.13
1385.251	442.39
1388.501	438.34
1391.751	443.54
1395	440.78
1398.25	438.32
1401.499	436.67
1404.748	437.37
1407.996	434.54
1411.244	432.3
1414.492	430.58
1417.74	429.24
1420.987	420.92
1424.234	423.81
1427.481	415.43
1430.728	416.99
1433.974	410.95
1437.22	408.81
1440.465	407.16
1443.711	406.06
1446.956	404.13
1450.201	396.38
1453.445	392.8
1456.689	392.69
1459.933	384.25
1463.177	382.34
1466.42	374.87
1469.663	370.94
1472.906	368.54
1476.148	358.08
1479.391	352.35
1482.633	347.73
1485.874	343.58
1489.115	341.15
1492.356	335.51
1495.597	334.73
1498.838	328.92
1502.078	326.69
1505.318	324.79
1508.557	324.47
1511.797	324.72
1515.036	322.33
1518.274	320.75
1521.513	315.91
1524.751	315.74
1527.989	314.72
1531.227	312.81
1534.464	313.89
1537.701	310.72
1540.938	309.51
1544.174	304.5
1547.41	303.07
1550.646	302.46
1553.882	302.92
1557.117	299.15
1560.352	296.1
1563.587	294.98
1566.821	292.76
1570.055	288.24
1573.289	285.64
1576.523	285.78
1579.756	283.47
1582.989	281.36
1586.222	280.62
1589.454	277.7
1592.686	279.65
1595.918	278.83
1599.15	277.7
1602.381	277.41
1605.612	277.96
1608.843	279.89
1612.073	278.72
1615.303	280.29
1618.533	281.11
1621.762	279.57
1624.992	280.27
1628.221	280.28
1631.449	279.43
1634.678	278.54
1637.906	280.14
1641.134	279.85
1644.361	279.09
1647.588	280.15
1650.815	278.53
1654.042	276.34
1657.269	278.79
1660.495	279.14
1663.72	276.08
1666.946	278.03
1670.171	278.82
1673.396	278.12
1676.621	278.38
1679.845	277.72
1683.069	277.26
1686.293	279.47
1689.517	281.8
1692.74	280.94
1695.963	282.07
1699.185	287.48
1702.408	286.49
1705.63	287.81
1708.852	289.51
1712.073	289.37
1715.294	290.84
1718.515	292
1721.736	291.73
1724.956	292.12
1728.176	292.09
1731.396	295.51
1734.616	294.05
1737.835	295.57
1741.054	293.47
1744.272	294.06
1747.491	298.37
1750.709	298.63
1753.927	299.55
1757.144	298.38
1760.361	301.48
1763.578	301.37
1766.795	300.21
1770.011	301.71
1773.227	302.18
1776.443	306.76
1779.658	309.58
1782.874	307.28
1786.089	309.43
1789.303	310.56
1792.518	314.46
1795.732	313.37
1798.945	318.38
1802.159	318.14
1805.372	320.12
1808.585	326.12
1811.797	327.52
1815.01	326.1
1818.222	329.8
1821.434	330.7
1824.645	332.87
1827.856	339.76
1831.067	343.54
1834.278	340.12
1837.488	343.56
1840.698	346.72
1843.908	343.08
1847.117	344.15
1850.326	347.53
1853.535	346.56
1856.744	354.85
1859.952	353.76
1863.16	352.6
1866.368	350.73
1869.575	358.33
1872.782	352.53
1875.989	351.92
1879.196	351.34
1882.402	351.64
1885.608	353.98
1888.814	357.31
1892.019	355.85
1895.224	356.33
1898.429	353.88
1901.634	357.4
1904.838	357
1908.042	363.59
1911.246	365.45
1914.449	368.55
1917.652	369.5
1920.855	368.58
1924.058	366.68
1927.26	365.62
1930.462	368.52
1933.664	373.57
1936.865	369.42
1940.066	370.85
1943.267	367.1
1946.467	365.66
1949.668	369.17
1952.868	372.61
1956.067	372.16
1959.267	373.57
1962.466	374.82
1965.665	371.63
1968.863	372.11
1972.061	377.59
1975.259	380.36
1978.457	384.1
1981.654	386.89
1984.852	387.25
1988.048	385.09
1991.245	388.99
1994.441	394.35
1997.637	396.24
2000.833	404.24
2004.028	408.91
2007.223	411.05
2010.418	415.84
2013.613	421.36
2016.807	427.2
2020.001	429.61
2023.194	436.09
2026.388	445.86
2029.581	453.81
2032.774	458.93
2035.966	466.97
2039.158	469.77
2042.35	478.24
2045.542	479.93
2048.733	487.65
2051.924	493.76
2055.115	502.21
2058.306	502.88
2061.496	509.53
2064.686	509.3
2067.875	517.38
2071.065	519.87
2074.254	516.56
2077.442	521.63
2080.631	524.68
2083.819	530.31
2087.007	529.32
2090.195	536.34
2093.382	540.59
2096.569	534.64
2099.756	544.83
2102.942	546.11
2106.128	552.39
2109.314	565.25
2112.5	564.25
2115.685	575.85
2118.87	576.32
2122.055	589.54
2125.239	593.65
2128.424	602.97
2131.608	607.01
2134.791	614.29
2137.974	617.8
2141.157	618.65
2144.34	618.61
2147.523	629.05
2150.705	624.41
2153.887	629.11
2157.068	630.77
2160.25	624
2163.431	625.22
2166.611	631.65
2169.792	644.71
2172.972	652.02
2176.152	654.66
2179.331	664.96
2182.511	676.74
2185.69	685.33
2188.868	700.17
2192.047	701.8
2195.225	722.09
2198.403	741.13
2201.58	755.66
2204.758	768.49
2207.935	785.51
2211.111	800.7
2214.288	809.74
2217.464	812.14
2220.64	821.23
2223.815	834.43
2226.991	867.73
2230.166	871.74
2233.34	889.1
2236.515	901.98
2239.689	903.49
2242.863	907.12
2246.036	937.3
2249.209	925.78
2252.382	941.03
2255.555	973.34
2258.727	974.59
2261.9	979.26
2265.071	988.22
2268.243	1003.64
2271.414	1015.91
2274.585	1043.37
2277.756	1053.31
2280.926	1056.93
2284.096	1081.14
2287.266	1108.25
2290.436	1117.58
2293.605	1145.36
2296.774	1185.33
2299.942	1220.54
2303.111	1228.32
2306.279	1260.99
2309.447	1272.46
2312.614	1307.03
2315.781	1345.89
2318.948	1412.56
2322.115	1386.58
2325.281	1459.26
2328.447	1427.87
2331.613	1488.71
2334.779	1471.83
2337.944	1531.02
2341.109	1549.37
2344.274	1590.96
2347.438	1651.61
2350.602	1651.72
2353.766	1702.22
2356.929	1727.28
2360.092	1711.57
2363.255	1846.28
2366.418	1831.42
2369.58	1875.59
2372.742	1988.3
2375.904	2033.75
2379.066	2022.45
2382.227	1979.44
2385.388	2146.99
2388.548	2151.74
2391.709	2183.84
2394.869	2443.98
2398.029	2318.02
2401.188	2391.36
2404.347	2374.33
2407.506	2348.75
2410.665	2417.97
2413.823	2565.13
2416.981	2715.96
2420.139	2618.88
2423.296	2587.19
2426.453	2700.15
2429.61	2591.32
2432.767	2723.99
2435.923	2703.2
2439.079	2935.54
2442.235	2968.8
2445.391	2938.55
2448.546	2920.71
2451.701	2839.47
2454.855	2846.22
2458.009	3017.38
2461.163	3125.11
2464.317	3247.2
2467.471	3336.78
2470.624	3331.19
2473.777	3252.05
2476.929	3180.2
2480.082	3092.75
2483.234	3049.21
2486.385	3189.9
2489.537	3203.27
2492.688	3337.06
2495.839	3233.56
2498.989	3169.55
2502.14	3188.06
2505.29	3227.8
2508.439	3285.09
2511.589	3268.01
2514.738	3559.23
2517.887	3489.55
2521.035	3697.87
2524.183	3721.64
2527.331	3750.8
2530.479	3766.17
2533.627	3784.21
