Data from N_3_HIR_WI_4N_Splice17_14-08-12-397.txt Node
Date: Sat Mar 07 14:08:12 EST 2020
User: sa697716
Spectrometer: NQ5500242
Trigger mode: 0
Integration Time (sec): 1.450000E-1
Scans to average: 20
Nonlinearity correction enabled: false
Boxcar width: 5
Storing dark spectrum: false
XAxis mode: Wavelengths
Number of Pixels in Spectrum: 512
>>>>>Begin Spectral Data<<<<<
187.83	61.17
188.298	90.92
188.766	69.96
189.233	57.32
189.701	53.85
190.169	68.7
190.636	65.4
191.104	45.23
191.571	-108.41
192.039	64.93
192.506	-154.08
192.974	166.35
193.441	455.91
193.908	194.41
194.375	90.98
194.842	39.42
195.31	75.65
195.777	121.47
196.244	55.24
196.711	50.43
197.177	53.46
197.644	53.36
198.111	52.16
198.578	51.74
199.045	52
199.511	52.37
199.978	52.86
200.445	53.04
200.911	53.26
201.378	53.41
201.844	53.61
202.31	53.56
202.777	53.6
203.243	53.91
203.709	54.04
204.176	53.89
204.642	53.69
205.108	53.3
205.574	53.01
206.04	52.65
206.506	52.04
206.972	51.47
207.438	50.78
207.903	49.9
208.369	48.76
208.835	47.52
209.301	46.29
209.766	44.8
210.232	43.48
210.697	42.24
211.163	40.91
211.628	39.63
212.094	38.74
212.559	37.87
213.024	36.8
213.49	35.99
213.955	35.06
214.42	34.16
214.885	33.14
215.35	31.78
215.815	29.98
216.28	27.87
216.745	25.56
217.21	22.93
217.675	20.57
218.14	18.55
218.604	16.83
219.069	15.42
219.534	14.19
219.998	13.2
220.463	12.35
220.927	11.57
221.392	10.99
221.856	10.52
222.32	10.16
222.785	9.82
223.249	9.52
223.713	9.23
224.177	8.99
224.642	8.77
225.106	8.53
225.57	8.32
226.034	8.16
226.497	7.98
226.961	7.8
227.425	7.62
227.889	7.46
228.353	7.32
228.816	7.19
229.28	7.05
229.744	6.94
230.207	6.83
230.671	6.72
231.134	6.61
231.597	6.53
232.061	6.44
232.524	6.35
232.987	6.26
233.45	6.19
233.914	6.11
234.377	6.03
234.84	5.95
235.303	5.89
235.766	5.84
236.229	5.79
236.691	5.72
237.154	5.66
237.617	5.62
238.08	5.57
238.542	5.51
239.005	5.48
239.468	5.42
239.93	5.38
240.393	5.35
240.855	5.29
241.317	5.25
241.78	5.2
242.242	5.14
242.704	5.11
243.166	5.05
243.629	5.03
244.091	4.97
244.553	4.92
245.015	4.88
245.477	4.83
245.939	4.79
246.4	4.75
246.862	4.7
247.324	4.68
247.786	4.63
248.247	4.6
248.709	4.55
249.17	4.51
249.632	4.48
250.093	4.45
250.555	4.42
251.016	4.4
251.477	4.36
251.939	4.34
252.4	4.32
252.861	4.29
253.322	4.27
253.783	4.26
254.244	4.24
254.705	4.22
255.166	4.2
255.627	4.17
256.088	4.15
256.549	4.13
257.009	4.11
257.47	4.09
257.931	4.06
258.391	4.03
258.852	3.99
259.312	3.97
259.773	3.94
260.233	3.91
260.694	3.89
261.154	3.86
261.614	3.83
262.074	3.8
262.534	3.78
262.994	3.76
263.455	3.74
263.915	3.72
264.374	3.7
264.834	3.68
265.294	3.66
265.754	3.65
266.214	3.63
266.673	3.62
267.133	3.61
267.593	3.6
268.052	3.59
268.512	3.59
268.971	3.58
269.431	3.57
269.89	3.56
270.349	3.55
270.809	3.54
271.268	3.54
271.727	3.53
272.186	3.52
272.645	3.51
273.104	3.5
273.563	3.49
274.022	3.48
274.481	3.48
274.94	3.47
275.399	3.46
275.857	3.46
276.316	3.45
276.775	3.44
277.233	3.44
277.692	3.43
278.15	3.43
278.609	3.43
279.067	3.43
279.525	3.43
279.984	3.43
280.442	3.43
280.9	3.43
281.358	3.43
281.816	3.43
282.274	3.43
282.732	3.42
283.19	3.42
283.648	3.42
284.106	3.41
284.564	3.41
285.021	3.41
285.479	3.41
285.937	3.4
286.394	3.4
286.852	3.4
287.309	3.4
287.767	3.38
288.224	3.38
288.682	3.37
289.139	3.35
289.596	3.34
290.053	3.33
290.511	3.32
290.968	3.3
291.425	3.28
291.882	3.27
292.339	3.26
292.796	3.26
293.252	3.24
293.709	3.23
294.166	3.22
294.623	3.21
295.079	3.2
295.536	3.2
295.992	3.2
296.449	3.19
296.905	3.18
297.362	3.18
297.818	3.17
298.274	3.18
298.731	3.17
299.187	3.16
299.643	3.15
300.099	3.15
300.555	3.15
301.011	3.14
301.467	3.14
301.923	3.13
302.379	3.13
302.835	3.12
303.291	3.12
303.746	3.12
304.202	3.12
304.658	3.13
305.113	3.13
305.569	3.13
306.024	3.13
306.479	3.13
306.935	3.13
307.39	3.13
307.845	3.13
308.301	3.13
308.756	3.14
309.211	3.14
309.666	3.14
310.121	3.14
310.576	3.15
311.031	3.15
311.486	3.16
311.94	3.17
312.395	3.17
312.85	3.17
313.305	3.17
313.759	3.17
314.214	3.18
314.668	3.17
315.123	3.17
315.577	3.18
316.032	3.17
316.486	3.17
316.94	3.16
317.394	3.16
317.849	3.16
318.303	3.15
318.757	3.14
319.211	3.14
319.665	3.12
320.119	3.11
320.572	3.09
321.026	3.09
321.48	3.07
321.934	3.06
322.387	3.05
322.841	3.05
323.295	3.04
323.748	3.03
324.202	3.02
324.655	3.03
325.108	3.03
325.562	3.03
326.015	3.03
326.468	3.04
326.921	3.04
327.374	3.04
327.827	3.04
328.28	3.03
328.733	3.04
329.186	3.05
329.639	3.05
330.092	3.05
330.545	3.06
330.997	3.07
331.45	3.07
331.903	3.07
332.355	3.09
332.808	3.1
333.26	3.11
333.713	3.1
334.165	3.1
334.617	3.11
335.069	3.11
335.522	3.12
335.974	3.12
336.426	3.12
336.878	3.12
337.33	3.11
337.782	3.1
338.234	3.11
338.686	3.12
339.137	3.14
339.589	3.13
340.041	3.12
340.493	3.11
340.944	3.1
341.396	3.09
341.847	3.09
342.299	3.08
342.75	3.06
343.201	3.05
343.653	3.04
344.104	3.02
344.555	3
345.006	2.99
345.457	2.99
345.908	2.99
346.359	3
346.81	3
347.261	3
347.712	2.99
348.163	2.99
348.613	2.99
349.064	2.99
349.515	3
349.965	3
350.416	2.99
350.866	2.99
351.317	2.98
351.767	2.98
352.217	2.98
352.668	2.98
353.118	2.99
353.568	2.99
354.018	2.99
354.468	3
354.918	3.01
355.368	3.02
355.818	3.03
356.268	3.04
356.718	3.04
357.168	3.05
357.617	3.05
358.067	3.06
358.517	3.09
358.966	3.1
359.416	3.1
359.865	3.11
360.315	3.12
360.764	3.14
361.213	3.15
361.663	3.16
362.112	3.19
362.561	3.21
363.01	3.22
363.459	3.21
363.908	3.23
364.357	3.25
364.806	3.26
365.255	3.29
365.703	3.32
366.152	3.36
366.601	3.39
367.05	3.41
367.498	3.44
367.947	3.48
368.395	3.52
368.844	3.56
369.292	3.6
369.74	3.65
370.189	3.69
370.637	3.72
371.085	3.74
371.533	3.79
371.981	3.84
372.429	3.89
372.877	3.93
373.325	3.97
373.773	4.02
374.221	4.08
374.669	4.12
375.116	4.17
375.564	4.22
376.012	4.28
376.459	4.33
376.907	4.39
377.354	4.45
377.801	4.52
378.249	4.58
378.696	4.64
379.143	4.69
379.591	4.75
380.038	4.81
380.485	4.87
380.932	4.93
381.379	4.99
381.826	5.04
382.273	5.1
382.72	5.15
383.166	5.21
383.613	5.26
384.06	5.3
384.506	5.36
384.953	5.41
385.4	5.45
385.846	5.51
386.292	5.56
386.739	5.6
387.185	5.65
387.631	5.7
388.078	5.75
388.524	5.8
388.97	5.85
389.416	5.89
389.862	5.94
390.308	5.99
390.754	6.03
391.2	6.08
391.645	6.12
392.091	6.15
392.537	6.2
392.983	6.22
393.428	6.27
393.874	6.29
394.319	6.31
394.765	6.32
395.21	6.32
395.655	6.34
396.101	6.35
396.546	6.36
396.991	6.37
397.436	6.38
397.881	6.4
398.326	6.42
398.771	6.43
399.216	6.45
399.661	6.48
400.106	6.5
400.551	6.5
400.995	6.48
401.44	6.48
401.885	6.48
402.329	6.48
402.774	6.46
403.218	6.46
403.663	6.47
404.107	6.45
404.551	6.45
404.995	6.43
405.44	6.41
405.884	6.42
406.328	6.41
406.772	6.4
407.216	6.4
407.66	6.4
408.104	6.39
408.547	6.37
408.991	6.37
409.435	6.35
409.879	6.34
410.322	6.35
410.766	6.35
411.209	6.34
411.653	6.34
412.096	6.33
412.54	6.33
412.983	6.33
413.426	6.35
413.869	6.35
414.312	6.37
414.756	6.38
415.199	6.38
415.642	6.38
416.085	6.39
416.527	6.38
416.97	6.38
417.413	6.36
417.856	6.35
418.298	6.33
418.741	6.33
419.184	6.32
419.626	6.32
420.069	6.31
420.511	6.3
420.953	6.29
421.396	6.29
421.838	6.28
422.28	6.29
422.722	6.31
423.164	6.31
423.606	6.3
424.048	6.3
424.49	6.3
424.932	6.28
425.374	6.27
425.816	6.24
426.258	6.21
426.699	6.17
427.141	6.15
427.582	6.13
428.024	6.13
428.465	6.13
428.907	6.11
429.348	6.09
429.789	6.1
430.231	6.1
430.672	6.12
431.113	6.14
431.554	6.17
431.995	6.19
432.436	6.19
432.877	6.2
433.318	6.19
433.759	6.21
434.2	6.24
434.64	6.24
435.081	6.25
435.522	6.26
435.962	6.28
436.403	6.31
436.843	6.32
437.284	6.33
437.724	6.33
438.164	6.34
438.604	6.37
439.045	6.38
439.485	6.39
439.925	6.41
440.365	6.44
440.805	6.45
441.245	6.47
441.685	6.51
442.125	6.54
442.564	6.58
443.004	6.61
443.444	6.61
443.883	6.64
444.323	6.67
444.762	6.71
445.202	6.72
445.641	6.77
446.081	6.8
446.52	6.81
446.959	6.86
447.398	6.89
447.837	6.93
448.276	6.97
448.716	7.01
449.154	7.05
449.593	7.09
450.032	7.13
450.471	7.15
450.91	7.17
451.349	7.2
451.787	7.19
452.226	7.19
452.664	7.21
453.103	7.2
453.541	7.21
453.98	7.2
454.418	7.18
454.856	7.18
455.295	7.16
455.733	7.14
456.171	7.13
456.609	7.13
457.047	7.13
457.485	7.11
457.923	7.11
458.361	7.09
458.798	7.08
459.236	7.08
459.674	7.06
460.111	7.06
460.549	7.07
460.987	7.08
461.424	7.08
461.862	7.08
462.299	7.09
462.736	7.1
463.173	7.11
463.611	7.11
464.048	7.12
464.485	7.14
464.922	7.15
465.359	7.15
465.796	7.15
466.233	7.15
466.67	7.14
467.106	7.16
467.543	7.15
467.98	7.15
468.416	7.16
468.853	7.16
469.29	7.15
469.726	7.15
470.162	7.17
470.599	7.17
471.035	7.18
471.471	7.19
471.907	7.19
472.344	7.2
472.78	7.22
473.216	7.23
473.652	7.24
474.088	7.23
474.523	7.25
474.959	7.25
475.395	7.25
475.831	7.25
476.266	7.26
476.702	7.25
477.138	7.25
477.573	7.26
478.008	7.27
478.444	7.26
478.879	7.27
479.314	7.27
479.75	7.27
480.185	7.26
480.62	7.26
481.055	7.25
481.49	7.25
481.925	7.25
482.36	7.24
482.795	7.24
483.229	7.25
483.664	7.26
484.099	7.27
484.534	7.28
484.968	7.29
485.403	7.31
485.837	7.33
486.271	7.36
486.706	7.38
487.14	7.42
487.574	7.45
488.009	7.48
488.443	7.51
488.877	7.56
489.311	7.61
489.745	7.66
490.179	7.71
490.613	7.77
491.046	7.82
491.48	7.88
491.914	7.95
492.348	8.02
492.781	8.1
493.215	8.18
493.648	8.25
494.082	8.33
494.515	8.41
494.948	8.5
495.382	8.59
495.815	8.69
496.248	8.79
496.681	8.89
497.114	8.99
497.547	9.1
497.98	9.21
498.413	9.33
498.846	9.44
499.279	9.56
499.711	9.68
500.144	9.82
500.577	9.96
501.009	10.09
501.442	10.24
501.874	10.4
502.306	10.54
502.739	10.71
503.171	10.87
503.603	11.04
504.036	11.22
504.468	11.39
504.9	11.56
505.332	11.74
505.764	11.94
506.196	12.13
506.627	12.32
507.059	12.53
507.491	12.72
507.923	12.93
508.354	13.15
508.786	13.36
509.217	13.58
509.649	13.82
510.08	14.04
510.512	14.26
510.943	14.49
511.374	14.72
511.805	14.97
512.237	15.21
512.668	15.46
513.099	15.69
513.53	15.94
513.961	16.17
514.391	16.41
514.822	16.66
515.253	16.91
515.684	17.17
516.114	17.42
516.545	17.65
516.975	17.9
517.406	18.13
517.836	18.37
518.267	18.62
518.697	18.85
519.127	19.08
519.558	19.3
519.988	19.52
520.418	19.73
520.848	19.93
521.278	20.12
521.708	20.43
522.138	20.63
522.567	20.81
522.997	20.98
523.427	21.17
523.857	21.34
524.286	21.5
524.716	21.68
525.145	21.84
525.575	22
526.004	22.17
526.433	22.2
526.863	22.35
527.292	22.5
527.721	22.62
528.15	22.75
528.579	22.87
529.008	23
529.437	23.1
529.866	23.21
530.295	23.32
530.724	23.43
531.152	23.52
531.581	23.6
532.01	23.69
532.438	23.78
532.867	23.85
533.295	23.92
533.723	23.98
534.152	24.04
534.58	24.11
535.008	24.14
535.436	24.19
535.865	24.23
536.293	24.27
536.721	24.3
537.149	24.32
537.576	24.35
538.004	24.39
538.432	24.42
538.86	24.44
539.287	24.44
539.715	24.49
540.143	24.5
540.57	24.52
540.998	24.53
541.425	24.56
541.852	24.59
542.28	24.62
542.707	24.64
543.134	24.66
543.561	24.7
543.988	24.74
544.415	24.75
544.842	24.76
545.269	24.8
545.696	24.81
546.123	24.84
546.549	24.86
546.976	24.88
547.403	24.9
547.829	24.91
548.256	24.92
548.682	24.94
549.108	24.96
549.535	25
549.961	25.02
550.387	25.04
550.813	25.06
551.24	25.09
551.666	25.1
552.092	25.11
552.518	25.11
552.943	25.13
553.369	25.13
553.795	25.13
554.221	25.12
554.646	25.08
555.072	25.07
555.498	25.04
555.923	25
556.349	24.96
556.774	24.94
557.199	24.9
557.625	24.85
558.05	24.81
558.475	24.76
558.9	24.71
559.325	24.67
559.75	24.61
560.175	24.56
560.6	24.5
561.025	24.44
561.449	24.37
561.874	24.3
562.299	24.23
562.723	24.13
563.148	24.04
563.572	23.95
563.997	23.85
564.421	23.74
564.846	23.63
565.27	23.53
565.694	23.44
566.118	23.32
566.542	23.21
566.966	23.08
567.39	22.98
567.814	22.86
568.238	22.74
568.662	22.64
569.086	22.52
569.509	22.41
569.933	22.29
570.357	22.16
570.78	22.05
571.204	21.94
571.627	21.83
572.05	21.71
572.474	21.62
572.897	21.54
573.32	21.43
573.743	21.33
574.166	21.24
574.589	21.15
575.012	21.06
575.435	20.98
575.858	20.9
576.281	20.82
576.704	20.76
577.126	20.68
577.549	20.58
577.972	20.51
578.394	20.43
578.817	20.37
579.239	20.3
579.661	20.24
580.084	20.18
580.506	20.14
580.928	20.07
581.35	20.02
581.772	19.96
582.194	19.91
582.616	19.86
583.038	19.81
583.46	19.76
583.882	19.71
584.303	19.66
584.725	19.6
585.147	19.53
585.568	19.49
585.99	19.43
586.411	19.39
586.833	19.34
587.254	19.29
587.675	19.25
588.096	19.21
588.518	19.16
588.939	19.13
589.36	19.08
589.781	19.06
590.202	19.02
590.623	18.98
591.043	18.95
591.464	18.92
591.885	18.87
592.305	18.85
592.726	18.83
593.147	18.8
593.567	18.78
593.987	18.75
594.408	18.72
594.828	18.69
595.248	18.67
595.669	18.64
596.089	18.62
596.509	18.6
596.929	18.55
597.349	18.52
597.769	18.5
598.189	18.45
598.608	18.42
599.028	18.38
599.448	18.34
599.867	18.31
600.287	18.26
600.706	18.23
601.126	18.19
601.545	18.16
601.965	18.13
602.384	18.08
602.803	18.03
603.222	17.98
603.641	17.92
604.061	17.88
604.48	17.83
604.898	17.79
605.317	17.74
605.736	17.68
606.155	17.62
606.574	17.55
606.992	17.48
607.411	17.43
607.829	17.34
608.248	17.28
608.666	17.21
609.085	17.13
609.503	17.06
609.921	16.99
610.339	16.93
610.758	16.88
611.176	16.8
611.594	16.74
612.012	16.66
612.43	16.61
612.847	16.56
613.265	16.48
613.683	16.41
614.101	16.35
614.518	16.28
614.936	16.21
615.353	16.12
615.771	16.06
616.188	16.02
616.606	15.97
617.023	15.93
617.44	15.88
617.857	15.84
618.274	15.8
618.691	15.75
619.108	15.71
619.525	15.67
619.942	15.65
620.359	15.61
620.776	15.57
621.192	15.54
621.609	15.51
622.026	15.48
622.442	15.45
622.859	15.43
623.275	15.42
623.691	15.4
624.108	15.39
624.524	15.37
624.94	15.36
625.356	15.36
625.772	15.34
626.188	15.33
626.604	15.31
627.02	15.3
627.436	15.28
627.852	15.27
628.268	15.26
628.683	15.25
629.099	15.24
629.514	15.23
629.93	15.2
630.345	15.18
630.761	15.14
631.176	15.12
631.591	15.08
632.007	15.06
632.422	15.01
632.837	14.95
633.252	14.9
633.667	14.84
634.082	14.78
634.497	14.72
634.911	14.65
635.326	14.58
635.741	14.49
636.155	14.42
636.57	14.34
636.984	14.24
637.399	14.14
637.813	14.03
638.228	13.91
638.642	13.79
639.056	13.66
639.47	13.54
639.884	13.43
640.298	13.3
640.712	13.17
641.126	13.05
641.54	12.93
641.954	12.81
642.368	12.69
642.781	12.57
643.195	12.47
643.609	12.35
644.022	12.25
644.436	12.14
644.849	12.03
645.262	11.94
645.676	11.84
646.089	11.76
646.502	11.68
646.915	11.6
647.328	11.53
647.741	11.46
648.154	11.39
648.567	11.32
648.98	11.26
649.393	11.2
649.805	11.15
650.218	11.11
650.631	11.05
651.043	11
651.456	10.95
651.868	10.9
652.28	10.85
652.693	10.8
653.105	10.75
653.517	10.69
653.929	10.63
654.341	10.56
654.753	10.48
655.165	10.41
655.577	10.33
655.989	10.25
656.401	10.16
656.813	10.06
657.224	9.96
657.636	9.85
658.047	9.76
658.459	9.66
658.87	9.55
659.282	9.45
659.693	9.34
660.104	9.22
660.515	9.11
660.926	8.99
661.338	8.89
661.749	8.78
662.159	8.67
662.57	8.57
662.981	8.46
663.392	8.35
663.803	8.26
664.213	8.16
664.624	8.07
665.035	7.98
665.445	7.91
665.855	7.85
666.266	7.78
666.676	7.73
667.086	7.66
667.497	7.61
667.907	7.57
668.317	7.53
668.727	7.48
669.137	7.45
669.547	7.43
669.956	7.4
670.366	7.37
670.776	7.34
671.186	7.31
671.595	7.3
672.005	7.28
672.414	7.27
672.824	7.26
673.233	7.27
673.642	7.26
674.052	7.25
674.461	7.25
674.87	7.26
675.279	7.28
675.688	7.3
676.097	7.33
676.506	7.36
676.915	7.39
677.323	7.43
677.732	7.47
678.141	7.51
678.549	7.58
678.958	7.64
679.366	7.73
679.775	7.81
680.183	7.91
680.592	8.02
681	8.15
681.408	8.29
681.816	8.44
682.224	8.61
682.632	8.8
683.04	9
683.448	9.22
683.856	9.44
684.264	9.7
684.671	9.98
685.079	10.27
685.487	10.58
685.894	10.92
686.302	11.27
686.709	11.64
687.116	12.02
687.524	12.41
687.931	12.83
688.338	13.28
688.745	13.72
689.152	14.16
689.559	14.64
689.966	15.11
690.373	15.58
690.78	16.06
691.187	16.55
691.593	17.03
692	17.53
692.407	18.01
692.813	18.49
693.22	18.96
693.626	19.45
694.032	19.92
694.439	20.38
694.845	20.85
695.251	21.3
695.657	21.74
696.063	22.19
696.469	22.63
696.875	23.06
697.281	23.49
697.687	23.91
698.093	24.31
698.498	24.7
698.904	25.11
699.31	25.47
699.715	25.83
700.12	26.21
700.526	26.56
700.931	26.91
701.337	27.23
701.742	27.55
702.147	27.88
702.552	28.22
702.957	28.51
703.362	28.79
703.767	29.05
704.172	29.32
704.577	29.58
704.981	29.85
705.386	30.09
705.791	30.37
706.195	30.62
706.6	30.86
707.004	31.06
707.408	31.29
707.813	31.53
708.217	31.77
708.621	32.02
709.025	32.24
709.43	32.44
709.834	32.67
710.237	32.87
710.641	33.06
711.045	33.24
711.449	33.44
711.853	33.65
712.256	33.83
712.66	33.99
713.064	34.16
713.467	34.33
713.87	34.49
714.274	34.61
714.677	34.76
715.08	34.93
715.484	35.09
715.887	35.25
716.29	35.39
716.693	35.55
717.096	35.7
717.499	35.82
717.901	35.94
718.304	36.08
718.707	36.23
719.109	36.36
719.512	36.45
719.915	36.58
720.317	36.67
720.719	36.76
721.122	36.83
721.524	36.96
721.926	37.09
722.328	37.2
722.731	37.3
723.133	37.41
723.535	37.5
723.937	37.62
724.338	37.7
724.74	37.8
725.142	37.95
725.544	38.04
725.945	38.13
726.347	38.17
726.748	38.24
727.15	38.3
727.551	38.37
727.952	38.44
728.354	38.51
728.755	38.56
729.156	38.59
729.557	38.6
729.958	38.66
730.359	38.67
730.76	38.75
731.161	38.81
731.562	38.86
731.962	38.88
732.363	38.93
732.763	38.96
733.164	39.02
733.564	39.07
733.965	39.11
734.365	39.15
734.766	39.2
735.166	39.23
735.566	39.25
735.966	39.29
736.366	39.32
736.766	39.33
737.166	39.34
737.566	39.36
737.966	39.38
738.365	39.41
738.765	39.41
739.165	39.41
739.564	39.44
739.964	39.46
740.363	39.45
740.763	39.46
741.162	39.49
741.561	39.5
741.96	39.49
742.36	39.49
742.759	39.49
743.158	39.5
743.557	39.51
743.955	39.53
744.354	39.54
744.753	39.58
745.152	39.62
745.55	39.64
745.949	39.67
746.348	39.72
746.746	39.75
747.144	39.78
747.543	39.82
747.941	39.83
748.339	39.83
748.737	39.83
749.136	39.81
749.534	39.8
749.932	39.81
750.33	39.82
750.727	39.82
751.125	39.83
751.523	39.83
751.921	39.82
752.318	39.84
752.716	39.86
753.113	39.88
753.511	39.87
753.908	39.87
754.305	39.86
754.703	39.83
755.1	39.81
755.497	39.78
755.894	39.74
756.291	39.73
756.688	39.68
757.085	39.68
757.482	39.67
757.878	39.67
758.275	39.64
758.672	39.64
759.068	39.66
759.465	39.63
759.861	39.6
760.258	39.64
760.654	39.65
761.05	39.66
761.447	39.64
761.843	39.6
762.239	39.62
762.635	39.63
763.031	39.62
763.427	39.62
763.822	39.65
764.218	39.68
764.614	39.66
765.01	39.66
765.405	39.64
765.801	39.62
766.196	39.66
766.592	39.63
766.987	39.61
767.382	39.61
767.778	39.61
768.173	39.59
768.568	39.57
768.963	39.56
769.358	39.56
769.753	39.57
770.148	39.57
770.542	39.58
770.937	39.59
771.332	39.59
771.726	39.61
772.121	39.59
772.515	39.59
772.91	39.61
773.304	39.61
773.699	39.62
774.093	39.61
774.487	39.63
774.881	39.63
775.275	39.62
775.669	39.61
776.063	39.58
776.457	39.59
776.851	39.58
777.245	39.57
777.638	39.58
778.032	39.58
778.425	39.6
778.819	39.59
779.212	39.59
779.606	39.62
779.999	39.63
780.392	39.65
780.786	39.66
781.179	39.67
781.572	39.69
781.965	39.71
782.358	39.7
782.751	39.69
783.143	39.7
783.536	39.67
783.929	39.66
784.322	39.68
784.714	39.7
785.107	39.72
785.499	39.72
785.891	39.69
786.284	39.68
786.676	39.68
787.068	39.69
787.46	39.69
787.852	39.72
788.245	39.73
788.636	39.73
789.028	39.74
789.42	39.72
789.812	39.73
790.204	39.76
790.595	39.76
790.987	39.77
791.378	39.78
791.77	39.81
792.161	39.82
792.553	39.83
792.944	39.83
793.335	39.83
793.726	39.86
794.117	39.85
794.508	39.81
794.899	39.81
795.29	39.85
795.681	39.81
796.072	39.8
796.463	39.81
796.853	39.81
797.244	39.84
797.634	39.87
798.025	39.88
798.415	39.89
798.806	39.93
799.196	39.94
799.586	39.93
799.976	39.98
800.366	39.97
800.756	39.99
801.146	39.99
801.536	39.98
801.926	39.96
802.316	39.96
802.706	39.98
803.095	39.98
803.485	40
803.874	40.01
804.264	40
804.653	40.03
805.043	40.03
805.432	40.04
805.821	40.06
806.21	40.08
806.599	40.07
806.988	40.08
807.377	40.09
807.766	40.11
808.155	40.09
808.544	40.1
808.933	40.08
809.321	40.08
809.71	40.08
810.098	40.07
810.487	40.05
810.875	40.07
811.264	40.09
811.652	40.09
812.04	40.08
812.428	40.11
812.816	40.1
813.204	40.12
813.592	40.11
813.98	40.11
814.368	40.1
814.756	40.11
815.144	40.11
815.531	40.08
815.919	40.07
816.306	40.08
816.694	40.08
817.081	40.09
817.469	40.09
817.856	40.1
818.243	40.07
818.63	40.07
819.017	40.07
819.404	40.06
819.791	40.09
820.178	40.09
820.565	40.07
820.952	40.06
821.339	40.07
821.725	40.08
822.112	40.09
822.498	40.14
822.885	40.18
823.271	40.19
823.657	40.17
824.044	40.16
824.43	40.17
824.816	40.18
825.202	40.16
825.588	40.12
825.974	40.1
826.36	40.08
826.746	40.04
827.132	40.01
827.517	40
827.903	40.04
828.289	40.03
828.674	40.02
829.06	39.99
829.445	40
829.83	40.03
830.216	40.02
830.601	40
830.986	39.99
831.371	39.98
831.756	39.97
832.141	39.95
832.526	39.95
832.911	39.93
833.295	39.9
833.68	39.88
834.065	39.85
834.449	39.84
834.834	39.83
835.218	39.83
835.603	39.82
835.987	39.81
836.371	39.78
836.755	39.76
837.139	39.75
837.524	39.77
837.908	39.77
838.291	39.78
838.675	39.78
839.059	39.8
839.443	39.78
839.827	39.78
840.21	39.76
840.594	39.77
840.977	39.76
841.361	39.77
841.744	39.73
842.127	39.71
842.511	39.7
842.894	39.68
843.277	39.66
843.66	39.65
844.043	39.65
844.426	39.65
844.809	39.62
845.191	39.63
845.574	39.63
845.957	39.67
846.339	39.67
846.722	39.66
847.104	39.68
847.487	39.67
847.869	39.67
848.252	39.66
848.634	39.67
849.016	39.68
849.398	39.68
849.78	39.67
850.162	39.64
850.544	39.63
850.926	39.63
851.307	39.64
851.689	39.63
852.071	39.65
852.452	39.67
852.834	39.68
853.215	39.69
853.597	39.69
853.978	39.7
854.359	39.71
854.741	39.71
855.122	39.71
855.503	39.69
855.884	39.7
856.265	39.69
856.646	39.67
857.026	39.66
857.407	39.66
857.788	39.64
858.169	39.64
858.549	39.64
858.93	39.65
859.31	39.67
859.69	39.68
860.071	39.69
860.451	39.69
860.831	39.7
861.211	39.68
861.591	39.65
861.971	39.65
862.351	39.65
862.731	39.66
863.111	39.64
863.491	39.63
863.87	39.61
864.25	39.61
864.629	39.59
865.009	39.6
865.388	39.6
865.768	39.61
866.147	39.61
866.526	39.61
866.905	39.59
867.284	39.59
867.663	39.6
868.042	39.61
868.421	39.62
868.8	39.63
869.179	39.62
869.558	39.61
869.936	39.6
870.315	39.61
870.693	39.61
871.072	39.63
871.45	39.65
871.828	39.64
872.207	39.66
872.585	39.64
872.963	39.65
873.341	39.66
873.719	39.66
874.097	39.67
874.475	39.67
874.853	39.67
875.23	39.67
875.608	39.67
875.986	39.67
876.363	39.66
876.741	39.68
877.118	39.68
877.495	39.68
877.873	39.71
878.25	39.71
878.627	39.74
879.004	39.75
879.381	39.77
879.758	39.75
880.135	39.76
880.512	39.75
880.889	39.75
881.265	39.73
881.642	39.73
882.019	39.72
882.395	39.72
882.772	39.69
883.148	39.66
883.524	39.63
883.901	39.64
884.277	39.61
884.653	39.59
885.029	39.58
885.405	39.58
885.781	39.56
886.157	39.57
886.532	39.56
886.908	39.52
887.284	39.51
887.659	39.49
888.035	39.46
888.411	39.47
888.786	39.45
889.161	39.45
889.537	39.43
889.912	39.41
890.287	39.37
890.662	39.35
891.037	39.36
891.412	39.34
891.787	39.33
892.162	39.34
892.536	39.32
892.911	39.32
893.286	39.32
893.66	39.29
894.035	39.29
894.409	39.29
894.784	39.28
895.158	39.28
895.532	39.29
895.906	39.29
896.281	39.26
896.655	39.25
897.029	39.26
897.402	39.25
897.776	39.26
898.15	39.28
898.524	39.29
898.898	39.3
899.271	39.3
899.645	39.31
900.018	39.33
900.392	39.35
900.765	39.35
901.138	39.35
901.511	39.36
901.884	39.37
902.258	39.38
902.631	39.41
903.003	39.4
903.376	39.4
903.749	39.42
904.122	39.41
904.495	39.44
904.867	39.46
905.24	39.48
905.612	39.51
905.985	39.52
906.357	39.49
906.729	39.48
907.102	39.49
907.474	39.53
907.846	39.5
908.218	39.51
908.59	39.51
908.962	39.52
909.334	39.53
909.705	39.5
910.077	39.51
910.449	39.53
910.82	39.53
911.192	39.53
911.563	39.5
911.935	39.51
912.306	39.53
912.677	39.54
913.048	39.53
913.419	39.49
913.79	39.49
914.161	39.5
914.532	39.48
914.903	39.49
915.274	39.49
915.645	39.53
916.015	39.54
916.386	39.54
916.756	39.53
917.127	39.53
917.497	39.56
917.868	39.57
918.238	39.59
918.608	39.63
918.978	39.63
919.348	39.64
919.718	39.61
920.088	39.61
920.458	39.62
920.828	39.6
921.198	39.57
921.567	39.6
921.937	39.61
922.306	39.59
922.676	39.58
923.045	39.55
923.415	39.54
923.784	39.57
924.153	39.57
924.522	39.57
924.891	39.57
925.26	39.61
925.629	39.61
925.998	39.59
926.367	39.58
926.736	39.58
927.104	39.58
927.473	39.56
927.842	39.51
928.21	39.48
928.578	39.47
928.947	39.5
929.315	39.47
929.683	39.44
930.051	39.44
930.42	39.44
930.788	39.41
931.156	39.4
931.523	39.42
931.891	39.45
932.259	39.47
932.627	39.45
932.994	39.42
933.362	39.4
933.729	39.43
934.097	39.41
934.464	39.43
934.831	39.43
935.199	39.42
935.566	39.41
935.933	39.33
936.3	39.28
936.667	39.28
937.034	39.28
937.401	39.3
937.767	39.28
938.134	39.29
938.501	39.27
938.867	39.32
939.234	39.38
939.6	39.41
939.967	39.53
940.333	39.6
940.699	39.66
941.065	39.68
941.431	39.73
941.798	39.77
942.163	39.78
942.529	39.78
942.895	39.81
943.261	39.82
943.627	39.8
943.992	39.8
944.358	39.82
944.723	39.8
945.089	39.74
945.454	39.71
945.82	39.7
946.185	39.71
946.55	39.71
946.915	39.69
947.28	39.64
947.645	39.7
948.01	39.68
948.375	39.68
948.74	39.65
949.104	39.7
949.469	39.72
949.834	39.7
950.198	39.69
950.562	39.65
950.927	39.59
951.291	39.51
951.655	39.44
952.02	39.45
952.384	39.38
952.748	39.4
953.112	39.36
953.476	39.31
953.839	39.22
954.203	39.21
954.567	39.18
954.931	39.18
955.294	39.16
955.658	39.2
956.021	39.15
956.385	39.09
956.748	39.07
957.111	39.04
957.474	39.01
957.837	38.99
958.2	38.95
958.563	38.91
958.926	38.9
959.289	38.96
959.652	38.85
960.015	38.88
960.377	38.9
960.74	38.85
961.102	38.87
961.465	38.92
961.827	38.97
962.189	39
962.552	39.03
962.914	39.03
963.276	39.04
963.638	39.05
964	38.98
964.362	38.98
964.724	38.98
965.085	38.97
965.447	38.92
965.809	38.89
966.17	38.88
966.532	38.89
966.893	38.85
967.255	38.82
967.616	38.86
967.977	38.9
968.338	38.84
968.699	38.87
969.061	38.88
969.421	38.87
969.782	38.88
970.143	38.83
970.504	38.85
970.865	38.89
971.225	38.87
971.586	38.82
971.946	38.81
972.307	38.86
972.667	38.79
973.027	38.79
973.388	38.84
973.748	38.88
974.108	38.93
974.468	38.86
974.828	38.91
975.188	38.91
975.548	38.91
975.907	38.94
976.267	38.92
976.627	39.04
976.986	38.99
977.346	38.97
977.705	38.96
978.064	38.92
978.424	38.99
978.783	38.9
979.142	38.92
979.501	38.92
979.86	38.94
980.219	38.96
980.578	38.95
980.937	39.01
981.296	38.99
981.654	38.94
982.013	38.99
982.371	38.99
982.73	39.06
983.088	39.04
983.447	39.11
983.805	39.13
984.163	39.15
984.521	39.14
984.879	39.11
985.237	39.13
985.595	39.2
985.953	39.14
986.311	39.11
986.669	39.14
987.026	39.16
987.384	39.18
987.741	39.16
988.099	39.16
988.456	39.14
988.814	39.17
989.171	39.12
989.528	39.11
989.885	39.17
990.242	39.15
990.599	39.17
990.956	39.23
991.313	39.2
991.67	39.2
992.027	39.32
992.383	39.44
992.74	39.51
993.096	39.58
993.453	39.64
993.809	39.72
994.165	39.79
994.522	39.84
994.878	39.84
995.234	39.89
995.59	39.92
995.946	39.89
996.302	39.91
996.658	39.97
997.013	40.07
997.369	40.14
997.725	40.13
998.08	40.2
998.436	40.19
998.791	40.21
999.147	40.21
999.502	40.22
999.857	40.26
1000.212	40.2
1000.567	40.08
1000.922	39.96
1001.277	39.9
1001.632	39.96
1001.987	39.98
1002.342	40.03
1002.696	40.02
1003.051	40.17
1003.406	40.21
1003.76	40.13
1004.114	40.12
1004.469	40.22
1004.823	40.55
1005.177	40.55
1005.531	40.63
1005.885	40.65
1006.239	40.54
1006.593	40.75
1006.947	40.65
1007.301	40.66
1007.655	40.66
1008.008	40.73
1008.362	40.93
1008.715	40.85
1009.069	40.99
1009.422	40.88
1009.776	40.9
1010.129	41.04
1010.482	41.01
1010.835	41.27
1011.188	41.44
1011.541	41.71
1011.894	41.78
1012.247	41.74
1012.6	41.8
1012.952	41.7
1013.305	41.79
1013.657	41.83
1014.01	41.9
1014.362	41.91
1014.715	41.76
1015.067	41.66
1015.419	41.69
1015.771	41.68
1016.123	41.62
1016.475	41.66
1016.827	41.94
1017.179	42.08
1017.531	42.1
1017.883	42.07
1018.234	42.21
1018.586	42.44
1018.938	42.65
1019.289	42.59
1019.64	42.73
1019.992	42.74
1020.343	42.81
1020.694	42.74
1021.045	42.95
1021.396	43.02
1021.747	43.23
1022.098	43.08
1022.449	43.1
1022.8	43.16
1023.151	43.24
1023.501	43.37
1023.852	43.52
1024.202	43.43
1024.553	43.44
1024.903	43.34
1025.253	43.63
1025.604	43.64
1025.954	43.69
1026.304	43.53
1026.654	43.49
1027.004	43.49
1027.354	43.46
1027.703	43.22
1028.053	43.39
1028.403	43.57
1028.753	43.51
1029.102	43.53
1029.452	43.59
1029.801	43.84
1030.15	43.93
1030.499	43.94
897.758	1189.28
901.051	1197.69
904.343	1191.28
907.636	1213.82
910.928	1179.82
914.22	1177.39
917.511	1155.34
920.803	1109.2
924.094	1106.18
927.384	1080.61
930.675	1037.3
933.965	1029.8
937.255	966.01
940.544	928.76
943.834	886.54
947.123	878.61
950.411	829.61
953.7	813.37
956.988	772.62
960.276	737.49
963.563	725.52
966.851	700.46
970.138	694.77
973.424	675.62
976.711	680.47
979.997	645.27
983.283	642.69
986.568	628.58
989.853	610.39
993.138	598.21
996.423	578.22
999.708	562.36
1002.992	555.32
1006.275	532.57
1009.559	527.23
1012.842	507.37
1016.125	493.62
1019.408	484.2
1022.69	479.32
1025.972	469.82
1029.254	458.1
1032.536	449.38
1035.817	440.93
1039.098	437.22
1042.379	426.96
1045.659	422.16
1048.939	412.17
1052.219	405.45
1055.498	400.53
1058.778	390.46
1062.057	380.98
1065.335	377.45
1068.614	373.18
1071.892	369.68
1075.17	357.03
1078.447	351.26
1081.724	349.29
1085.001	346.46
1088.278	340.08
1091.554	331.98
1094.83	333.27
1098.106	331.08
1101.382	328.3
1104.657	325.95
1107.932	320.55
1111.206	322.46
1114.481	315.22
1117.755	311.6
1121.029	308.96
1124.302	307.42
1127.575	303.64
1130.848	299.09
1134.121	296.26
1137.393	294.35
1140.665	289.14
1143.937	286.89
1147.208	285.04
1150.48	283.7
1153.75	279.39
1157.021	276.16
1160.291	275.78
1163.561	272.24
1166.831	272.52
1170.101	270.39
1173.37	269.49
1176.639	269.74
1179.907	267.88
1183.176	264.4
1186.444	264.42
1189.711	264.53
1192.979	263.82
1196.246	262.79
1199.513	263.45
1202.78	262.27
1206.046	262.07
1209.312	259.6
1212.578	259.76
1215.843	261.28
1219.108	260.89
1222.373	265.44
1225.638	267.19
1228.902	270.77
1232.166	270.41
1235.43	272.25
1238.693	275.52
1241.956	277.14
1245.219	282
1248.482	282.41
1251.744	282.46
1255.006	282.87
1258.268	276.67
1261.529	274.65
1264.79	272.97
1268.051	271.93
1271.312	268.69
1274.572	264.26
1277.832	262.6
1281.092	258.09
1284.351	256.03
1287.61	256.35
1290.869	251.45
1294.128	249.93
1297.386	250.39
1300.644	246.95
1303.902	248.26
1307.159	247.95
1310.416	248.46
1313.673	247.53
1316.93	249.93
1320.186	249.36
1323.442	249.87
1326.697	254.53
1329.953	256.06
1333.208	255.94
1336.463	259.94
1339.717	259.54
1342.972	261.62
1346.226	264.36
1349.479	264.87
1352.733	266.28
1355.986	267.75
1359.238	267.22
1362.491	268.39
1365.743	269.77
1368.995	270.54
1372.247	267.41
1375.498	267.9
1378.749	269.45
1382	265.51
1385.251	266.93
1388.501	264.98
1391.751	265.34
1395	263.68
1398.25	261.68
1401.499	259.73
1404.748	258.48
1407.996	256.91
1411.244	255.3
1414.492	253.62
1417.74	250.96
1420.987	246.17
1424.234	245.44
1427.481	242.26
1430.728	242.28
1433.974	239.59
1437.22	237.5
1440.465	236.74
1443.711	234.93
1446.956	233.39
1450.201	229.95
1453.445	228.34
1456.689	227.57
1459.933	223.78
1463.177	221.81
1466.42	218.47
1469.663	216.27
1472.906	214.4
1476.148	209.31
1479.391	207.18
1482.633	205.43
1485.874	202.85
1489.115	201.37
1492.356	199.01
1495.597	199.11
1498.838	195.78
1502.078	194.63
1505.318	193.78
1508.557	194.14
1511.797	194.06
1515.036	192.32
1518.274	191.98
1521.513	190.44
1524.751	190.49
1527.989	190.09
1531.227	188.73
1534.464	189.81
1537.701	189.29
1540.938	188.79
1544.174	186.24
1547.41	186.32
1550.646	185.76
1553.882	185.47
1557.117	183.96
1560.352	182.53
1563.587	182.65
1566.821	181.6
1570.055	180.5
1573.289	178.73
1576.523	178.19
1579.756	177.22
1582.989	176.01
1586.222	176.37
1589.454	175.43
1592.686	176.05
1595.918	175.45
1599.15	174.46
1602.381	175.59
1605.612	174.81
1608.843	175.23
1612.073	175.38
1615.303	176.53
1618.533	176.88
1621.762	176.27
1624.992	176.85
1628.221	177.09
1631.449	177
1634.678	177.07
1637.906	177.17
1641.134	177.33
1644.361	177.12
1647.588	177.82
1650.815	177.05
1654.042	176.69
1657.269	177.74
1660.495	177.46
1663.72	177.33
1666.946	178
1670.171	178.37
1673.396	177.77
1676.621	178.5
1679.845	178.79
1683.069	179.16
1686.293	179.95
1689.517	180.66
1692.74	180.36
1695.963	181.02
1699.185	182.42
1702.408	182.3
1705.63	183.11
1708.852	183.44
1712.073	183.74
1715.294	184.18
1718.515	184.81
1721.736	184.5
1724.956	185.41
1728.176	185.52
1731.396	186.95
1734.616	186.05
1737.835	187.04
1741.054	185.37
1744.272	186.48
1747.491	187.65
1750.709	187.96
1753.927	187.73
1757.144	187.51
1760.361	187.49
1763.578	187.8
1766.795	187.03
1770.011	189.11
1773.227	188.62
1776.443	190.94
1779.658	191.16
1782.874	190.47
1786.089	190.92
1789.303	191.48
1792.518	193.75
1795.732	193.12
1798.945	195.18
1802.159	195.34
1805.372	194.64
1808.585	198.36
1811.797	198.85
1815.01	199.9
1818.222	201.58
1821.434	204.04
1824.645	204.09
1827.856	207.22
1831.067	209.57
1834.278	209.06
1837.488	210.49
1840.698	211.95
1843.908	209.89
1847.117	210.83
1850.326	212.1
1853.535	211
1856.744	212.83
1859.952	213.1
1863.16	211.29
1866.368	209.51
1869.575	210.93
1872.782	207.34
1875.989	206.9
1879.196	206.14
1882.402	204.43
1885.608	204.03
1888.814	203.95
1892.019	202.43
1895.224	201.67
1898.429	201.89
1901.634	202.53
1904.838	202.52
1908.042	205.05
1911.246	205.4
1914.449	206.32
1917.652	207.16
1920.855	206.82
1924.058	206.92
1927.26	206.48
1930.462	207.37
1933.664	207.99
1936.865	207.03
1940.066	206.51
1943.267	205.49
1946.467	205.79
1949.668	206.72
1952.868	208.68
1956.067	209.47
1959.267	209
1962.466	209.91
1965.665	208.77
1968.863	209.87
1972.061	212.8
1975.259	214.76
1978.457	215.86
1981.654	216.91
1984.852	217.39
1988.048	216.63
1991.245	218.83
1994.441	221.38
1997.637	223.91
2000.833	227.7
2004.028	230.8
2007.223	231.89
2010.418	234.45
2013.613	239.83
2016.807	242.7
2020.001	245.36
2023.194	249.12
2026.388	254.95
2029.581	261.09
2032.774	262.3
2035.966	268.12
2039.158	268.44
2042.35	273.55
2045.542	275.2
2048.733	279.57
2051.924	282.56
2055.115	286.62
2058.306	287.4
2061.496	288.39
2064.686	290.6
2067.875	295.78
2071.065	297.27
2074.254	294.97
2077.442	299.75
2080.631	300.98
2083.819	302.93
2087.007	303.98
2090.195	307.2
2093.382	310.43
2096.569	309.35
2099.756	312.4
2102.942	313.1
2106.128	315.06
2109.314	324.76
2112.5	322.41
2115.685	328.97
2118.87	329.31
2122.055	337.1
2125.239	339.61
2128.424	343.07
2131.608	345.34
2134.791	351.04
2137.974	353.56
2141.157	354.29
2144.34	353.59
2147.523	360.87
2150.705	358.67
2153.887	361.45
2157.068	361.13
2160.25	358.94
2163.431	361.36
2166.611	366.88
2169.792	371.58
2172.972	375.76
2176.152	379.15
2179.331	383.51
2182.511	387.73
2185.69	392.59
2188.868	400.83
2192.047	402.02
2195.225	413.16
2198.403	422.27
2201.58	429.61
2204.758	439.1
2207.935	445.98
2211.111	455.52
2214.288	459.9
2217.464	461.84
2220.64	468.7
2223.815	475.4
2226.991	494.84
2230.166	495.91
2233.34	504.04
2236.515	511.07
2239.689	512.34
2242.863	515.53
2246.036	527.81
2249.209	525.22
2252.382	534.65
2255.555	549.79
2258.727	552.25
2261.9	554.61
2265.071	559.96
2268.243	569.74
2271.414	578.44
2274.585	589.02
2277.756	594.91
2280.926	599.69
2284.096	613
2287.266	625.99
2290.436	631.55
2293.605	644.89
2296.774	665.16
2299.942	684.77
2303.111	689.49
2306.279	702.45
2309.447	711.9
2312.614	730.24
2315.781	751.53
2318.948	788.55
2322.115	774.93
2325.281	818.91
2328.447	803.08
2331.613	835.28
2334.779	828.12
2337.944	859.91
2341.109	867.73
2344.274	892.01
2347.438	924.78
2350.602	923.07
2353.766	951.74
2356.929	967.9
2360.092	958.62
2363.255	1028.33
2366.418	1023.92
2369.58	1043.91
2372.742	1112.37
2375.904	1142.75
2379.066	1136.45
2382.227	1116.86
2385.388	1209.38
2388.548	1206.99
2391.709	1223.59
2394.869	1365.19
2398.029	1306.32
2401.188	1344.58
2404.347	1336.74
2407.506	1308.81
2410.665	1347.21
2413.823	1429.38
2416.981	1510.33
2420.139	1467.05
2423.296	1447.78
2426.453	1516.87
2429.61	1452.6
2432.767	1517.97
2435.923	1501.77
2439.079	1647.26
2442.235	1675.6
2445.391	1658.47
2448.546	1642.16
2451.701	1596.46
2454.855	1590.59
2458.009	1698.16
2461.163	1756.22
2464.317	1830.83
2467.471	1876.98
2470.624	1878.3
2473.777	1825.03
2476.929	1773.86
2480.082	1723.23
2483.234	1707.53
2486.385	1792.77
2489.537	1800.45
2492.688	1863.28
2495.839	1812.08
2498.989	1767.66
2502.14	1771.78
2505.29	1789.29
2508.439	1813.45
2511.589	1815.6
2514.738	1978.75
2517.887	1936.34
2521.035	2049.31
2524.183	2062.52
2527.331	2073.58
2530.479	2063.44
2533.627	2080.79
