Data from N_3_DIV_IL_4N_Splice17_14-16-16-217.txt Node
Date: Sat Mar 07 14:16:16 EST 2020
User: sa697716
Spectrometer: NQ5500242
Trigger mode: 0
Integration Time (sec): 1.450000E-1
Scans to average: 20
Nonlinearity correction enabled: false
Boxcar width: 5
Storing dark spectrum: false
XAxis mode: Wavelengths
Number of Pixels in Spectrum: 512
>>>>>Begin Spectral Data<<<<<
187.83	147.32
188.298	162.18
188.766	141.03
189.233	127.42
189.701	133.56
190.169	150.98
190.636	153.72
191.104	188.17
191.571	-54.67
192.039	-209.52
192.506	-689.75
192.974	204.66
193.441	230.63
193.908	75.45
194.375	65.17
194.842	56.07
195.31	66.96
195.777	-173.65
196.244	42.71
196.711	64.01
197.177	68.04
197.644	69.09
198.111	70.2
198.578	70.72
199.045	71.35
199.511	71.39
199.978	71.5
200.445	71.83
200.911	72.36
201.378	72.8
201.844	72.62
202.31	72.43
202.777	72.47
203.243	72.39
203.709	72.21
204.176	71.82
204.642	71.38
205.108	70.98
205.574	70.3
206.04	69.48
206.506	68.57
206.972	68.24
207.438	67.41
207.903	66.61
208.369	65.2
208.835	64.03
209.301	62.53
209.766	60.97
210.232	59.44
210.697	58.08
211.163	56.74
211.628	55.78
212.094	54.38
212.559	53.14
213.024	51.84
213.49	50.74
213.955	49.61
214.42	48.62
214.885	47.4
215.35	45.73
215.815	43.45
216.28	40.83
216.745	37.78
217.21	34.87
217.675	32.16
218.14	29.74
218.604	27.65
219.069	25.79
219.534	24.3
219.998	23.03
220.463	22
220.927	21.11
221.392	20.34
221.856	19.67
222.32	19.1
222.785	18.6
223.249	18.14
223.713	17.72
224.177	17.39
224.642	17.03
225.106	16.7
225.57	16.36
226.034	16.06
226.497	15.79
226.961	15.52
227.425	15.28
227.889	15.02
228.353	14.8
228.816	14.57
229.28	14.33
229.744	14.11
230.207	13.9
230.671	13.69
231.134	13.5
231.597	13.33
232.061	13.16
232.524	12.98
232.987	12.81
233.45	12.66
233.914	12.5
234.377	12.35
234.84	12.21
235.303	12.08
235.766	11.97
236.229	11.83
236.691	11.7
237.154	11.57
237.617	11.45
238.08	11.34
238.542	11.22
239.005	11.13
239.468	11.02
239.93	10.93
240.393	10.83
240.855	10.71
241.317	10.61
241.78	10.51
242.242	10.4
242.704	10.31
243.166	10.21
243.629	10.12
244.091	10
244.553	9.91
245.015	9.8
245.477	9.71
245.939	9.62
246.4	9.53
246.862	9.45
247.324	9.38
247.786	9.3
248.247	9.23
248.709	9.15
249.17	9.07
249.632	9.02
250.093	8.95
250.555	8.88
251.016	8.82
251.477	8.76
251.939	8.7
252.4	8.65
252.861	8.59
253.322	8.53
253.783	8.48
254.244	8.43
254.705	8.37
255.166	8.32
255.627	8.26
256.088	8.21
256.549	8.16
257.009	8.11
257.47	8.06
257.931	8
258.391	7.94
258.852	7.88
259.312	7.84
259.773	7.79
260.233	7.74
260.694	7.7
261.154	7.65
261.614	7.6
262.074	7.55
262.534	7.51
262.994	7.47
263.455	7.43
263.915	7.4
264.374	7.37
264.834	7.34
265.294	7.3
265.754	7.28
266.214	7.25
266.673	7.23
267.133	7.21
267.593	7.18
268.052	7.15
268.512	7.14
268.971	7.13
269.431	7.11
269.89	7.09
270.349	7.08
270.809	7.05
271.268	7.03
271.727	7.01
272.186	7
272.645	6.99
273.104	6.97
273.563	6.95
274.022	6.93
274.481	6.92
274.94	6.91
275.399	6.89
275.857	6.88
276.316	6.86
276.775	6.85
277.233	6.83
277.692	6.82
278.15	6.81
278.609	6.79
279.067	6.77
279.525	6.75
279.984	6.72
280.442	6.7
280.9	6.69
281.358	6.67
281.816	6.66
282.274	6.64
282.732	6.62
283.19	6.61
283.648	6.59
284.106	6.59
284.564	6.58
285.021	6.58
285.479	6.56
285.937	6.55
286.394	6.54
286.852	6.51
287.309	6.49
287.767	6.48
288.224	6.45
288.682	6.43
289.139	6.4
289.596	6.37
290.053	6.34
290.511	6.31
290.968	6.29
291.425	6.26
291.882	6.24
292.339	6.21
292.796	6.18
293.252	6.16
293.709	6.14
294.166	6.12
294.623	6.1
295.079	6.09
295.536	6.07
295.992	6.05
296.449	6.04
296.905	6.02
297.362	6.01
297.818	6
298.274	5.99
298.731	5.97
299.187	5.95
299.643	5.94
300.099	5.93
300.555	5.92
301.011	5.91
301.467	5.89
301.923	5.87
302.379	5.87
302.835	5.86
303.291	5.85
303.746	5.84
304.202	5.84
304.658	5.83
305.113	5.82
305.569	5.81
306.024	5.81
306.479	5.79
306.935	5.79
307.39	5.79
307.845	5.78
308.301	5.78
308.756	5.78
309.211	5.77
309.666	5.78
310.121	5.77
310.576	5.77
311.031	5.76
311.486	5.77
311.94	5.77
312.395	5.77
312.85	5.76
313.305	5.76
313.759	5.75
314.214	5.74
314.668	5.73
315.123	5.72
315.577	5.71
316.032	5.7
316.486	5.69
316.94	5.67
317.394	5.66
317.849	5.63
318.303	5.62
318.757	5.6
319.211	5.58
319.665	5.57
320.119	5.55
320.572	5.54
321.026	5.53
321.48	5.51
321.934	5.49
322.387	5.48
322.841	5.47
323.295	5.46
323.748	5.45
324.202	5.43
324.655	5.42
325.108	5.42
325.562	5.41
326.015	5.41
326.468	5.4
326.921	5.4
327.374	5.4
327.827	5.4
328.28	5.39
328.733	5.39
329.186	5.39
329.639	5.39
330.092	5.38
330.545	5.38
330.997	5.37
331.45	5.38
331.903	5.38
332.355	5.39
332.808	5.38
333.26	5.39
333.713	5.39
334.165	5.39
334.617	5.4
335.069	5.4
335.522	5.4
335.974	5.4
336.426	5.39
336.878	5.39
337.33	5.38
337.782	5.38
338.234	5.37
338.686	5.37
339.137	5.38
339.589	5.36
340.041	5.34
340.493	5.33
340.944	5.32
341.396	5.3
341.847	5.28
342.299	5.26
342.75	5.24
343.201	5.22
343.653	5.2
344.104	5.18
344.555	5.16
345.006	5.15
345.457	5.13
345.908	5.12
346.359	5.12
346.81	5.11
347.261	5.1
347.712	5.09
348.163	5.08
348.613	5.07
349.064	5.07
349.515	5.06
349.965	5.06
350.416	5.06
350.866	5.06
351.317	5.05
351.767	5.05
352.217	5.06
352.668	5.06
353.118	5.07
353.568	5.06
354.018	5.06
354.468	5.07
354.918	5.07
355.368	5.07
355.818	5.08
356.268	5.08
356.718	5.08
357.168	5.07
357.617	5.07
358.067	5.07
358.517	5.09
358.966	5.1
359.416	5.11
359.865	5.12
360.315	5.13
360.764	5.13
361.213	5.13
361.663	5.14
362.112	5.16
362.561	5.17
363.01	5.17
363.459	5.16
363.908	5.17
364.357	5.18
364.806	5.18
365.255	5.2
365.703	5.22
366.152	5.23
366.601	5.25
367.05	5.27
367.498	5.29
367.947	5.32
368.395	5.35
368.844	5.38
369.292	5.41
369.74	5.44
370.189	5.47
370.637	5.49
371.085	5.52
371.533	5.55
371.981	5.58
372.429	5.61
372.877	5.65
373.325	5.68
373.773	5.72
374.221	5.76
374.669	5.79
375.116	5.84
375.564	5.88
376.012	5.91
376.459	5.95
376.907	6
377.354	6.05
377.801	6.09
378.249	6.14
378.696	6.17
379.143	6.22
379.591	6.27
380.038	6.32
380.485	6.37
380.932	6.44
381.379	6.49
381.826	6.54
382.273	6.59
382.72	6.63
383.166	6.67
383.613	6.71
384.06	6.74
384.506	6.78
384.953	6.82
385.4	6.86
385.846	6.9
386.292	6.93
386.739	6.97
387.185	7.01
387.631	7.06
388.078	7.1
388.524	7.14
388.97	7.18
389.416	7.21
389.862	7.25
390.308	7.29
390.754	7.32
391.2	7.36
391.645	7.39
392.091	7.44
392.537	7.46
392.983	7.5
393.428	7.53
393.874	7.57
394.319	7.6
394.765	7.6
395.21	7.62
395.655	7.63
396.101	7.65
396.546	7.66
396.991	7.67
397.436	7.67
397.881	7.69
398.326	7.7
398.771	7.71
399.216	7.73
399.661	7.75
400.106	7.75
400.551	7.75
400.995	7.73
401.44	7.72
401.885	7.71
402.329	7.71
402.774	7.7
403.218	7.7
403.663	7.7
404.107	7.7
404.551	7.71
404.995	7.72
405.44	7.72
405.884	7.72
406.328	7.73
406.772	7.73
407.216	7.74
407.66	7.73
408.104	7.72
408.547	7.71
408.991	7.71
409.435	7.69
409.879	7.68
410.322	7.68
410.766	7.69
411.209	7.69
411.653	7.69
412.096	7.7
412.54	7.7
412.983	7.71
413.426	7.73
413.869	7.74
414.312	7.76
414.756	7.78
415.199	7.79
415.642	7.8
416.085	7.79
416.527	7.78
416.97	7.75
417.413	7.74
417.856	7.73
418.298	7.71
418.741	7.7
419.184	7.67
419.626	7.65
420.069	7.65
420.511	7.64
420.953	7.64
421.396	7.64
421.838	7.65
422.28	7.65
422.722	7.66
423.164	7.66
423.606	7.65
424.048	7.66
424.49	7.66
424.932	7.64
425.374	7.63
425.816	7.6
426.258	7.58
426.699	7.55
427.141	7.52
427.582	7.51
428.024	7.51
428.465	7.51
428.907	7.52
429.348	7.49
429.789	7.48
430.231	7.48
430.672	7.5
431.113	7.51
431.554	7.53
431.995	7.57
432.436	7.58
432.877	7.57
433.318	7.58
433.759	7.57
434.2	7.61
434.64	7.62
435.081	7.63
435.522	7.64
435.962	7.66
436.403	7.68
436.843	7.69
437.284	7.71
437.724	7.72
438.164	7.71
438.604	7.72
439.045	7.72
439.485	7.73
439.925	7.73
440.365	7.73
440.805	7.74
441.245	7.75
441.685	7.76
442.125	7.77
442.564	7.79
443.004	7.8
443.444	7.82
443.883	7.85
444.323	7.86
444.762	7.89
445.202	7.91
445.641	7.93
446.081	7.95
446.52	7.95
446.959	7.97
447.398	8
447.837	8.04
448.276	8.05
448.716	8.07
449.154	8.1
449.593	8.12
450.032	8.14
450.471	8.15
450.91	8.13
451.349	8.13
451.787	8.12
452.226	8.11
452.664	8.1
453.103	8.08
453.541	8.06
453.98	8.05
454.418	8.01
454.856	7.98
455.295	7.96
455.733	7.94
456.171	7.93
456.609	7.91
457.047	7.87
457.485	7.85
457.923	7.84
458.361	7.81
458.798	7.81
459.236	7.79
459.674	7.79
460.111	7.77
460.549	7.76
460.987	7.76
461.424	7.76
461.862	7.77
462.299	7.76
462.736	7.75
463.173	7.76
463.611	7.75
464.048	7.75
464.485	7.75
464.922	7.76
465.359	7.78
465.796	7.77
466.233	7.76
466.67	7.76
467.106	7.76
467.543	7.77
467.98	7.77
468.416	7.77
468.853	7.78
469.29	7.77
469.726	7.78
470.162	7.79
470.599	7.8
471.035	7.79
471.471	7.79
471.907	7.78
472.344	7.78
472.78	7.78
473.216	7.77
473.652	7.76
474.088	7.75
474.523	7.74
474.959	7.73
475.395	7.71
475.831	7.71
476.266	7.71
476.702	7.71
477.138	7.7
477.573	7.69
478.008	7.7
478.444	7.7
478.879	7.72
479.314	7.7
479.75	7.7
480.185	7.69
480.62	7.69
481.055	7.68
481.49	7.67
481.925	7.67
482.36	7.66
482.795	7.64
483.229	7.63
483.664	7.63
484.099	7.61
484.534	7.6
484.968	7.62
485.403	7.63
485.837	7.64
486.271	7.65
486.706	7.66
487.14	7.67
487.574	7.68
488.009	7.7
488.443	7.72
488.877	7.76
489.311	7.79
489.745	7.81
490.179	7.84
490.613	7.87
491.046	7.9
491.48	7.93
491.914	7.98
492.348	8.03
492.781	8.08
493.215	8.13
493.648	8.18
494.082	8.25
494.515	8.3
494.948	8.35
495.382	8.42
495.815	8.5
496.248	8.56
496.681	8.64
497.114	8.71
497.547	8.79
497.98	8.88
498.413	8.97
498.846	9.06
499.279	9.15
499.711	9.26
500.144	9.38
500.577	9.48
501.009	9.61
501.442	9.73
501.874	9.86
502.306	10
502.739	10.14
503.171	10.29
503.603	10.45
504.036	10.62
504.468	10.78
504.9	10.94
505.332	11.12
505.764	11.29
506.196	11.47
506.627	11.66
507.059	11.86
507.491	12.06
507.923	12.26
508.354	12.49
508.786	12.72
509.217	12.95
509.649	13.18
510.08	13.44
510.512	13.69
510.943	13.96
511.374	14.22
511.805	14.49
512.237	14.76
512.668	15.04
513.099	15.32
513.53	15.58
513.961	15.87
514.391	16.16
514.822	16.46
515.253	16.76
515.684	17.06
516.114	17.36
516.545	17.66
516.975	17.97
517.406	18.29
517.836	18.59
518.267	18.92
518.697	19.22
519.127	19.52
519.558	19.82
519.988	20.12
520.418	20.41
520.848	20.71
521.278	20.98
521.708	21.37
522.138	21.63
522.567	21.9
522.997	22.15
523.427	22.41
523.857	22.66
524.286	22.89
524.716	23.13
525.145	23.37
525.575	23.59
526.004	23.81
526.433	23.93
526.863	24.13
527.292	24.33
527.721	24.53
528.15	24.71
528.579	24.89
529.008	25.06
529.437	25.23
529.866	25.37
530.295	25.52
530.724	25.66
531.152	25.78
531.581	25.91
532.01	26.02
532.438	26.14
532.867	26.23
533.295	26.34
533.723	26.42
534.152	26.5
534.58	26.6
535.008	26.65
535.436	26.72
535.865	26.8
536.293	26.85
536.721	26.92
537.149	26.97
537.576	27.02
538.004	27.08
538.432	27.12
538.86	27.16
539.287	27.17
539.715	27.23
540.143	27.27
540.57	27.29
540.998	27.33
541.425	27.34
541.852	27.37
542.28	27.41
542.707	27.44
543.134	27.48
543.561	27.53
543.988	27.56
544.415	27.59
544.842	27.61
545.269	27.64
545.696	27.68
546.123	27.72
546.549	27.75
546.976	27.78
547.403	27.8
547.829	27.83
548.256	27.85
548.682	27.88
549.108	27.92
549.535	27.96
549.961	27.98
550.387	27.99
550.813	28
551.24	28
551.666	28
552.092	28.01
552.518	28
552.943	27.98
553.369	27.96
553.795	27.93
554.221	27.89
554.646	27.85
555.072	27.83
555.498	27.79
555.923	27.74
556.349	27.69
556.774	27.62
557.199	27.57
557.625	27.51
558.05	27.45
558.475	27.38
558.9	27.31
559.325	27.23
559.75	27.13
560.175	27.06
560.6	26.96
561.025	26.86
561.449	26.74
561.874	26.62
562.299	26.5
562.723	26.38
563.148	26.24
563.572	26.1
563.997	25.95
564.421	25.8
564.846	25.63
565.27	25.49
565.694	25.34
566.118	25.2
566.542	25.04
566.966	24.86
567.39	24.69
567.814	24.53
568.238	24.36
568.662	24.18
569.086	24.02
569.509	23.87
569.933	23.7
570.357	23.54
570.78	23.37
571.204	23.2
571.627	23.05
572.05	22.9
572.474	22.76
572.897	22.63
573.32	22.49
573.743	22.36
574.166	22.22
574.589	22.09
575.012	21.97
575.435	21.88
575.858	21.79
576.281	21.69
576.704	21.6
577.126	21.49
577.549	21.39
577.972	21.29
578.394	21.18
578.817	21.08
579.239	20.99
579.661	20.9
580.084	20.8
580.506	20.7
580.928	20.6
581.35	20.52
581.772	20.42
582.194	20.35
582.616	20.29
583.038	20.23
583.46	20.15
583.882	20.07
584.303	19.97
584.725	19.91
585.147	19.83
585.568	19.77
585.99	19.69
586.411	19.63
586.833	19.57
587.254	19.51
587.675	19.44
588.096	19.4
588.518	19.34
588.939	19.31
589.36	19.26
589.781	19.21
590.202	19.17
590.623	19.13
591.043	19.09
591.464	19.06
591.885	19.01
592.305	18.97
592.726	18.94
593.147	18.91
593.567	18.87
593.987	18.82
594.408	18.79
594.828	18.75
595.248	18.71
595.669	18.68
596.089	18.64
596.509	18.61
596.929	18.56
597.349	18.52
597.769	18.48
598.189	18.44
598.608	18.42
599.028	18.38
599.448	18.33
599.867	18.29
600.287	18.23
600.706	18.19
601.126	18.13
601.545	18.09
601.965	18.04
602.384	17.98
602.803	17.93
603.222	17.86
603.641	17.79
604.061	17.74
604.48	17.66
604.898	17.58
605.317	17.51
605.736	17.44
606.155	17.37
606.574	17.28
606.992	17.22
607.411	17.14
607.829	17.03
608.248	16.95
608.666	16.86
609.085	16.79
609.503	16.71
609.921	16.63
610.339	16.55
610.758	16.47
611.176	16.39
611.594	16.31
612.012	16.23
612.43	16.17
612.847	16.09
613.265	16.02
613.683	15.94
614.101	15.87
614.518	15.79
614.936	15.73
615.353	15.65
615.771	15.59
616.188	15.53
616.606	15.47
617.023	15.41
617.44	15.37
617.857	15.32
618.274	15.27
618.691	15.22
619.108	15.16
619.525	15.12
619.942	15.08
620.359	15.04
620.776	15
621.192	14.97
621.609	14.94
622.026	14.9
622.442	14.87
622.859	14.84
623.275	14.82
623.691	14.81
624.108	14.8
624.524	14.78
624.94	14.76
625.356	14.74
625.772	14.73
626.188	14.71
626.604	14.69
627.02	14.67
627.436	14.67
627.852	14.65
628.268	14.64
628.683	14.61
629.099	14.59
629.514	14.57
629.93	14.54
630.345	14.52
630.761	14.48
631.176	14.46
631.591	14.42
632.007	14.37
632.422	14.32
632.837	14.27
633.252	14.21
633.667	14.14
634.082	14.05
634.497	13.98
634.911	13.89
635.326	13.8
635.741	13.71
636.155	13.62
636.57	13.52
636.984	13.41
637.399	13.29
637.813	13.16
638.228	13.04
638.642	12.91
639.056	12.79
639.47	12.67
639.884	12.55
640.298	12.41
640.712	12.27
641.126	12.14
641.54	12.01
641.954	11.88
642.368	11.77
642.781	11.64
643.195	11.54
643.609	11.41
644.022	11.3
644.436	11.18
644.849	11.09
645.262	11
645.676	10.91
646.089	10.84
646.502	10.76
646.915	10.69
647.328	10.64
647.741	10.57
648.154	10.52
648.567	10.46
648.98	10.4
649.393	10.36
649.805	10.31
650.218	10.28
650.631	10.24
651.043	10.2
651.456	10.17
651.868	10.12
652.28	10.08
652.693	10.05
653.105	10.02
653.517	9.98
653.929	9.93
654.341	9.87
654.753	9.8
655.165	9.74
655.577	9.68
655.989	9.6
656.401	9.54
656.813	9.46
657.224	9.38
657.636	9.29
658.047	9.21
658.459	9.12
658.87	9.04
659.282	8.96
659.693	8.88
660.104	8.78
660.515	8.7
660.926	8.62
661.338	8.53
661.749	8.46
662.159	8.39
662.57	8.33
662.981	8.27
663.392	8.2
663.803	8.14
664.213	8.08
664.624	8.03
665.035	7.97
665.445	7.93
665.855	7.9
666.266	7.87
666.676	7.84
667.086	7.8
667.497	7.77
667.907	7.76
668.317	7.75
668.727	7.73
669.137	7.72
669.547	7.72
669.956	7.71
670.366	7.7
670.776	7.69
671.186	7.7
671.595	7.7
672.005	7.7
672.414	7.71
672.824	7.7
673.233	7.72
673.642	7.73
674.052	7.75
674.461	7.76
674.87	7.79
675.279	7.82
675.688	7.85
676.097	7.89
676.506	7.92
676.915	7.97
677.323	8.02
677.732	8.07
678.141	8.12
678.549	8.17
678.958	8.23
679.366	8.3
679.775	8.36
680.183	8.43
680.592	8.52
681	8.62
681.408	8.71
681.816	8.84
682.224	8.98
682.632	9.12
683.04	9.27
683.448	9.44
683.856	9.62
684.264	9.83
684.671	10.04
685.079	10.28
685.487	10.55
685.894	10.84
686.302	11.14
686.709	11.46
687.116	11.8
687.524	12.19
687.931	12.59
688.338	13.03
688.745	13.47
689.152	13.94
689.559	14.43
689.966	14.95
690.373	15.48
690.78	16.02
691.187	16.58
691.593	17.17
692	17.74
692.407	18.34
692.813	18.92
693.22	19.52
693.626	20.16
694.032	20.78
694.439	21.4
694.845	22.03
695.251	22.66
695.657	23.28
696.063	23.91
696.469	24.54
696.875	25.14
697.281	25.76
697.687	26.37
698.093	26.95
698.498	27.54
698.904	28.11
699.31	28.67
699.715	29.23
700.12	29.79
700.526	30.32
700.931	30.84
701.337	31.37
701.742	31.86
702.147	32.37
702.552	32.86
702.957	33.32
703.362	33.79
703.767	34.24
704.172	34.69
704.577	35.14
704.981	35.59
705.386	36.03
705.791	36.44
706.195	36.86
706.6	37.28
707.004	37.69
707.408	38.1
707.813	38.5
708.217	38.88
708.621	39.25
709.025	39.58
709.43	39.93
709.834	40.3
710.237	40.64
710.641	40.99
711.045	41.31
711.449	41.65
711.853	42
712.256	42.3
712.66	42.61
713.064	42.91
713.467	43.25
713.87	43.56
714.274	43.82
714.677	44.14
715.08	44.42
715.484	44.7
715.887	44.98
716.29	45.21
716.693	45.49
717.096	45.76
717.499	46.04
717.901	46.32
718.304	46.57
718.707	46.84
719.109	47.08
719.512	47.34
719.915	47.56
720.317	47.78
720.719	48
721.122	48.22
721.524	48.44
721.926	48.64
722.328	48.82
722.731	48.99
723.133	49.19
723.535	49.37
723.937	49.53
724.338	49.72
724.74	49.9
725.142	50.1
725.544	50.25
725.945	50.4
726.347	50.55
726.748	50.67
727.15	50.8
727.551	50.92
727.952	51.03
728.354	51.16
728.755	51.25
729.156	51.35
729.557	51.39
729.958	51.48
730.359	51.56
730.76	51.65
731.161	51.77
731.562	51.89
731.962	51.95
732.363	52.04
732.763	52.11
733.164	52.18
733.564	52.23
733.965	52.32
734.365	52.42
734.766	52.49
735.166	52.56
735.566	52.6
735.966	52.65
736.366	52.7
736.766	52.75
737.166	52.81
737.566	52.85
737.966	52.91
738.365	52.94
738.765	52.98
739.165	53.02
739.564	53.06
739.964	53.09
740.363	53.11
740.763	53.17
741.162	53.19
741.561	53.21
741.96	53.24
742.36	53.28
742.759	53.31
743.158	53.34
743.557	53.35
743.955	53.39
744.354	53.42
744.753	53.46
745.152	53.49
745.55	53.56
745.949	53.62
746.348	53.65
746.746	53.69
747.144	53.74
747.543	53.76
747.941	53.82
748.339	53.8
748.737	53.84
749.136	53.87
749.534	53.88
749.932	53.86
750.33	53.84
750.727	53.87
751.125	53.87
751.523	53.88
751.921	53.89
752.318	53.87
752.716	53.89
753.113	53.88
753.511	53.89
753.908	53.88
754.305	53.89
754.703	53.86
755.1	53.83
755.497	53.84
755.894	53.81
756.291	53.78
756.688	53.74
757.085	53.73
757.482	53.71
757.878	53.68
758.275	53.66
758.672	53.65
759.068	53.69
759.465	53.66
759.861	53.63
760.258	53.65
760.654	53.66
761.05	53.67
761.447	53.67
761.843	53.67
762.239	53.67
762.635	53.65
763.031	53.66
763.427	53.62
763.822	53.65
764.218	53.65
764.614	53.65
765.01	53.62
765.405	53.63
765.801	53.61
766.196	53.59
766.592	53.59
766.987	53.62
767.382	53.61
767.778	53.65
768.173	53.66
768.568	53.66
768.963	53.65
769.358	53.66
769.753	53.65
770.148	53.66
770.542	53.68
770.937	53.69
771.332	53.68
771.726	53.68
772.121	53.65
772.515	53.65
772.91	53.64
773.304	53.67
773.699	53.69
774.093	53.69
774.487	53.7
774.881	53.74
775.275	53.74
775.669	53.71
776.063	53.72
776.457	53.74
776.851	53.71
777.245	53.69
777.638	53.68
778.032	53.67
778.425	53.71
778.819	53.71
779.212	53.7
779.606	53.71
779.999	53.74
780.392	53.76
780.786	53.75
781.179	53.78
781.572	53.84
781.965	53.86
782.358	53.87
782.751	53.86
783.143	53.86
783.536	53.88
783.929	53.9
784.322	53.91
784.714	53.92
785.107	53.96
785.499	53.97
785.891	53.94
786.284	53.96
786.676	53.98
787.068	53.98
787.46	54.01
787.852	53.99
788.245	54
788.636	53.96
789.028	53.96
789.42	53.96
789.812	54.01
790.204	54.02
790.595	54.04
790.987	54.04
791.378	54.08
791.77	54.08
792.161	54.09
792.553	54.11
792.944	54.13
793.335	54.16
793.726	54.19
794.117	54.14
794.508	54.16
794.899	54.16
795.29	54.14
795.681	54.1
796.072	54.12
796.463	54.12
796.853	54.13
797.244	54.16
797.634	54.15
798.025	54.17
798.415	54.19
798.806	54.18
799.196	54.2
799.586	54.24
799.976	54.29
800.366	54.26
800.756	54.31
801.146	54.32
801.536	54.31
801.926	54.31
802.316	54.3
802.706	54.34
803.095	54.37
803.485	54.39
803.874	54.38
804.264	54.4
804.653	54.45
805.043	54.46
805.432	54.49
805.821	54.53
806.21	54.58
806.599	54.61
806.988	54.61
807.377	54.63
807.766	54.63
808.155	54.65
808.544	54.69
808.933	54.68
809.321	54.67
809.71	54.69
810.098	54.67
810.487	54.68
810.875	54.68
811.264	54.69
811.652	54.71
812.04	54.72
812.428	54.75
812.816	54.76
813.204	54.75
813.592	54.77
813.98	54.78
814.368	54.82
814.756	54.82
815.144	54.83
815.531	54.84
815.919	54.81
816.306	54.81
816.694	54.81
817.081	54.78
817.469	54.81
817.856	54.82
818.243	54.79
818.63	54.79
819.017	54.81
819.404	54.79
819.791	54.8
820.178	54.84
820.565	54.83
820.952	54.82
821.339	54.83
821.725	54.85
822.112	54.87
822.498	54.89
822.885	54.91
823.271	54.87
823.657	54.85
824.044	54.87
824.43	54.85
824.816	54.86
825.202	54.87
825.588	54.87
825.974	54.84
826.36	54.81
826.746	54.8
827.132	54.78
827.517	54.77
827.903	54.79
828.289	54.77
828.674	54.77
829.06	54.75
829.445	54.75
829.83	54.73
830.216	54.71
830.601	54.67
830.986	54.63
831.371	54.61
831.756	54.61
832.141	54.58
832.526	54.55
832.911	54.53
833.295	54.51
833.68	54.49
834.065	54.47
834.449	54.45
834.834	54.45
835.218	54.46
835.603	54.46
835.987	54.42
836.371	54.42
836.755	54.4
837.139	54.39
837.524	54.38
837.908	54.38
838.291	54.39
838.675	54.4
839.059	54.39
839.443	54.37
839.827	54.37
840.21	54.37
840.594	54.37
840.977	54.38
841.361	54.36
841.744	54.34
842.127	54.32
842.511	54.28
842.894	54.25
843.277	54.25
843.66	54.23
844.043	54.22
844.426	54.24
844.809	54.25
845.191	54.27
845.574	54.29
845.957	54.32
846.339	54.31
846.722	54.35
847.104	54.37
847.487	54.39
847.869	54.39
848.252	54.38
848.634	54.39
849.016	54.38
849.398	54.39
849.78	54.39
850.162	54.36
850.544	54.37
850.926	54.33
851.307	54.32
851.689	54.33
852.071	54.35
852.452	54.36
852.834	54.35
853.215	54.33
853.597	54.31
853.978	54.3
854.359	54.32
854.741	54.31
855.122	54.32
855.503	54.32
855.884	54.3
856.265	54.3
856.646	54.3
857.026	54.32
857.407	54.38
857.788	54.37
858.169	54.41
858.549	54.43
858.93	54.47
859.31	54.49
859.69	54.5
860.071	54.52
860.451	54.53
860.831	54.54
861.211	54.5
861.591	54.46
861.971	54.47
862.351	54.46
862.731	54.47
863.111	54.45
863.491	54.45
863.87	54.46
864.25	54.45
864.629	54.45
865.009	54.46
865.388	54.49
865.768	54.49
866.147	54.48
866.526	54.5
866.905	54.48
867.284	54.49
867.663	54.48
868.042	54.47
868.421	54.49
868.8	54.53
869.179	54.52
869.558	54.51
869.936	54.51
870.315	54.52
870.693	54.51
871.072	54.54
871.45	54.55
871.828	54.57
872.207	54.57
872.585	54.57
872.963	54.55
873.341	54.55
873.719	54.56
874.097	54.56
874.475	54.56
874.853	54.56
875.23	54.57
875.608	54.55
875.986	54.56
876.363	54.58
876.741	54.57
877.118	54.58
877.495	54.59
877.873	54.6
878.25	54.65
878.627	54.68
879.004	54.67
879.381	54.65
879.758	54.67
880.135	54.67
880.512	54.64
880.889	54.66
881.265	54.62
881.642	54.61
882.019	54.61
882.395	54.56
882.772	54.52
883.148	54.5
883.524	54.49
883.901	54.46
884.277	54.4
884.653	54.4
885.029	54.37
885.405	54.39
885.781	54.4
886.157	54.38
886.532	54.38
886.908	54.37
887.284	54.37
887.659	54.33
888.035	54.31
888.411	54.33
888.786	54.34
889.161	54.34
889.537	54.31
889.912	54.28
890.287	54.26
890.662	54.24
891.037	54.25
891.412	54.22
891.787	54.23
892.162	54.23
892.536	54.2
892.911	54.17
893.286	54.15
893.66	54.16
894.035	54.15
894.409	54.14
894.784	54.15
895.158	54.12
895.532	54.13
895.906	54.13
896.281	54.1
896.655	54.1
897.029	54.09
897.402	54.07
897.776	54.04
898.15	54.05
898.524	54.07
898.898	54.05
899.271	54.05
899.645	54.09
900.018	54.1
900.392	54.13
900.765	54.17
901.138	54.19
901.511	54.22
901.884	54.27
902.258	54.28
902.631	54.29
903.003	54.31
903.376	54.34
903.749	54.32
904.122	54.34
904.495	54.39
904.867	54.42
905.24	54.45
905.612	54.49
905.985	54.48
906.357	54.47
906.729	54.49
907.102	54.48
907.474	54.49
907.846	54.5
908.218	54.48
908.59	54.49
908.962	54.48
909.334	54.48
909.705	54.44
910.077	54.46
910.449	54.49
910.82	54.47
911.192	54.51
911.563	54.47
911.935	54.47
912.306	54.48
912.677	54.49
913.048	54.47
913.419	54.46
913.79	54.46
914.161	54.44
914.532	54.42
914.903	54.43
915.274	54.42
915.645	54.45
916.015	54.49
916.386	54.49
916.756	54.48
917.127	54.5
917.497	54.51
917.868	54.53
918.238	54.56
918.608	54.6
918.978	54.61
919.348	54.64
919.718	54.62
920.088	54.59
920.458	54.58
920.828	54.54
921.198	54.53
921.567	54.54
921.937	54.56
922.306	54.52
922.676	54.5
923.045	54.46
923.415	54.45
923.784	54.43
924.153	54.46
924.522	54.46
924.891	54.48
925.26	54.48
925.629	54.49
925.998	54.46
926.367	54.48
926.736	54.48
927.104	54.51
927.473	54.46
927.842	54.46
928.21	54.44
928.578	54.41
928.947	54.41
929.315	54.4
929.683	54.38
930.051	54.36
930.42	54.35
930.788	54.31
931.156	54.27
931.523	54.29
931.891	54.3
932.259	54.3
932.627	54.29
932.994	54.24
933.362	54.2
933.729	54.12
934.097	54.08
934.464	54.03
934.831	54.02
935.199	54.01
935.566	53.98
935.933	53.95
936.3	53.88
936.667	53.88
937.034	53.88
937.401	53.95
937.767	53.99
938.134	54.04
938.501	54.09
938.867	54.13
939.234	54.14
939.6	54.23
939.967	54.27
940.333	54.4
940.699	54.46
941.065	54.53
941.431	54.55
941.798	54.55
942.163	54.59
942.529	54.63
942.895	54.69
943.261	54.73
943.627	54.71
943.992	54.7
944.358	54.67
944.723	54.66
945.089	54.64
945.454	54.67
945.82	54.72
946.185	54.77
946.55	54.7
946.915	54.65
947.28	54.63
947.645	54.63
948.01	54.63
948.375	54.62
948.74	54.64
949.104	54.69
949.469	54.64
949.834	54.6
950.198	54.56
950.562	54.55
950.927	54.56
951.291	54.48
951.655	54.41
952.02	54.35
952.384	54.3
952.748	54.19
953.112	54.12
953.476	54.1
953.839	54.05
954.203	53.98
954.567	53.97
954.931	53.94
955.294	53.9
955.658	53.93
956.021	53.91
956.385	53.87
956.748	53.89
957.111	53.85
957.474	53.84
957.837	53.8
958.2	53.79
958.563	53.74
958.926	53.7
959.289	53.74
959.652	53.68
960.015	53.7
960.377	53.7
960.74	53.67
961.102	53.67
961.465	53.63
961.827	53.64
962.189	53.69
962.552	53.64
962.914	53.67
963.276	53.72
963.638	53.69
964	53.68
964.362	53.69
964.724	53.68
965.085	53.63
965.447	53.63
965.809	53.62
966.17	53.54
966.532	53.59
966.893	53.51
967.255	53.49
967.616	53.5
967.977	53.47
968.338	53.46
968.699	53.42
969.061	53.44
969.421	53.43
969.782	53.44
970.143	53.44
970.504	53.43
970.865	53.48
971.225	53.44
971.586	53.46
971.946	53.44
972.307	53.37
972.667	53.36
973.027	53.39
973.388	53.48
973.748	53.46
974.108	53.53
974.468	53.51
974.828	53.45
975.188	53.47
975.548	53.44
975.907	53.5
976.267	53.56
976.627	53.62
976.986	53.58
977.346	53.52
977.705	53.55
978.064	53.56
978.424	53.58
978.783	53.59
979.142	53.58
979.501	53.57
979.86	53.56
980.219	53.54
980.578	53.57
980.937	53.61
981.296	53.55
981.654	53.48
982.013	53.45
982.371	53.44
982.73	53.44
983.088	53.44
983.447	53.45
983.805	53.49
984.163	53.46
984.521	53.36
984.879	53.3
985.237	53.33
985.595	53.4
985.953	53.33
986.311	53.3
986.669	53.26
987.026	53.22
987.384	53.22
987.741	53.17
988.099	53.28
988.456	53.34
988.814	53.42
989.171	53.4
989.528	53.43
989.885	53.48
990.242	53.51
990.599	53.68
990.956	53.71
991.313	53.71
991.67	53.77
992.027	53.78
992.383	53.87
992.74	53.9
993.096	53.94
993.453	53.9
993.809	53.95
994.165	53.99
994.522	53.92
994.878	54.03
995.234	54.08
995.59	54.07
995.946	54.06
996.302	54.03
996.658	54.18
997.013	54.22
997.369	54.3
997.725	54.35
998.08	54.34
998.436	54.36
998.791	54.31
999.147	54.38
999.502	54.4
999.857	54.41
1000.212	54.46
1000.567	54.44
1000.922	54.52
1001.277	54.53
1001.632	54.5
1001.987	54.57
1002.342	54.62
1002.696	54.61
1003.051	54.68
1003.406	54.79
1003.76	54.79
1004.114	54.73
1004.469	54.63
1004.823	54.8
1005.177	54.75
1005.531	54.77
1005.885	54.85
1006.239	54.85
1006.593	55.05
1006.947	54.96
1007.301	54.84
1007.655	54.86
1008.008	54.97
1008.362	55.05
1008.715	54.89
1009.069	55.18
1009.422	55.25
1009.776	55.37
1010.129	55.52
1010.482	55.58
1010.835	55.78
1011.188	55.98
1011.541	56.09
1011.894	56.15
1012.247	56.14
1012.6	56.13
1012.952	56.02
1013.305	56.16
1013.657	56.1
1014.01	56.23
1014.362	56.22
1014.715	56.05
1015.067	56.18
1015.419	56.44
1015.771	56.62
1016.123	56.82
1016.475	57.02
1016.827	57.19
1017.179	57.24
1017.531	57.35
1017.883	57.25
1018.234	57.25
1018.586	57.48
1018.938	57.51
1019.289	57.42
1019.64	57.44
1019.992	57.39
1020.343	57.36
1020.694	57.21
1021.045	57.24
1021.396	57.48
1021.747	57.65
1022.098	57.74
1022.449	57.74
1022.8	57.81
1023.151	57.88
1023.501	57.98
1023.852	58.09
1024.202	58.12
1024.553	58.33
1024.903	58.39
1025.253	58.38
1025.604	58.37
1025.954	58.06
1026.304	58.24
1026.654	58.23
1027.004	58.03
1027.354	58.17
1027.703	57.99
1028.053	58.18
1028.403	58.22
1028.753	58
1029.102	58.15
1029.452	58.42
1029.801	59.15
1030.15	59.15
1030.499	59.12
897.758	972.5
901.051	983.75
904.343	979.92
907.636	995.97
910.928	968.03
914.22	968.81
917.511	955.11
920.803	919.08
924.094	911.59
927.384	888.1
930.675	857.53
933.965	854.94
937.255	801.76
940.544	771.07
943.834	736.59
947.123	731.1
950.411	688.76
953.7	674.45
956.988	635.51
960.276	615.61
963.563	608.52
966.851	582.98
970.138	577.55
973.424	561.67
976.711	563.6
979.997	536.67
983.283	534.66
986.568	523.67
989.853	510.73
993.138	501.9
996.423	482.39
999.708	468.41
1002.992	463.95
1006.275	445.67
1009.559	442.39
1012.842	427.89
1016.125	416.28
1019.408	407.88
1022.69	404.6
1025.972	395.06
1029.254	386.4
1032.536	379.71
1035.817	372.69
1039.098	368.52
1042.379	361.44
1045.659	356.36
1048.939	349.4
1052.219	341.72
1055.498	339.36
1058.778	330.31
1062.057	324.31
1065.335	321.31
1068.614	318.6
1071.892	314.89
1075.17	306.08
1078.447	300.78
1081.724	298.68
1085.001	294.71
1088.278	292.55
1091.554	285.7
1094.83	285.78
1098.106	283.49
1101.382	280.41
1104.657	277.88
1107.932	273.88
1111.206	275.46
1114.481	268.7
1117.755	266.81
1121.029	265.23
1124.302	263.27
1127.575	259.04
1130.848	256.21
1134.121	253.83
1137.393	253.27
1140.665	248.74
1143.937	246.6
1147.208	245.31
1150.48	244.7
1153.75	241.24
1157.021	238
1160.291	237.95
1163.561	235.69
1166.831	235.2
1170.101	233.21
1173.37	232.81
1176.639	233.02
1179.907	231.65
1183.176	228.44
1186.444	228.9
1189.711	228.62
1192.979	228.07
1196.246	226.11
1199.513	226.68
1202.78	226.03
1206.046	226.21
1209.312	223.86
1212.578	223.94
1215.843	224.66
1219.108	224.49
1222.373	227.61
1225.638	229.13
1228.902	232.08
1232.166	232.05
1235.43	233.4
1238.693	236.09
1241.956	237.3
1245.219	240.8
1248.482	242.15
1251.744	242.48
1255.006	242.56
1258.268	237.89
1261.529	236.22
1264.79	235.69
1268.051	234.34
1271.312	231.67
1274.572	228.69
1277.832	227.29
1281.092	223.24
1284.351	220.84
1287.61	221.22
1290.869	217.61
1294.128	215.94
1297.386	216.09
1300.644	213.4
1303.902	214.86
1307.159	213.84
1310.416	213.95
1313.673	212.62
1316.93	215.17
1320.186	214.98
1323.442	215.37
1326.697	218.55
1329.953	219.93
1333.208	219.73
1336.463	222.77
1339.717	222.94
1342.972	226.31
1346.226	227.33
1349.479	228.52
1352.733	229.31
1355.986	230.42
1359.238	229.65
1362.491	231.39
1365.743	232.88
1368.995	233.34
1372.247	232.15
1375.498	231.59
1378.749	231.74
1382	230.02
1385.251	229.92
1388.501	228.2
1391.751	228.24
1395	227.23
1398.25	224.88
1401.499	221.83
1404.748	221.62
1407.996	218.63
1411.244	217.53
1414.492	215.68
1417.74	212.92
1420.987	209.99
1424.234	209.34
1427.481	206.35
1430.728	206.21
1433.974	204.41
1437.22	203.35
1440.465	201.97
1443.711	199.86
1446.956	198.62
1450.201	197.03
1453.445	195.25
1456.689	194.65
1459.933	191.39
1463.177	190.12
1466.42	187.6
1469.663	185.07
1472.906	184.09
1476.148	179.59
1479.391	178.62
1482.633	177.21
1485.874	174.6
1489.115	173.6
1492.356	171.48
1495.597	171.28
1498.838	169.76
1502.078	168.52
1505.318	168.23
1508.557	168.01
1511.797	168.61
1515.036	166.77
1518.274	166.15
1521.513	165.54
1524.751	165.43
1527.989	165.61
1531.227	164.84
1534.464	164.57
1537.701	164.98
1540.938	164.35
1544.174	162.81
1547.41	162.78
1550.646	162.19
1553.882	162.34
1557.117	160.87
1560.352	159.82
1563.587	159.3
1566.821	158.44
1570.055	157.98
1573.289	155.6
1576.523	155.98
1579.756	155.12
1582.989	154.29
1586.222	154.17
1589.454	154.16
1592.686	155.09
1595.918	154.72
1599.15	154.42
1602.381	154.77
1605.612	154.21
1608.843	155.12
1612.073	154.77
1615.303	155.27
1618.533	155.59
1621.762	155.87
1624.992	155.95
1628.221	155.37
1631.449	155.16
1634.678	155.09
1637.906	156.29
1641.134	155.91
1644.361	155.74
1647.588	156.26
1650.815	155.96
1654.042	155.51
1657.269	155.9
1660.495	155.56
1663.72	155.17
1666.946	156.12
1670.171	156.51
1673.396	155.68
1676.621	155.95
1679.845	156.62
1683.069	156.5
1686.293	157.25
1689.517	157.83
1692.74	157.95
1695.963	158.4
1699.185	160.09
1702.408	159.5
1705.63	159.89
1708.852	160.37
1712.073	160.76
1715.294	160.6
1718.515	161.98
1721.736	161.65
1724.956	162.2
1728.176	162.27
1731.396	163.22
1734.616	162.34
1737.835	163.54
1741.054	162.6
1744.272	162.4
1747.491	163.97
1750.709	164.26
1753.927	163.58
1757.144	163.51
1760.361	163.54
1763.578	164.01
1766.795	163.46
1770.011	165.13
1773.227	164.59
1776.443	166.15
1779.658	166.86
1782.874	166.73
1786.089	166.53
1789.303	167.1
1792.518	168.79
1795.732	168.94
1798.945	170.03
1802.159	170.3
1805.372	170
1808.585	172.98
1811.797	173.69
1815.01	174.5
1818.222	175.02
1821.434	177.74
1824.645	177.57
1827.856	180.01
1831.067	181.1
1834.278	181.14
1837.488	182.6
1840.698	183.33
1843.908	181.72
1847.117	182.58
1850.326	183.45
1853.535	182.13
1856.744	183.71
1859.952	183.92
1863.16	182.25
1866.368	180.96
1869.575	181.03
1872.782	177.98
1875.989	177.48
1879.196	176.25
1882.402	174.29
1885.608	173.49
1888.814	173.29
1892.019	171.92
1895.224	170.65
1898.429	169.73
1901.634	169.91
1904.838	170.14
1908.042	171.29
1911.246	170.83
1914.449	171.3
1917.652	172.18
1920.855	172.04
1924.058	172.61
1927.26	171.29
1930.462	171.54
1933.664	173.73
1936.865	171.91
1940.066	171.37
1943.267	170.59
1946.467	171.16
1949.668	171.99
1952.868	173.12
1956.067	173.89
1959.267	173.27
1962.466	174.23
1965.665	173.51
1968.863	173.66
1972.061	177.82
1975.259	179.44
1978.457	180.79
1981.654	181.99
1984.852	182.57
1988.048	182.01
1991.245	183.66
1994.441	185.84
1997.637	187.41
2000.833	191.52
2004.028	194.3
2007.223	193.71
2010.418	195.69
2013.613	199.58
2016.807	201.84
2020.001	203.83
2023.194	206.84
2026.388	211.55
2029.581	217
2032.774	218.08
2035.966	222.43
2039.158	222.78
2042.35	227.27
2045.542	229.2
2048.733	232.53
2051.924	236.07
2055.115	239.43
2058.306	240.42
2061.496	242.21
2064.686	243.07
2067.875	248.47
2071.065	248.64
2074.254	246.53
2077.442	251.78
2080.631	251.98
2083.819	254.06
2087.007	253.9
2090.195	258.05
2093.382	260.43
2096.569	259.16
2099.756	262.41
2102.942	262.39
2106.128	265.19
2109.314	272.83
2112.5	270.23
2115.685	276.1
2118.87	276.57
2122.055	282.97
2125.239	283.41
2128.424	287.09
2131.608	289.83
2134.791	294.62
2137.974	295.07
2141.157	295.66
2144.34	295.53
2147.523	301.1
2150.705	299.9
2153.887	303.48
2157.068	303.23
2160.25	301.7
2163.431	303.38
2166.611	307.38
2169.792	310.15
2172.972	315.75
2176.152	318.07
2179.331	321.76
2182.511	325.65
2185.69	329.19
2188.868	334.12
2192.047	335.12
2195.225	344.7
2198.403	352.39
2201.58	357.84
2204.758	366.76
2207.935	371.02
2211.111	380.11
2214.288	383.69
2217.464	384.27
2220.64	390.84
2223.815	396.34
2226.991	411.93
2230.166	412.64
2233.34	418.42
2236.515	424.62
2239.689	424.78
2242.863	429.28
2246.036	437.63
2249.209	435.5
2252.382	444.05
2255.555	456.01
2258.727	458.31
2261.9	460.33
2265.071	464.74
2268.243	472.68
2271.414	479.22
2274.585	487.76
2277.756	491.39
2280.926	497.7
2284.096	508.54
2287.266	518.25
2290.436	523.22
2293.605	533.46
2296.774	551.54
2299.942	567.01
2303.111	570.37
2306.279	581.24
2309.447	592.86
2312.614	607.55
2315.781	621.78
2318.948	650.81
2322.115	640.82
2325.281	675.73
2328.447	664.04
2331.613	687.39
2334.779	682.52
2337.944	709.64
2341.109	716.75
2344.274	732.55
2347.438	761.71
2350.602	762.14
2353.766	785.23
2356.929	798.65
2360.092	792.53
2363.255	847.4
2366.418	845.66
2369.58	861.39
2372.742	920.38
2375.904	943.93
2379.066	938.48
2382.227	918.93
2385.388	995.49
2388.548	993.83
2391.709	1007.23
2394.869	1118.85
2398.029	1074.27
2401.188	1104.91
2404.347	1097.39
2407.506	1072.79
2410.665	1103.78
2413.823	1171.14
2416.981	1234.71
2420.139	1200.08
2423.296	1186.4
2426.453	1240.17
2429.61	1197.18
2432.767	1247.94
2435.923	1234.14
2439.079	1353.97
2442.235	1379.35
2445.391	1369.95
2448.546	1355.4
2451.701	1321.96
2454.855	1316.16
2458.009	1400.01
2461.163	1454.3
2464.317	1500.53
2467.471	1538.37
2470.624	1540.78
2473.777	1496.71
2476.929	1450.52
2480.082	1400.72
2483.234	1390.22
2486.385	1464.8
2489.537	1470.88
2492.688	1521.76
2495.839	1480.09
2498.989	1447.88
2502.14	1453.87
2505.29	1467.75
2508.439	1494.47
2511.589	1494.68
2514.738	1631.04
2517.887	1593.33
2521.035	1669.87
2524.183	1687.34
2527.331	1699.18
2530.479	1685.19
2533.627	1699.48
