Data from N_3_DIV_IL_4N_Splice17_14-16-19-407.txt Node
Date: Sat Mar 07 14:16:19 EST 2020
User: sa697716
Spectrometer: NQ5500242
Trigger mode: 0
Integration Time (sec): 1.450000E-1
Scans to average: 20
Nonlinearity correction enabled: false
Boxcar width: 5
Storing dark spectrum: false
XAxis mode: Wavelengths
Number of Pixels in Spectrum: 512
>>>>>Begin Spectral Data<<<<<
187.83	135.14
188.298	147.56
188.766	123.09
189.233	89.66
189.701	90.82
190.169	119.88
190.636	146.23
191.104	221.44
191.571	344.88
192.039	213.87
192.506	116.16
192.974	178.75
193.441	274.07
193.908	74.63
194.375	21.37
194.842	13.29
195.31	78.92
195.777	212.23
196.244	68.96
196.711	73.14
197.177	74.46
197.644	74.42
198.111	74.1
198.578	74.6
199.045	75.49
199.511	75.31
199.978	75.36
200.445	75.9
200.911	75.6
201.378	76.1
201.844	76.2
202.31	75.93
202.777	75.68
203.243	75.7
203.709	75.26
204.176	74.98
204.642	74.37
205.108	73.86
205.574	72.79
206.04	72.36
206.506	71.48
206.972	70.92
207.438	70.49
207.903	69.75
208.369	68.47
208.835	67.25
209.301	65.55
209.766	64.1
210.232	62.51
210.697	61.09
211.163	59.82
211.628	58.69
212.094	57.28
212.559	55.96
213.024	54.75
213.49	53.65
213.955	52.56
214.42	51.5
214.885	50.2
215.35	48.49
215.815	46.42
216.28	43.5
216.745	40.3
217.21	37.38
217.675	34.5
218.14	32.09
218.604	29.89
219.069	28.03
219.534	26.46
219.998	25.19
220.463	24.11
220.927	23.09
221.392	22.35
221.856	21.71
222.32	21.13
222.785	20.64
223.249	20.15
223.713	19.73
224.177	19.38
224.642	19.02
225.106	18.63
225.57	18.28
226.034	17.98
226.497	17.69
226.961	17.41
227.425	17.12
227.889	16.85
228.353	16.59
228.816	16.34
229.28	16.07
229.744	15.84
230.207	15.63
230.671	15.42
231.134	15.21
231.597	15
232.061	14.81
232.524	14.62
232.987	14.43
233.45	14.26
233.914	14.1
234.377	13.94
234.84	13.77
235.303	13.63
235.766	13.47
236.229	13.33
236.691	13.2
237.154	13.06
237.617	12.93
238.08	12.8
238.542	12.67
239.005	12.54
239.468	12.42
239.93	12.32
240.393	12.2
240.855	12.08
241.317	11.97
241.78	11.85
242.242	11.72
242.704	11.61
243.166	11.51
243.629	11.4
244.091	11.29
244.553	11.17
245.015	11.06
245.477	10.95
245.939	10.86
246.4	10.75
246.862	10.66
247.324	10.57
247.786	10.47
248.247	10.38
248.709	10.29
249.17	10.19
249.632	10.13
250.093	10.05
250.555	9.97
251.016	9.9
251.477	9.83
251.939	9.76
252.4	9.69
252.861	9.63
253.322	9.56
253.783	9.5
254.244	9.44
254.705	9.37
255.166	9.3
255.627	9.24
256.088	9.18
256.549	9.13
257.009	9.06
257.47	9
257.931	8.93
258.391	8.87
258.852	8.81
259.312	8.75
259.773	8.68
260.233	8.64
260.694	8.58
261.154	8.52
261.614	8.46
262.074	8.41
262.534	8.36
262.994	8.32
263.455	8.28
263.915	8.24
264.374	8.2
264.834	8.17
265.294	8.13
265.754	8.11
266.214	8.07
266.673	8.04
267.133	8.02
267.593	8
268.052	7.97
268.512	7.95
268.971	7.93
269.431	7.9
269.89	7.88
270.349	7.86
270.809	7.83
271.268	7.81
271.727	7.79
272.186	7.76
272.645	7.75
273.104	7.73
273.563	7.7
274.022	7.68
274.481	7.66
274.94	7.65
275.399	7.63
275.857	7.61
276.316	7.59
276.775	7.57
277.233	7.56
277.692	7.53
278.15	7.51
278.609	7.49
279.067	7.47
279.525	7.46
279.984	7.43
280.442	7.41
280.9	7.4
281.358	7.38
281.816	7.36
282.274	7.34
282.732	7.33
283.19	7.32
283.648	7.3
284.106	7.29
284.564	7.27
285.021	7.27
285.479	7.26
285.937	7.24
286.394	7.23
286.852	7.21
287.309	7.19
287.767	7.16
288.224	7.13
288.682	7.11
289.139	7.08
289.596	7.04
290.053	7.01
290.511	6.98
290.968	6.95
291.425	6.91
291.882	6.89
292.339	6.86
292.796	6.83
293.252	6.81
293.709	6.78
294.166	6.77
294.623	6.75
295.079	6.73
295.536	6.71
295.992	6.69
296.449	6.68
296.905	6.66
297.362	6.64
297.818	6.63
298.274	6.62
298.731	6.6
299.187	6.58
299.643	6.56
300.099	6.54
300.555	6.52
301.011	6.51
301.467	6.5
301.923	6.48
302.379	6.47
302.835	6.46
303.291	6.45
303.746	6.44
304.202	6.43
304.658	6.43
305.113	6.42
305.569	6.41
306.024	6.4
306.479	6.39
306.935	6.38
307.39	6.38
307.845	6.36
308.301	6.36
308.756	6.36
309.211	6.35
309.666	6.35
310.121	6.35
310.576	6.35
311.031	6.34
311.486	6.35
311.94	6.35
312.395	6.34
312.85	6.34
313.305	6.34
313.759	6.34
314.214	6.33
314.668	6.32
315.123	6.31
315.577	6.3
316.032	6.29
316.486	6.27
316.94	6.25
317.394	6.24
317.849	6.22
318.303	6.19
318.757	6.17
319.211	6.15
319.665	6.13
320.119	6.11
320.572	6.09
321.026	6.08
321.48	6.06
321.934	6.03
322.387	6.02
322.841	6.01
323.295	6
323.748	5.99
324.202	5.98
324.655	5.96
325.108	5.96
325.562	5.94
326.015	5.93
326.468	5.92
326.921	5.92
327.374	5.9
327.827	5.89
328.28	5.88
328.733	5.88
329.186	5.86
329.639	5.85
330.092	5.85
330.545	5.85
330.997	5.85
331.45	5.85
331.903	5.85
332.355	5.86
332.808	5.86
333.26	5.86
333.713	5.86
334.165	5.86
334.617	5.87
335.069	5.86
335.522	5.86
335.974	5.86
336.426	5.87
336.878	5.87
337.33	5.87
337.782	5.87
338.234	5.87
338.686	5.87
339.137	5.88
339.589	5.86
340.041	5.87
340.493	5.86
340.944	5.84
341.396	5.82
341.847	5.8
342.299	5.78
342.75	5.75
343.201	5.73
343.653	5.7
344.104	5.68
344.555	5.66
345.006	5.63
345.457	5.61
345.908	5.6
346.359	5.59
346.81	5.57
347.261	5.56
347.712	5.56
348.163	5.55
348.613	5.55
349.064	5.54
349.515	5.54
349.965	5.54
350.416	5.53
350.866	5.53
351.317	5.52
351.767	5.52
352.217	5.51
352.668	5.51
353.118	5.51
353.568	5.5
354.018	5.51
354.468	5.51
354.918	5.5
355.368	5.51
355.818	5.52
356.268	5.52
356.718	5.51
357.168	5.51
357.617	5.51
358.067	5.51
358.517	5.53
358.966	5.54
359.416	5.54
359.865	5.55
360.315	5.56
360.764	5.56
361.213	5.57
361.663	5.57
362.112	5.59
362.561	5.61
363.01	5.63
363.459	5.62
363.908	5.62
364.357	5.65
364.806	5.66
365.255	5.68
365.703	5.7
366.152	5.73
366.601	5.76
367.05	5.77
367.498	5.78
367.947	5.81
368.395	5.84
368.844	5.88
369.292	5.9
369.74	5.95
370.189	5.98
370.637	6.01
371.085	6.04
371.533	6.07
371.981	6.11
372.429	6.15
372.877	6.2
373.325	6.23
373.773	6.27
374.221	6.31
374.669	6.34
375.116	6.38
375.564	6.41
376.012	6.45
376.459	6.49
376.907	6.54
377.354	6.59
377.801	6.63
378.249	6.68
378.696	6.74
379.143	6.78
379.591	6.84
380.038	6.9
380.485	6.95
380.932	7
381.379	7.06
381.826	7.12
382.273	7.16
382.72	7.2
383.166	7.25
383.613	7.29
384.06	7.33
384.506	7.36
384.953	7.41
385.4	7.45
385.846	7.49
386.292	7.54
386.739	7.58
387.185	7.63
387.631	7.67
388.078	7.71
388.524	7.74
388.97	7.79
389.416	7.83
389.862	7.87
390.308	7.91
390.754	7.95
391.2	7.98
391.645	8.01
392.091	8.05
392.537	8.08
392.983	8.11
393.428	8.15
393.874	8.17
394.319	8.2
394.765	8.21
395.21	8.21
395.655	8.24
396.101	8.25
396.546	8.26
396.991	8.27
397.436	8.28
397.881	8.3
398.326	8.32
398.771	8.33
399.216	8.36
399.661	8.37
400.106	8.4
400.551	8.38
400.995	8.37
401.44	8.37
401.885	8.37
402.329	8.37
402.774	8.37
403.218	8.37
403.663	8.37
404.107	8.35
404.551	8.35
404.995	8.34
405.44	8.33
405.884	8.33
406.328	8.34
406.772	8.33
407.216	8.31
407.66	8.3
408.104	8.29
408.547	8.28
408.991	8.28
409.435	8.27
409.879	8.26
410.322	8.28
410.766	8.29
411.209	8.29
411.653	8.3
412.096	8.3
412.54	8.31
412.983	8.3
413.426	8.31
413.869	8.33
414.312	8.34
414.756	8.36
415.199	8.35
415.642	8.35
416.085	8.35
416.527	8.35
416.97	8.34
417.413	8.33
417.856	8.32
418.298	8.3
418.741	8.28
419.184	8.27
419.626	8.25
420.069	8.25
420.511	8.24
420.953	8.21
421.396	8.21
421.838	8.22
422.28	8.22
422.722	8.24
423.164	8.23
423.606	8.24
424.048	8.24
424.49	8.23
424.932	8.22
425.374	8.2
425.816	8.18
426.258	8.15
426.699	8.1
427.141	8.08
427.582	8.07
428.024	8.07
428.465	8.07
428.907	8.05
429.348	8.02
429.789	8.01
430.231	8.03
430.672	8.06
431.113	8.08
431.554	8.12
431.995	8.14
432.436	8.14
432.877	8.14
433.318	8.16
433.759	8.17
434.2	8.19
434.64	8.21
435.081	8.21
435.522	8.2
435.962	8.22
436.403	8.24
436.843	8.26
437.284	8.27
437.724	8.28
438.164	8.28
438.604	8.3
439.045	8.3
439.485	8.31
439.925	8.33
440.365	8.34
440.805	8.34
441.245	8.35
441.685	8.37
442.125	8.41
442.564	8.42
443.004	8.42
443.444	8.43
443.883	8.46
444.323	8.48
444.762	8.51
445.202	8.55
445.641	8.59
446.081	8.62
446.52	8.61
446.959	8.63
447.398	8.66
447.837	8.7
448.276	8.72
448.716	8.74
449.154	8.78
449.593	8.8
450.032	8.8
450.471	8.79
450.91	8.79
451.349	8.81
451.787	8.81
452.226	8.81
452.664	8.81
453.103	8.8
453.541	8.8
453.98	8.78
454.418	8.76
454.856	8.74
455.295	8.74
455.733	8.7
456.171	8.68
456.609	8.65
457.047	8.62
457.485	8.59
457.923	8.58
458.361	8.54
458.798	8.52
459.236	8.49
459.674	8.48
460.111	8.46
460.549	8.46
460.987	8.45
461.424	8.45
461.862	8.45
462.299	8.46
462.736	8.45
463.173	8.44
463.611	8.44
464.048	8.45
464.485	8.45
464.922	8.45
465.359	8.46
465.796	8.45
466.233	8.46
466.67	8.46
467.106	8.46
467.543	8.46
467.98	8.47
468.416	8.46
468.853	8.46
469.29	8.46
469.726	8.47
470.162	8.48
470.599	8.48
471.035	8.46
471.471	8.46
471.907	8.45
472.344	8.47
472.78	8.46
473.216	8.46
473.652	8.46
474.088	8.44
474.523	8.44
474.959	8.43
475.395	8.42
475.831	8.42
476.266	8.43
476.702	8.43
477.138	8.42
477.573	8.42
478.008	8.41
478.444	8.39
478.879	8.4
479.314	8.39
479.75	8.37
480.185	8.36
480.62	8.36
481.055	8.35
481.49	8.34
481.925	8.34
482.36	8.33
482.795	8.32
483.229	8.32
483.664	8.31
484.099	8.3
484.534	8.3
484.968	8.3
485.403	8.29
485.837	8.29
486.271	8.3
486.706	8.31
487.14	8.32
487.574	8.34
488.009	8.36
488.443	8.39
488.877	8.41
489.311	8.44
489.745	8.47
490.179	8.51
490.613	8.55
491.046	8.59
491.48	8.63
491.914	8.68
492.348	8.72
492.781	8.78
493.215	8.83
493.648	8.9
494.082	8.96
494.515	9.02
494.948	9.08
495.382	9.16
495.815	9.23
496.248	9.3
496.681	9.39
497.114	9.47
497.547	9.55
497.98	9.65
498.413	9.74
498.846	9.85
499.279	9.96
499.711	10.07
500.144	10.19
500.577	10.31
501.009	10.44
501.442	10.57
501.874	10.71
502.306	10.86
502.739	11.01
503.171	11.16
503.603	11.32
504.036	11.49
504.468	11.67
504.9	11.84
505.332	12.03
505.764	12.23
506.196	12.44
506.627	12.65
507.059	12.86
507.491	13.09
507.923	13.32
508.354	13.58
508.786	13.82
509.217	14.07
509.649	14.34
510.08	14.61
510.512	14.88
510.943	15.16
511.374	15.44
511.805	15.74
512.237	16.02
512.668	16.32
513.099	16.6
513.53	16.89
513.961	17.21
514.391	17.52
514.822	17.83
515.253	18.14
515.684	18.45
516.114	18.77
516.545	19.1
516.975	19.44
517.406	19.78
517.836	20.11
518.267	20.45
518.697	20.76
519.127	21.08
519.558	21.4
519.988	21.73
520.418	22.04
520.848	22.36
521.278	22.67
521.708	23.06
522.138	23.36
522.567	23.65
522.997	23.92
523.427	24.22
523.857	24.5
524.286	24.75
524.716	25
525.145	25.25
525.575	25.49
526.004	25.73
526.433	25.86
526.863	26.07
527.292	26.3
527.721	26.5
528.15	26.67
528.579	26.86
529.008	27.05
529.437	27.22
529.866	27.38
530.295	27.53
530.724	27.68
531.152	27.82
531.581	27.95
532.01	28.07
532.438	28.2
532.867	28.32
533.295	28.41
533.723	28.52
534.152	28.61
534.58	28.7
535.008	28.78
535.436	28.86
535.865	28.94
536.293	29
536.721	29.05
537.149	29.12
537.576	29.18
538.004	29.25
538.432	29.29
538.86	29.34
539.287	29.37
539.715	29.43
540.143	29.47
540.57	29.5
540.998	29.53
541.425	29.57
541.852	29.6
542.28	29.64
542.707	29.68
543.134	29.71
543.561	29.75
543.988	29.79
544.415	29.8
544.842	29.83
545.269	29.86
545.696	29.91
546.123	29.94
546.549	29.96
546.976	29.98
547.403	29.99
547.829	30
548.256	30.03
548.682	30.06
549.108	30.11
549.535	30.14
549.961	30.16
550.387	30.15
550.813	30.18
551.24	30.19
551.666	30.19
552.092	30.2
552.518	30.2
552.943	30.2
553.369	30.16
553.795	30.12
554.221	30.09
554.646	30.05
555.072	30.03
555.498	29.97
555.923	29.92
556.349	29.87
556.774	29.81
557.199	29.75
557.625	29.68
558.05	29.61
558.475	29.54
558.9	29.46
559.325	29.39
559.75	29.3
560.175	29.22
560.6	29.12
561.025	29.02
561.449	28.91
561.874	28.78
562.299	28.65
562.723	28.51
563.148	28.37
563.572	28.22
563.997	28.06
564.421	27.89
564.846	27.72
565.27	27.54
565.694	27.37
566.118	27.19
566.542	27.03
566.966	26.85
567.39	26.69
567.814	26.52
568.238	26.34
568.662	26.16
569.086	25.98
569.509	25.79
569.933	25.62
570.357	25.43
570.78	25.25
571.204	25.06
571.627	24.9
572.05	24.71
572.474	24.57
572.897	24.42
573.32	24.26
573.743	24.12
574.166	23.98
574.589	23.86
575.012	23.73
575.435	23.6
575.858	23.48
576.281	23.36
576.704	23.26
577.126	23.13
577.549	23.03
577.972	22.92
578.394	22.82
578.817	22.72
579.239	22.62
579.661	22.53
580.084	22.43
580.506	22.35
580.928	22.27
581.35	22.19
581.772	22.09
582.194	21.99
582.616	21.91
583.038	21.82
583.46	21.75
583.882	21.67
584.303	21.57
584.725	21.51
585.147	21.43
585.568	21.35
585.99	21.28
586.411	21.22
586.833	21.17
587.254	21.08
587.675	21.02
588.096	20.96
588.518	20.89
588.939	20.84
589.36	20.77
589.781	20.74
590.202	20.69
590.623	20.63
591.043	20.57
591.464	20.53
591.885	20.48
592.305	20.44
592.726	20.4
593.147	20.38
593.567	20.34
593.987	20.3
594.408	20.25
594.828	20.2
595.248	20.18
595.669	20.15
596.089	20.1
596.509	20.07
596.929	20.03
597.349	20
597.769	19.95
598.189	19.91
598.608	19.86
599.028	19.84
599.448	19.79
599.867	19.74
600.287	19.69
600.706	19.64
601.126	19.6
601.545	19.54
601.965	19.49
602.384	19.43
602.803	19.37
603.222	19.32
603.641	19.23
604.061	19.16
604.48	19.09
604.898	19
605.317	18.93
605.736	18.85
606.155	18.78
606.574	18.68
606.992	18.6
607.411	18.51
607.829	18.41
608.248	18.31
608.666	18.24
609.085	18.15
609.503	18.08
609.921	17.99
610.339	17.91
610.758	17.83
611.176	17.75
611.594	17.68
612.012	17.6
612.43	17.54
612.847	17.47
613.265	17.38
613.683	17.3
614.101	17.23
614.518	17.15
614.936	17.06
615.353	16.96
615.771	16.88
616.188	16.8
616.606	16.74
617.023	16.65
617.44	16.6
617.857	16.54
618.274	16.48
618.691	16.41
619.108	16.36
619.525	16.32
619.942	16.28
620.359	16.23
620.776	16.2
621.192	16.15
621.609	16.13
622.026	16.09
622.442	16.07
622.859	16.05
623.275	16.02
623.691	15.99
624.108	15.96
624.524	15.95
624.94	15.93
625.356	15.92
625.772	15.91
626.188	15.89
626.604	15.88
627.02	15.87
627.436	15.85
627.852	15.84
628.268	15.84
628.683	15.82
629.099	15.8
629.514	15.78
629.93	15.76
630.345	15.73
630.761	15.69
631.176	15.64
631.591	15.58
632.007	15.53
632.422	15.48
632.837	15.41
633.252	15.35
633.667	15.27
634.082	15.19
634.497	15.1
634.911	15.01
635.326	14.92
635.741	14.82
636.155	14.72
636.57	14.6
636.984	14.49
637.399	14.36
637.813	14.23
638.228	14.1
638.642	13.96
639.056	13.82
639.47	13.69
639.884	13.54
640.298	13.4
640.712	13.27
641.126	13.13
641.54	12.99
641.954	12.86
642.368	12.73
642.781	12.6
643.195	12.49
643.609	12.37
644.022	12.25
644.436	12.14
644.849	12.03
645.262	11.92
645.676	11.82
646.089	11.73
646.502	11.65
646.915	11.58
647.328	11.5
647.741	11.43
648.154	11.36
648.567	11.3
648.98	11.23
649.393	11.19
649.805	11.15
650.218	11.09
650.631	11.05
651.043	11
651.456	10.96
651.868	10.91
652.28	10.86
652.693	10.82
653.105	10.79
653.517	10.74
653.929	10.69
654.341	10.63
654.753	10.58
655.165	10.51
655.577	10.45
655.989	10.37
656.401	10.3
656.813	10.23
657.224	10.14
657.636	10.04
658.047	9.96
658.459	9.88
658.87	9.77
659.282	9.68
659.693	9.6
660.104	9.51
660.515	9.42
660.926	9.33
661.338	9.24
661.749	9.16
662.159	9.09
662.57	9.02
662.981	8.95
663.392	8.89
663.803	8.84
664.213	8.77
664.624	8.72
665.035	8.67
665.445	8.63
665.855	8.59
666.266	8.56
666.676	8.52
667.086	8.49
667.497	8.45
667.907	8.44
668.317	8.41
668.727	8.39
669.137	8.37
669.547	8.37
669.956	8.35
670.366	8.35
670.776	8.33
671.186	8.34
671.595	8.33
672.005	8.35
672.414	8.36
672.824	8.36
673.233	8.39
673.642	8.41
674.052	8.42
674.461	8.43
674.87	8.46
675.279	8.5
675.688	8.53
676.097	8.57
676.506	8.6
676.915	8.64
677.323	8.68
677.732	8.72
678.141	8.78
678.549	8.83
678.958	8.89
679.366	8.97
679.775	9.03
680.183	9.12
680.592	9.21
681	9.32
681.408	9.42
681.816	9.55
682.224	9.69
682.632	9.85
683.04	10.02
683.448	10.21
683.856	10.4
684.264	10.62
684.671	10.87
685.079	11.13
685.487	11.42
685.894	11.73
686.302	12.06
686.709	12.42
687.116	12.79
687.524	13.2
687.931	13.64
688.338	14.09
688.745	14.58
689.152	15.07
689.559	15.61
689.966	16.14
690.373	16.72
690.78	17.3
691.187	17.9
691.593	18.52
692	19.15
692.407	19.77
692.813	20.42
693.22	21.07
693.626	21.72
694.032	22.38
694.439	23.06
694.845	23.72
695.251	24.4
695.657	25.06
696.063	25.73
696.469	26.43
696.875	27.1
697.281	27.77
697.687	28.41
698.093	29.09
698.498	29.73
698.904	30.36
699.31	30.99
699.715	31.58
700.12	32.18
700.526	32.75
700.931	33.32
701.337	33.86
701.742	34.41
702.147	34.96
702.552	35.49
702.957	36
703.362	36.49
703.767	36.97
704.172	37.45
704.577	37.93
704.981	38.43
705.386	38.9
705.791	39.38
706.195	39.83
706.6	40.27
707.004	40.68
707.408	41.11
707.813	41.55
708.217	41.97
708.621	42.39
709.025	42.75
709.43	43.13
709.834	43.52
710.237	43.89
710.641	44.26
711.045	44.63
711.449	45
711.853	45.37
712.256	45.71
712.66	46.06
713.064	46.37
713.467	46.72
713.87	47.05
714.274	47.36
714.677	47.66
715.08	47.95
715.484	48.24
715.887	48.54
716.29	48.79
716.693	49.08
717.096	49.36
717.499	49.67
717.901	49.96
718.304	50.22
718.707	50.49
719.109	50.76
719.512	51.04
719.915	51.28
720.317	51.51
720.719	51.74
721.122	51.96
721.524	52.2
721.926	52.41
722.328	52.62
722.731	52.83
723.133	53.02
723.535	53.2
723.937	53.38
724.338	53.58
724.74	53.77
725.142	53.99
725.544	54.16
725.945	54.31
726.347	54.45
726.748	54.61
727.15	54.74
727.551	54.85
727.952	54.99
728.354	55.15
728.755	55.24
729.156	55.34
729.557	55.42
729.958	55.51
730.359	55.61
730.76	55.72
731.161	55.79
731.562	55.9
731.962	56.01
732.363	56.1
732.763	56.18
733.164	56.26
733.564	56.33
733.965	56.4
734.365	56.5
734.766	56.58
735.166	56.66
735.566	56.74
735.966	56.82
736.366	56.85
736.766	56.87
737.166	56.93
737.566	56.98
737.966	57.03
738.365	57.07
738.765	57.11
739.165	57.13
739.564	57.18
739.964	57.18
740.363	57.19
740.763	57.23
741.162	57.31
741.561	57.31
741.96	57.33
742.36	57.36
742.759	57.42
743.158	57.46
743.557	57.49
743.955	57.51
744.354	57.58
744.753	57.65
745.152	57.74
745.55	57.77
745.949	57.86
746.348	57.94
746.746	57.98
747.144	58
747.543	58.03
747.941	58.06
748.339	58.08
748.737	58.11
749.136	58.11
749.534	58.07
749.932	58.07
750.33	58.04
750.727	58.05
751.125	58.05
751.523	58.05
751.921	58.06
752.318	58.08
752.716	58.09
753.113	58.08
753.511	58.07
753.908	58.11
754.305	58.1
754.703	58.09
755.1	58.08
755.497	58.08
755.894	58.07
756.291	58.05
756.688	58.01
757.085	58
757.482	57.97
757.878	57.97
758.275	57.94
758.672	57.94
759.068	57.94
759.465	57.93
759.861	57.91
760.258	57.92
760.654	57.91
761.05	57.92
761.447	57.92
761.843	57.92
762.239	57.93
762.635	57.91
763.031	57.91
763.427	57.91
763.822	57.91
764.218	57.92
764.614	57.93
765.01	57.94
765.405	57.93
765.801	57.91
766.196	57.92
766.592	57.89
766.987	57.89
767.382	57.87
767.778	57.88
768.173	57.9
768.568	57.9
768.963	57.89
769.358	57.9
769.753	57.89
770.148	57.89
770.542	57.87
770.937	57.89
771.332	57.9
771.726	57.92
772.121	57.91
772.515	57.89
772.91	57.87
773.304	57.89
773.699	57.84
774.093	57.85
774.487	57.86
774.881	57.9
775.275	57.87
775.669	57.87
776.063	57.87
776.457	57.89
776.851	57.88
777.245	57.86
777.638	57.84
778.032	57.86
778.425	57.89
778.819	57.89
779.212	57.91
779.606	57.94
779.999	57.94
780.392	57.94
780.786	57.93
781.179	57.95
781.572	58.01
781.965	58.03
782.358	58.06
782.751	58.03
783.143	58.01
783.536	57.97
783.929	57.99
784.322	57.99
784.714	58
785.107	58.07
785.499	58.05
785.891	58.06
786.284	58.09
786.676	58.1
787.068	58.14
787.46	58.18
787.852	58.21
788.245	58.18
788.636	58.22
789.028	58.23
789.42	58.18
789.812	58.22
790.204	58.24
790.595	58.23
790.987	58.25
791.378	58.28
791.77	58.26
792.161	58.25
792.553	58.3
792.944	58.29
793.335	58.33
793.726	58.34
794.117	58.31
794.508	58.28
794.899	58.28
795.29	58.28
795.681	58.3
796.072	58.33
796.463	58.37
796.853	58.36
797.244	58.38
797.634	58.35
798.025	58.38
798.415	58.42
798.806	58.44
799.196	58.44
799.586	58.46
799.976	58.44
800.366	58.47
800.756	58.52
801.146	58.54
801.536	58.57
801.926	58.6
802.316	58.62
802.706	58.64
803.095	58.66
803.485	58.72
803.874	58.72
804.264	58.75
804.653	58.79
805.043	58.77
805.432	58.8
805.821	58.81
806.21	58.84
806.599	58.86
806.988	58.89
807.377	58.9
807.766	58.91
808.155	58.93
808.544	58.94
808.933	58.93
809.321	58.94
809.71	58.94
810.098	58.94
810.487	58.92
810.875	58.92
811.264	58.93
811.652	58.98
812.04	58.98
812.428	59.05
812.816	59.06
813.204	59.09
813.592	59.09
813.98	59.14
814.368	59.17
814.756	59.2
815.144	59.21
815.531	59.21
815.919	59.19
816.306	59.21
816.694	59.18
817.081	59.2
817.469	59.21
817.856	59.24
818.243	59.22
818.63	59.21
819.017	59.21
819.404	59.19
819.791	59.21
820.178	59.21
820.565	59.18
820.952	59.19
821.339	59.18
821.725	59.18
822.112	59.19
822.498	59.21
822.885	59.22
823.271	59.22
823.657	59.22
824.044	59.22
824.43	59.24
824.816	59.25
825.202	59.24
825.588	59.24
825.974	59.21
826.36	59.19
826.746	59.17
827.132	59.17
827.517	59.16
827.903	59.19
828.289	59.21
828.674	59.19
829.06	59.17
829.445	59.13
829.83	59.11
830.216	59.08
830.601	59.06
830.986	59.03
831.371	59.01
831.756	59.02
832.141	58.97
832.526	58.95
832.911	58.93
833.295	58.93
833.68	58.93
834.065	58.93
834.449	58.93
834.834	58.92
835.218	58.94
835.603	58.94
835.987	58.89
836.371	58.87
836.755	58.81
837.139	58.78
837.524	58.77
837.908	58.77
838.291	58.76
838.675	58.73
839.059	58.72
839.443	58.67
839.827	58.64
840.21	58.65
840.594	58.66
840.977	58.65
841.361	58.66
841.744	58.63
842.127	58.63
842.511	58.61
842.894	58.63
843.277	58.66
843.66	58.63
844.043	58.66
844.426	58.64
844.809	58.63
845.191	58.65
845.574	58.65
845.957	58.69
846.339	58.68
846.722	58.7
847.104	58.7
847.487	58.69
847.869	58.7
848.252	58.7
848.634	58.7
849.016	58.7
849.398	58.72
849.78	58.74
850.162	58.71
850.544	58.69
850.926	58.73
851.307	58.71
851.689	58.7
852.071	58.74
852.452	58.74
852.834	58.76
853.215	58.78
853.597	58.8
853.978	58.79
854.359	58.81
854.741	58.83
855.122	58.8
855.503	58.8
855.884	58.79
856.265	58.77
856.646	58.77
857.026	58.78
857.407	58.77
857.788	58.75
858.169	58.8
858.549	58.81
858.93	58.82
859.31	58.86
859.69	58.89
860.071	58.94
860.451	58.94
860.831	58.96
861.211	58.95
861.591	58.94
861.971	58.94
862.351	58.95
862.731	58.95
863.111	58.95
863.491	58.91
863.87	58.9
864.25	58.88
864.629	58.89
865.009	58.89
865.388	58.89
865.768	58.9
866.147	58.89
866.526	58.86
866.905	58.86
867.284	58.87
867.663	58.9
868.042	58.9
868.421	58.91
868.8	58.91
869.179	58.88
869.558	58.87
869.936	58.86
870.315	58.89
870.693	58.89
871.072	58.93
871.45	58.94
871.828	58.92
872.207	58.95
872.585	58.91
872.963	58.93
873.341	58.94
873.719	58.96
874.097	58.98
874.475	58.97
874.853	59
875.23	58.98
875.608	58.95
875.986	58.98
876.363	58.97
876.741	58.99
877.118	59.01
877.495	59.01
877.873	59.04
878.25	59.07
878.627	59.08
879.004	59.08
879.381	59.09
879.758	59.09
880.135	59.1
880.512	59.08
880.889	59.09
881.265	59.06
881.642	59.08
882.019	59.07
882.395	59.02
882.772	59
883.148	58.97
883.524	58.95
883.901	58.95
884.277	58.89
884.653	58.88
885.029	58.86
885.405	58.87
885.781	58.83
886.157	58.82
886.532	58.82
886.908	58.81
887.284	58.82
887.659	58.78
888.035	58.74
888.411	58.76
888.786	58.77
889.161	58.78
889.537	58.76
889.912	58.77
890.287	58.75
890.662	58.73
891.037	58.73
891.412	58.7
891.787	58.69
892.162	58.72
892.536	58.69
892.911	58.69
893.286	58.63
893.66	58.61
894.035	58.61
894.409	58.61
894.784	58.6
895.158	58.57
895.532	58.58
895.906	58.56
896.281	58.54
896.655	58.53
897.029	58.5
897.402	58.5
897.776	58.51
898.15	58.51
898.524	58.51
898.898	58.53
899.271	58.54
899.645	58.56
900.018	58.6
900.392	58.62
900.765	58.66
901.138	58.66
901.511	58.68
901.884	58.7
902.258	58.69
902.631	58.73
903.003	58.72
903.376	58.73
903.749	58.73
904.122	58.76
904.495	58.76
904.867	58.79
905.24	58.85
905.612	58.89
905.985	58.89
906.357	58.87
906.729	58.87
907.102	58.89
907.474	58.92
907.846	58.95
908.218	58.94
908.59	58.96
908.962	58.95
909.334	58.94
909.705	58.91
910.077	58.93
910.449	58.97
910.82	58.95
911.192	58.95
911.563	58.89
911.935	58.84
912.306	58.85
912.677	58.85
913.048	58.83
913.419	58.81
913.79	58.84
914.161	58.84
914.532	58.87
914.903	58.87
915.274	58.91
915.645	58.97
916.015	59.02
916.386	59.03
916.756	59.02
917.127	59.06
917.497	59.06
917.868	59.06
918.238	59.03
918.608	59.04
918.978	59.08
919.348	59.06
919.718	59.04
920.088	59.02
920.458	59
920.828	59
921.198	58.98
921.567	58.99
921.937	59.01
922.306	59.05
922.676	59.05
923.045	58.98
923.415	58.96
923.784	58.99
924.153	59.02
924.522	59.04
924.891	59.02
925.26	59.01
925.629	59.04
925.998	59.01
926.367	59.02
926.736	59
927.104	59.07
927.473	59.08
927.842	59.01
928.21	59.04
928.578	59.04
928.947	59.08
929.315	59.09
929.683	59.05
930.051	59.02
930.42	58.99
930.788	58.94
931.156	58.88
931.523	58.83
931.891	58.84
932.259	58.78
932.627	58.71
932.994	58.64
933.362	58.57
933.729	58.53
934.097	58.52
934.464	58.51
934.831	58.47
935.199	58.43
935.566	58.39
935.933	58.33
936.3	58.26
936.667	58.26
937.034	58.24
937.401	58.27
937.767	58.3
938.134	58.28
938.501	58.28
938.867	58.36
939.234	58.42
939.6	58.48
939.967	58.57
940.333	58.68
940.699	58.77
941.065	58.81
941.431	58.84
941.798	58.89
942.163	58.94
942.529	59
942.895	59.02
943.261	59.07
943.627	59.15
943.992	59.18
944.358	59.22
944.723	59.22
945.089	59.21
945.454	59.29
945.82	59.27
946.185	59.32
946.55	59.26
946.915	59.31
947.28	59.27
947.645	59.26
948.01	59.25
948.375	59.21
948.74	59.21
949.104	59.24
949.469	59.2
949.834	59.14
950.198	59.09
950.562	59.09
950.927	59
951.291	58.92
951.655	58.83
952.02	58.79
952.384	58.72
952.748	58.62
953.112	58.56
953.476	58.46
953.839	58.39
954.203	58.31
954.567	58.25
954.931	58.19
955.294	58.17
955.658	58.25
956.021	58.21
956.385	58.17
956.748	58.14
957.111	58.1
957.474	58.11
957.837	58.14
958.2	58.12
958.563	58.1
958.926	58.14
959.289	58.11
959.652	57.99
960.015	57.93
960.377	57.88
960.74	57.89
961.102	57.88
961.465	57.89
961.827	57.87
962.189	57.87
962.552	57.81
962.914	57.79
963.276	57.83
963.638	57.86
964	57.87
964.362	57.93
964.724	57.88
965.085	57.83
965.447	57.79
965.809	57.82
966.17	57.83
966.532	57.89
966.893	57.84
967.255	57.81
967.616	57.79
967.977	57.76
968.338	57.71
968.699	57.78
969.061	57.81
969.421	57.82
969.782	57.76
970.143	57.7
970.504	57.69
970.865	57.73
971.225	57.68
971.586	57.65
971.946	57.65
972.307	57.67
972.667	57.57
973.027	57.63
973.388	57.58
973.748	57.66
974.108	57.78
974.468	57.76
974.828	57.77
975.188	57.87
975.548	57.89
975.907	57.94
976.267	57.98
976.627	58.04
976.986	57.93
977.346	57.9
977.705	57.8
978.064	57.75
978.424	57.74
978.783	57.64
979.142	57.58
979.501	57.58
979.86	57.6
980.219	57.59
980.578	57.63
980.937	57.62
981.296	57.64
981.654	57.67
982.013	57.66
982.371	57.69
982.73	57.75
983.088	57.73
983.447	57.72
983.805	57.71
984.163	57.65
984.521	57.57
984.879	57.64
985.237	57.7
985.595	57.73
985.953	57.67
986.311	57.62
986.669	57.61
987.026	57.65
987.384	57.64
987.741	57.51
988.099	57.59
988.456	57.59
988.814	57.62
989.171	57.63
989.528	57.7
989.885	57.8
990.242	57.81
990.599	57.89
990.956	57.94
991.313	57.98
991.67	58.08
992.027	58.18
992.383	58.28
992.74	58.37
993.096	58.38
993.453	58.3
993.809	58.27
994.165	58.35
994.522	58.35
994.878	58.35
995.234	58.36
995.59	58.32
995.946	58.3
996.302	58.39
996.658	58.43
997.013	58.42
997.369	58.48
997.725	58.56
998.08	58.64
998.436	58.64
998.791	58.73
999.147	58.71
999.502	58.84
999.857	58.82
1000.212	58.73
1000.567	58.76
1000.922	58.83
1001.277	58.91
1001.632	58.79
1001.987	58.69
1002.342	58.61
1002.696	58.57
1003.051	58.67
1003.406	58.66
1003.76	58.67
1004.114	58.69
1004.469	58.62
1004.823	58.8
1005.177	58.74
1005.531	58.95
1005.885	59.05
1006.239	59.16
1006.593	59.28
1006.947	59.42
1007.301	59.44
1007.655	59.42
1008.008	59.54
1008.362	59.61
1008.715	59.48
1009.069	59.62
1009.422	59.7
1009.776	59.81
1010.129	59.97
1010.482	59.95
1010.835	60.01
1011.188	60.15
1011.541	60.22
1011.894	60.37
1012.247	60.42
1012.6	60.53
1012.952	60.46
1013.305	60.5
1013.657	60.39
1014.01	60.37
1014.362	60.45
1014.715	60.34
1015.067	60.38
1015.419	60.63
1015.771	60.46
1016.123	60.58
1016.475	60.61
1016.827	60.64
1017.179	60.72
1017.531	61.04
1017.883	61.08
1018.234	61.17
1018.586	61.39
1018.938	61.51
1019.289	61.37
1019.64	61.39
1019.992	61.27
1020.343	61.3
1020.694	61.5
1021.045	61.64
1021.396	61.6
1021.747	61.88
1022.098	62.11
1022.449	61.91
1022.8	61.91
1023.151	61.98
1023.501	62.36
1023.852	62.51
1024.202	62.61
1024.553	62.49
1024.903	62.28
1025.253	62.46
1025.604	62.38
1025.954	62
1026.304	62.51
1026.654	62.58
1027.004	62.6
1027.354	62.47
1027.703	62.37
1028.053	62.55
1028.403	62.73
1028.753	62.87
1029.102	63.03
1029.452	63.33
1029.801	63.77
1030.15	63.48
1030.499	63.52
897.758	971.32
901.051	979.59
904.343	977.9
907.636	994.36
910.928	968.34
914.22	966.41
917.511	952.6
920.803	914.11
924.094	907.89
927.384	884.15
930.675	854.75
933.965	851.47
937.255	800.28
940.544	769.02
943.834	734.28
947.123	727.1
950.411	686.7
953.7	673.08
956.988	636.28
960.276	613.77
963.563	604.95
966.851	579.9
970.138	575.58
973.424	559.6
976.711	560.58
979.997	534.23
983.283	532.37
986.568	521.36
989.853	507.31
993.138	498.56
996.423	480.3
999.708	466.93
1002.992	462.96
1006.275	443.52
1009.559	440.15
1012.842	425.19
1016.125	413.68
1019.408	405.08
1022.69	402.05
1025.972	393.27
1029.254	384.52
1032.536	377.68
1035.817	371.88
1039.098	367.07
1042.379	360.36
1045.659	355.45
1048.939	349.39
1052.219	341.37
1055.498	339.21
1058.778	330.33
1062.057	324.44
1065.335	321.46
1068.614	318.33
1071.892	314.6
1075.17	305.74
1078.447	300.64
1081.724	298.41
1085.001	294.62
1088.278	292.01
1091.554	284.89
1094.83	285.1
1098.106	282.58
1101.382	279.63
1104.657	277.46
1107.932	273.18
1111.206	274.82
1114.481	267.98
1117.755	266.2
1121.029	264.4
1124.302	262.8
1127.575	259.14
1130.848	255.97
1134.121	254.08
1137.393	253.55
1140.665	248.75
1143.937	246.53
1147.208	245.13
1150.48	244.7
1153.75	240.82
1157.021	238.27
1160.291	238.23
1163.561	235.45
1166.831	235.28
1170.101	233.07
1173.37	232.5
1176.639	232.97
1179.907	231.62
1183.176	228.87
1186.444	228.89
1189.711	228.92
1192.979	228
1196.246	226.03
1199.513	227.03
1202.78	226.19
1206.046	226.21
1209.312	224.12
1212.578	224.22
1215.843	225.04
1219.108	224.44
1222.373	228.17
1225.638	229.75
1228.902	232.65
1232.166	232.07
1235.43	233.3
1238.693	236.61
1241.956	237.56
1245.219	241.19
1248.482	242.19
1251.744	242.63
1255.006	242.9
1258.268	237.51
1261.529	235.75
1264.79	235.13
1268.051	234.3
1271.312	231.68
1274.572	227.86
1277.832	226.39
1281.092	222.22
1284.351	220.24
1287.61	220.6
1290.869	217.04
1294.128	215.77
1297.386	215.99
1300.644	213.18
1303.902	214.64
1307.159	213.95
1310.416	214.43
1313.673	213.29
1316.93	215.9
1320.186	215.36
1323.442	215.94
1326.697	219
1329.953	220.44
1333.208	220.34
1336.463	223.05
1339.717	223.37
1342.972	226.47
1346.226	227.36
1349.479	228.64
1352.733	229.38
1355.986	230.45
1359.238	229.42
1362.491	231.04
1365.743	232.33
1368.995	233.09
1372.247	231.7
1375.498	231.07
1378.749	230.87
1382	229.17
1385.251	229.38
1388.501	227.33
1391.751	227.36
1395	226.42
1398.25	224.3
1401.499	221.19
1404.748	220.45
1407.996	218.05
1411.244	217.08
1414.492	215.31
1417.74	212.22
1420.987	209.19
1424.234	208.75
1427.481	205.96
1430.728	205.77
1433.974	203.89
1437.22	202.63
1440.465	201.65
1443.711	199.56
1446.956	198.08
1450.201	196.38
1453.445	194.87
1456.689	193.71
1459.933	190.62
1463.177	189.32
1466.42	187.01
1469.663	184.69
1472.906	183.83
1476.148	179.03
1479.391	177.81
1482.633	176.6
1485.874	174.11
1489.115	173.22
1492.356	171.37
1495.597	170.97
1498.838	169.5
1502.078	168.14
1505.318	167.72
1508.557	167.7
1511.797	167.91
1515.036	166.7
1518.274	165.9
1521.513	165.46
1524.751	165.29
1527.989	165.51
1531.227	164.97
1534.464	164.85
1537.701	165.04
1540.938	164.41
1544.174	163.01
1547.41	163.12
1550.646	162.44
1553.882	162.68
1557.117	161.12
1560.352	159.96
1563.587	159.59
1566.821	158.74
1570.055	158.23
1573.289	155.68
1576.523	156.19
1579.756	155.05
1582.989	154.49
1586.222	154.15
1589.454	153.98
1592.686	155.11
1595.918	154.89
1599.15	154.39
1602.381	154.87
1605.612	154.12
1608.843	155.24
1612.073	154.81
1615.303	155.51
1618.533	155.87
1621.762	156.41
1624.992	156.33
1628.221	155.54
1631.449	155.41
1634.678	155.33
1637.906	156.45
1641.134	156.14
1644.361	156.08
1647.588	156.51
1650.815	156.21
1654.042	155.51
1657.269	155.9
1660.495	155.9
1663.72	155.56
1666.946	156.39
1670.171	157.01
1673.396	155.97
1676.621	156.25
1679.845	156.95
1683.069	156.77
1686.293	157.38
1689.517	158.01
1692.74	157.93
1695.963	158.49
1699.185	160.12
1702.408	159.38
1705.63	159.78
1708.852	160.09
1712.073	160.49
1715.294	160.29
1718.515	161.62
1721.736	161.4
1724.956	161.78
1728.176	161.8
1731.396	162.92
1734.616	161.88
1737.835	163.27
1741.054	162.04
1744.272	162.26
1747.491	163.82
1750.709	164.08
1753.927	163.67
1757.144	163.33
1760.361	163.68
1763.578	164.25
1766.795	163.51
1770.011	165.26
1773.227	164.65
1776.443	166.45
1779.658	166.97
1782.874	166.8
1786.089	166.64
1789.303	167.05
1792.518	168.65
1795.732	168.67
1798.945	169.81
1802.159	170.08
1805.372	169.77
1808.585	172.67
1811.797	173.2
1815.01	174
1818.222	174.52
1821.434	177.08
1824.645	177.1
1827.856	179.73
1831.067	180.97
1834.278	180.84
1837.488	182.26
1840.698	183.22
1843.908	181.59
1847.117	182.48
1850.326	183.49
1853.535	181.91
1856.744	183.49
1859.952	183.82
1863.16	182.32
1866.368	181.15
1869.575	181.17
1872.782	178.15
1875.989	177.09
1879.196	176
1882.402	174.12
1885.608	173
1888.814	172.96
1892.019	171.8
1895.224	170.27
1898.429	169.32
1901.634	169.42
1904.838	169.98
1908.042	170.65
1911.246	170.59
1914.449	170.9
1917.652	171.74
1920.855	171.56
1924.058	172.32
1927.26	170.96
1930.462	171.02
1933.664	173.14
1936.865	170.91
1940.066	170.2
1943.267	169.83
1946.467	170.55
1949.668	171.31
1952.868	172.6
1956.067	173.74
1959.267	172.77
1962.466	173.55
1965.665	173.22
1968.863	173.3
1972.061	177.42
1975.259	179.05
1978.457	180.36
1981.654	181.66
1984.852	182.62
1988.048	182.07
1991.245	183.39
1994.441	186.13
1997.637	187.59
2000.833	191.68
2004.028	194.44
2007.223	194.02
2010.418	195.87
2013.613	199.56
2016.807	201.57
2020.001	203.6
2023.194	206.56
2026.388	211.24
2029.581	216.29
2032.774	217.33
2035.966	221.28
2039.158	221.82
2042.35	226.54
2045.542	228.59
2048.733	232.02
2051.924	235.47
2055.115	238.03
2058.306	238.99
2061.496	240.88
2064.686	241.61
2067.875	247.44
2071.065	247.91
2074.254	245.77
2077.442	250.83
2080.631	250.84
2083.819	253.12
2087.007	252.82
2090.195	257.4
2093.382	259.86
2096.569	258.8
2099.756	262.15
2102.942	261.82
2106.128	264.81
2109.314	271.79
2112.5	269.61
2115.685	275.41
2118.87	275.89
2122.055	282.03
2125.239	282.47
2128.424	285.65
2131.608	287.87
2134.791	293.37
2137.974	293.82
2141.157	294.24
2144.34	294.94
2147.523	299.94
2150.705	299.07
2153.887	301.78
2157.068	302.01
2160.25	300.17
2163.431	302.81
2166.611	306.6
2169.792	309.16
2172.972	313.96
2176.152	316.69
2179.331	320.05
2182.511	323.55
2185.69	327.1
2188.868	333
2192.047	333.63
2195.225	343.98
2198.403	350.42
2201.58	356.35
2204.758	364.91
2207.935	369.87
2211.111	378.06
2214.288	381.14
2217.464	382.56
2220.64	389.84
2223.815	394.98
2226.991	411.05
2230.166	411.28
2233.34	417.15
2236.515	423.57
2239.689	423.32
2242.863	428.09
2246.036	437.35
2249.209	434.9
2252.382	443.52
2255.555	454.47
2258.727	456.91
2261.9	458.18
2265.071	462.52
2268.243	471.6
2271.414	478.59
2274.585	486.49
2277.756	489.36
2280.926	494.41
2284.096	507.14
2287.266	517.01
2290.436	521.62
2293.605	531.62
2296.774	549.56
2299.942	565.28
2303.111	567.77
2306.279	578.77
2309.447	590.22
2312.614	606.47
2315.781	621.38
2318.948	648.48
2322.115	638.99
2325.281	673.92
2328.447	662.2
2331.613	687.27
2334.779	681.7
2337.944	707.77
2341.109	714.74
2344.274	732
2347.438	758.2
2350.602	758.95
2353.766	782.92
2356.929	794.97
2360.092	789.07
2363.255	844.93
2366.418	841.65
2369.58	858.66
2372.742	917.85
2375.904	940.8
2379.066	935.3
2382.227	918.13
2385.388	994.39
2388.548	993.08
2391.709	1008.21
2394.869	1119.94
2398.029	1074.57
2401.188	1105.9
2404.347	1098.07
2407.506	1075.22
2410.665	1104.07
2413.823	1171.97
2416.981	1235.68
2420.139	1197.77
2423.296	1185.4
2426.453	1235.83
2429.61	1191.97
2432.767	1241.7
2435.923	1227.38
2439.079	1345.32
2442.235	1368.37
2445.391	1360.12
2448.546	1345.11
2451.701	1313.29
2454.855	1310.29
2458.009	1393.29
2461.163	1448.44
2464.317	1495.81
2467.471	1536.84
2470.624	1538.29
2473.777	1492.32
2476.929	1448.28
2480.082	1402.4
2483.234	1390.24
2486.385	1459.53
2489.537	1465.32
2492.688	1516.67
2495.839	1473.97
2498.989	1442.45
2502.14	1444.36
2505.29	1458.34
2508.439	1486.82
2511.589	1487.44
2514.738	1620.28
2517.887	1582.02
2521.035	1669.56
2524.183	1682.15
2527.331	1693.44
2530.479	1682.18
2533.627	1696.55
