Data from N_3_DEC_OH_4N_Splice17_14-22-28-314.txt Node
Date: Sat Mar 07 14:22:28 EST 2020
User: sa697716
Spectrometer: NQ5500242
Trigger mode: 0
Integration Time (sec): 1.450000E-1
Scans to average: 20
Nonlinearity correction enabled: false
Boxcar width: 5
Storing dark spectrum: false
XAxis mode: Wavelengths
Number of Pixels in Spectrum: 512
>>>>>Begin Spectral Data<<<<<
187.83	160.25
188.298	171.19
188.766	145.04
189.233	124.79
189.701	130.88
190.169	148.81
190.636	193.08
191.104	226.73
191.571	266.61
192.039	48.01
192.506	76.37
192.974	177.74
193.441	244.91
193.908	94.58
194.375	71.6
194.842	42.79
195.31	110.85
195.777	309.28
196.244	71.25
196.711	69.89
197.177	71.72
197.644	72.56
198.111	71.86
198.578	72.33
199.045	73.02
199.511	72.99
199.978	73.19
200.445	73.31
200.911	73.28
201.378	73.43
201.844	73.37
202.31	72.77
202.777	72.51
203.243	72.22
203.709	71.83
204.176	70.8
204.642	70.1
205.108	69.72
205.574	69.09
206.04	68.16
206.506	67.31
206.972	67.03
207.438	66.42
207.903	65.34
208.369	64.17
208.835	62.63
209.301	61.28
209.766	59.57
210.232	57.51
210.697	55.57
211.163	54.01
211.628	52.55
212.094	50.78
212.559	49.49
213.024	48.21
213.49	46.91
213.955	45.8
214.42	44.65
214.885	43.32
215.35	41.67
215.815	39.26
216.28	36.39
216.745	33.33
217.21	30.21
217.675	27.24
218.14	24.56
218.604	22.3
219.069	20.33
219.534	18.72
219.998	17.4
220.463	16.29
220.927	15.38
221.392	14.62
221.856	13.99
222.32	13.46
222.785	12.98
223.249	12.62
223.713	12.26
224.177	11.94
224.642	11.63
225.106	11.33
225.57	11.04
226.034	10.8
226.497	10.6
226.961	10.37
227.425	10.16
227.889	9.97
228.353	9.76
228.816	9.56
229.28	9.39
229.744	9.22
230.207	9.06
230.671	8.91
231.134	8.76
231.597	8.62
232.061	8.48
232.524	8.35
232.987	8.24
233.45	8.13
233.914	8.02
234.377	7.9
234.84	7.8
235.303	7.7
235.766	7.62
236.229	7.54
236.691	7.44
237.154	7.37
237.617	7.29
238.08	7.21
238.542	7.13
239.005	7.07
239.468	7.01
239.93	6.94
240.393	6.9
240.855	6.82
241.317	6.75
241.78	6.68
242.242	6.61
242.704	6.56
243.166	6.49
243.629	6.43
244.091	6.37
244.553	6.31
245.015	6.24
245.477	6.18
245.939	6.13
246.4	6.08
246.862	6.03
247.324	5.99
247.786	5.92
248.247	5.88
248.709	5.83
249.17	5.78
249.632	5.74
250.093	5.71
250.555	5.66
251.016	5.63
251.477	5.59
251.939	5.56
252.4	5.52
252.861	5.49
253.322	5.46
253.783	5.43
254.244	5.41
254.705	5.37
255.166	5.33
255.627	5.3
256.088	5.27
256.549	5.24
257.009	5.2
257.47	5.17
257.931	5.14
258.391	5.1
258.852	5.06
259.312	5.03
259.773	4.99
260.233	4.97
260.694	4.93
261.154	4.89
261.614	4.86
262.074	4.82
262.534	4.79
262.994	4.77
263.455	4.75
263.915	4.73
264.374	4.71
264.834	4.7
265.294	4.68
265.754	4.66
266.214	4.65
266.673	4.63
267.133	4.62
267.593	4.61
268.052	4.6
268.512	4.58
268.971	4.57
269.431	4.56
269.89	4.54
270.349	4.53
270.809	4.52
271.268	4.52
271.727	4.51
272.186	4.5
272.645	4.5
273.104	4.49
273.563	4.48
274.022	4.48
274.481	4.47
274.94	4.46
275.399	4.45
275.857	4.44
276.316	4.44
276.775	4.42
277.233	4.42
277.692	4.42
278.15	4.41
278.609	4.4
279.067	4.39
279.525	4.39
279.984	4.38
280.442	4.38
280.9	4.39
281.358	4.38
281.816	4.39
282.274	4.38
282.732	4.38
283.19	4.38
283.648	4.38
284.106	4.38
284.564	4.38
285.021	4.39
285.479	4.38
285.937	4.38
286.394	4.37
286.852	4.36
287.309	4.35
287.767	4.33
288.224	4.31
288.682	4.3
289.139	4.29
289.596	4.28
290.053	4.25
290.511	4.23
290.968	4.22
291.425	4.2
291.882	4.18
292.339	4.17
292.796	4.16
293.252	4.15
293.709	4.14
294.166	4.12
294.623	4.12
295.079	4.1
295.536	4.1
295.992	4.09
296.449	4.08
296.905	4.08
297.362	4.07
297.818	4.06
298.274	4.05
298.731	4.04
299.187	4.04
299.643	4.03
300.099	4.02
300.555	4.02
301.011	4.01
301.467	4
301.923	3.99
302.379	3.99
302.835	3.99
303.291	3.99
303.746	3.99
304.202	3.99
304.658	3.98
305.113	3.98
305.569	3.97
306.024	3.98
306.479	3.97
306.935	3.97
307.39	3.98
307.845	3.98
308.301	3.98
308.756	3.98
309.211	3.98
309.666	3.99
310.121	3.99
310.576	3.99
311.031	4
311.486	4
311.94	4.01
312.395	4.01
312.85	4.01
313.305	4.01
313.759	4.02
314.214	4.01
314.668	4.01
315.123	4.01
315.577	4.01
316.032	4.01
316.486	4
316.94	3.99
317.394	3.98
317.849	3.97
318.303	3.95
318.757	3.93
319.211	3.92
319.665	3.91
320.119	3.9
320.572	3.88
321.026	3.87
321.48	3.86
321.934	3.85
322.387	3.85
322.841	3.85
323.295	3.84
323.748	3.85
324.202	3.85
324.655	3.84
325.108	3.84
325.562	3.84
326.015	3.84
326.468	3.84
326.921	3.84
327.374	3.83
327.827	3.83
328.28	3.83
328.733	3.83
329.186	3.83
329.639	3.84
330.092	3.84
330.545	3.83
330.997	3.83
331.45	3.84
331.903	3.84
332.355	3.86
332.808	3.87
333.26	3.88
333.713	3.88
334.165	3.87
334.617	3.88
335.069	3.88
335.522	3.89
335.974	3.9
336.426	3.9
336.878	3.89
337.33	3.88
337.782	3.89
338.234	3.89
338.686	3.9
339.137	3.91
339.589	3.9
340.041	3.9
340.493	3.89
340.944	3.87
341.396	3.86
341.847	3.85
342.299	3.83
342.75	3.81
343.201	3.79
343.653	3.77
344.104	3.75
344.555	3.73
345.006	3.72
345.457	3.71
345.908	3.7
346.359	3.7
346.81	3.7
347.261	3.69
347.712	3.69
348.163	3.68
348.613	3.68
349.064	3.68
349.515	3.68
349.965	3.68
350.416	3.68
350.866	3.67
351.317	3.66
351.767	3.67
352.217	3.67
352.668	3.66
353.118	3.67
353.568	3.67
354.018	3.67
354.468	3.68
354.918	3.68
355.368	3.69
355.818	3.69
356.268	3.7
356.718	3.71
357.168	3.7
357.617	3.71
358.067	3.71
358.517	3.73
358.966	3.74
359.416	3.74
359.865	3.74
360.315	3.75
360.764	3.75
361.213	3.74
361.663	3.74
362.112	3.76
362.561	3.77
363.01	3.77
363.459	3.75
363.908	3.74
364.357	3.75
364.806	3.74
365.255	3.74
365.703	3.74
366.152	3.75
366.601	3.75
367.05	3.74
367.498	3.74
367.947	3.74
368.395	3.74
368.844	3.74
369.292	3.73
369.74	3.74
370.189	3.74
370.637	3.74
371.085	3.74
371.533	3.74
371.981	3.73
372.429	3.73
372.877	3.72
373.325	3.72
373.773	3.74
374.221	3.74
374.669	3.74
375.116	3.73
375.564	3.73
376.012	3.73
376.459	3.73
376.907	3.74
377.354	3.75
377.801	3.76
378.249	3.76
378.696	3.75
379.143	3.76
379.591	3.76
380.038	3.77
380.485	3.78
380.932	3.79
381.379	3.8
381.826	3.8
382.273	3.8
382.72	3.79
383.166	3.8
383.613	3.81
384.06	3.8
384.506	3.81
384.953	3.82
385.4	3.83
385.846	3.83
386.292	3.84
386.739	3.84
387.185	3.84
387.631	3.86
388.078	3.86
388.524	3.87
388.97	3.88
389.416	3.88
389.862	3.9
390.308	3.91
390.754	3.92
391.2	3.94
391.645	3.94
392.091	3.96
392.537	3.98
392.983	4
393.428	4.01
393.874	4.03
394.319	4.04
394.765	4.04
395.21	4.04
395.655	4.05
396.101	4.06
396.546	4.08
396.991	4.1
397.436	4.11
397.881	4.13
398.326	4.15
398.771	4.17
399.216	4.19
399.661	4.23
400.106	4.25
400.551	4.26
400.995	4.27
401.44	4.28
401.885	4.29
402.329	4.3
402.774	4.31
403.218	4.34
403.663	4.36
404.107	4.37
404.551	4.38
404.995	4.39
405.44	4.4
405.884	4.42
406.328	4.43
406.772	4.44
407.216	4.46
407.66	4.46
408.104	4.45
408.547	4.46
408.991	4.47
409.435	4.48
409.879	4.49
410.322	4.5
410.766	4.53
411.209	4.56
411.653	4.59
412.096	4.6
412.54	4.61
412.983	4.64
413.426	4.67
413.869	4.69
414.312	4.73
414.756	4.76
415.199	4.77
415.642	4.77
416.085	4.79
416.527	4.78
416.97	4.78
417.413	4.78
417.856	4.77
418.298	4.76
418.741	4.76
419.184	4.75
419.626	4.74
420.069	4.74
420.511	4.75
420.953	4.74
421.396	4.76
421.838	4.77
422.28	4.79
422.722	4.83
423.164	4.84
423.606	4.85
424.048	4.87
424.49	4.88
424.932	4.89
425.374	4.9
425.816	4.89
426.258	4.86
426.699	4.85
427.141	4.83
427.582	4.83
428.024	4.84
428.465	4.84
428.907	4.84
429.348	4.84
429.789	4.84
430.231	4.85
430.672	4.87
431.113	4.91
431.554	4.94
431.995	4.96
432.436	4.96
432.877	4.97
433.318	4.99
433.759	5.02
434.2	5.04
434.64	5.06
435.081	5.08
435.522	5.09
435.962	5.1
436.403	5.13
436.843	5.14
437.284	5.15
437.724	5.15
438.164	5.15
438.604	5.16
439.045	5.17
439.485	5.19
439.925	5.17
440.365	5.19
440.805	5.18
441.245	5.19
441.685	5.22
442.125	5.23
442.564	5.26
443.004	5.28
443.444	5.27
443.883	5.29
444.323	5.27
444.762	5.3
445.202	5.3
445.641	5.33
446.081	5.34
446.52	5.33
446.959	5.36
447.398	5.36
447.837	5.36
448.276	5.36
448.716	5.34
449.154	5.37
449.593	5.37
450.032	5.37
450.471	5.35
450.91	5.34
451.349	5.34
451.787	5.32
452.226	5.29
452.664	5.29
453.103	5.28
453.541	5.28
453.98	5.26
454.418	5.24
454.856	5.23
455.295	5.22
455.733	5.18
456.171	5.17
456.609	5.15
457.047	5.13
457.485	5.11
457.923	5.11
458.361	5.09
458.798	5.09
459.236	5.09
459.674	5.09
460.111	5.09
460.549	5.11
460.987	5.12
461.424	5.13
461.862	5.14
462.299	5.15
462.736	5.15
463.173	5.16
463.611	5.16
464.048	5.17
464.485	5.16
464.922	5.16
465.359	5.17
465.796	5.17
466.233	5.17
466.67	5.18
467.106	5.18
467.543	5.19
467.98	5.19
468.416	5.19
468.853	5.18
469.29	5.2
469.726	5.21
470.162	5.19
470.599	5.19
471.035	5.18
471.471	5.18
471.907	5.17
472.344	5.17
472.78	5.17
473.216	5.17
473.652	5.17
474.088	5.16
474.523	5.16
474.959	5.16
475.395	5.15
475.831	5.15
476.266	5.14
476.702	5.13
477.138	5.11
477.573	5.1
478.008	5.09
478.444	5.08
478.879	5.08
479.314	5.06
479.75	5.05
480.185	5.03
480.62	5.01
481.055	5
481.49	5
481.925	4.99
482.36	4.99
482.795	4.98
483.229	4.98
483.664	4.98
484.099	4.97
484.534	4.96
484.968	4.97
485.403	4.97
485.837	4.98
486.271	4.99
486.706	4.99
487.14	4.99
487.574	5
488.009	5
488.443	5
488.877	5.01
489.311	5.03
489.745	5.04
490.179	5.06
490.613	5.08
491.046	5.09
491.48	5.11
491.914	5.14
492.348	5.17
492.781	5.19
493.215	5.23
493.648	5.26
494.082	5.29
494.515	5.32
494.948	5.35
495.382	5.38
495.815	5.43
496.248	5.47
496.681	5.51
497.114	5.55
497.547	5.6
497.98	5.65
498.413	5.7
498.846	5.75
499.279	5.8
499.711	5.85
500.144	5.91
500.577	5.96
501.009	6.01
501.442	6.06
501.874	6.13
502.306	6.2
502.739	6.27
503.171	6.35
503.603	6.41
504.036	6.51
504.468	6.6
504.9	6.66
505.332	6.75
505.764	6.85
506.196	6.94
506.627	7.04
507.059	7.14
507.491	7.24
507.923	7.34
508.354	7.45
508.786	7.56
509.217	7.67
509.649	7.79
510.08	7.91
510.512	8.02
510.943	8.14
511.374	8.26
511.805	8.39
512.237	8.5
512.668	8.63
513.099	8.74
513.53	8.86
513.961	8.98
514.391	9.11
514.822	9.24
515.253	9.38
515.684	9.51
516.114	9.65
516.545	9.77
516.975	9.92
517.406	10.05
517.836	10.2
518.267	10.35
518.697	10.47
519.127	10.59
519.558	10.71
519.988	10.83
520.418	10.95
520.848	11.07
521.278	11.19
521.708	11.4
522.138	11.52
522.567	11.62
522.997	11.72
523.427	11.84
523.857	11.96
524.286	12.06
524.716	12.17
525.145	12.27
525.575	12.36
526.004	12.47
526.433	12.46
526.863	12.55
527.292	12.64
527.721	12.73
528.15	12.81
528.579	12.89
529.008	12.97
529.437	13.04
529.866	13.11
530.295	13.17
530.724	13.22
531.152	13.3
531.581	13.36
532.01	13.41
532.438	13.47
532.867	13.53
533.295	13.58
533.723	13.63
534.152	13.67
534.58	13.72
535.008	13.75
535.436	13.8
535.865	13.82
536.293	13.85
536.721	13.88
537.149	13.91
537.576	13.94
538.004	13.97
538.432	14
538.86	14.02
539.287	14.04
539.715	14.08
540.143	14.11
540.57	14.13
540.998	14.16
541.425	14.19
541.852	14.2
542.28	14.23
542.707	14.25
543.134	14.26
543.561	14.31
543.988	14.32
544.415	14.33
544.842	14.36
545.269	14.39
545.696	14.42
546.123	14.44
546.549	14.47
546.976	14.49
547.403	14.52
547.829	14.55
548.256	14.55
548.682	14.58
549.108	14.61
549.535	14.63
549.961	14.65
550.387	14.66
550.813	14.67
551.24	14.67
551.666	14.7
552.092	14.71
552.518	14.73
552.943	14.74
553.369	14.76
553.795	14.75
554.221	14.76
554.646	14.75
555.072	14.75
555.498	14.76
555.923	14.75
556.349	14.73
556.774	14.73
557.199	14.71
557.625	14.7
558.05	14.69
558.475	14.67
558.9	14.65
559.325	14.63
559.75	14.6
560.175	14.56
560.6	14.54
561.025	14.51
561.449	14.46
561.874	14.43
562.299	14.39
562.723	14.34
563.148	14.29
563.572	14.23
563.997	14.17
564.421	14.11
564.846	14.05
565.27	13.98
565.694	13.93
566.118	13.87
566.542	13.81
566.966	13.74
567.39	13.66
567.814	13.6
568.238	13.54
568.662	13.47
569.086	13.41
569.509	13.36
569.933	13.31
570.357	13.24
570.78	13.17
571.204	13.11
571.627	13.05
572.05	13
572.474	12.97
572.897	12.92
573.32	12.88
573.743	12.83
574.166	12.79
574.589	12.74
575.012	12.7
575.435	12.68
575.858	12.65
576.281	12.61
576.704	12.58
577.126	12.55
577.549	12.51
577.972	12.48
578.394	12.45
578.817	12.41
579.239	12.39
579.661	12.36
580.084	12.33
580.506	12.3
580.928	12.28
581.35	12.26
581.772	12.22
582.194	12.21
582.616	12.18
583.038	12.15
583.46	12.13
583.882	12.09
584.303	12.06
584.725	12.01
585.147	11.99
585.568	11.96
585.99	11.94
586.411	11.91
586.833	11.88
587.254	11.85
587.675	11.83
588.096	11.81
588.518	11.79
588.939	11.79
589.36	11.77
589.781	11.75
590.202	11.74
590.623	11.72
591.043	11.71
591.464	11.7
591.885	11.68
592.305	11.66
592.726	11.66
593.147	11.63
593.567	11.61
593.987	11.6
594.408	11.57
594.828	11.55
595.248	11.52
595.669	11.51
596.089	11.48
596.509	11.47
596.929	11.45
597.349	11.42
597.769	11.4
598.189	11.38
598.608	11.37
599.028	11.36
599.448	11.34
599.867	11.33
600.287	11.31
600.706	11.29
601.126	11.27
601.545	11.26
601.965	11.25
602.384	11.24
602.803	11.22
603.222	11.19
603.641	11.18
604.061	11.16
604.48	11.13
604.898	11.11
605.317	11.1
605.736	11.09
606.155	11.07
606.574	11.04
606.992	11.01
607.411	10.99
607.829	10.96
608.248	10.92
608.666	10.89
609.085	10.87
609.503	10.86
609.921	10.83
610.339	10.8
610.758	10.77
611.176	10.74
611.594	10.72
612.012	10.7
612.43	10.69
612.847	10.67
613.265	10.64
613.683	10.63
614.101	10.6
614.518	10.57
614.936	10.55
615.353	10.52
615.771	10.51
616.188	10.49
616.606	10.47
617.023	10.45
617.44	10.44
617.857	10.42
618.274	10.4
618.691	10.38
619.108	10.36
619.525	10.35
619.942	10.34
620.359	10.33
620.776	10.32
621.192	10.32
621.609	10.31
622.026	10.3
622.442	10.3
622.859	10.29
623.275	10.3
623.691	10.3
624.108	10.3
624.524	10.29
624.94	10.29
625.356	10.3
625.772	10.29
626.188	10.29
626.604	10.3
627.02	10.29
627.436	10.29
627.852	10.28
628.268	10.27
628.683	10.26
629.099	10.26
629.514	10.26
629.93	10.25
630.345	10.23
630.761	10.21
631.176	10.18
631.591	10.16
632.007	10.12
632.422	10.09
632.837	10.06
633.252	10.02
633.667	9.98
634.082	9.93
634.497	9.88
634.911	9.82
635.326	9.75
635.741	9.71
636.155	9.64
636.57	9.58
636.984	9.52
637.399	9.44
637.813	9.36
638.228	9.27
638.642	9.18
639.056	9.09
639.47	9.02
639.884	8.94
640.298	8.84
640.712	8.75
641.126	8.67
641.54	8.58
641.954	8.51
642.368	8.43
642.781	8.36
643.195	8.29
643.609	8.22
644.022	8.14
644.436	8.09
644.849	8.04
645.262	7.98
645.676	7.92
646.089	7.87
646.502	7.83
646.915	7.78
647.328	7.76
647.741	7.72
648.154	7.7
648.567	7.69
648.98	7.67
649.393	7.65
649.805	7.63
650.218	7.63
650.631	7.63
651.043	7.61
651.456	7.61
651.868	7.6
652.28	7.59
652.693	7.59
653.105	7.58
653.517	7.56
653.929	7.56
654.341	7.55
654.753	7.53
655.165	7.51
655.577	7.5
655.989	7.48
656.401	7.46
656.813	7.44
657.224	7.4
657.636	7.38
658.047	7.35
658.459	7.31
658.87	7.28
659.282	7.25
659.693	7.21
660.104	7.19
660.515	7.15
660.926	7.12
661.338	7.08
661.749	7.06
662.159	7.02
662.57	7
662.981	6.98
663.392	6.95
663.803	6.92
664.213	6.89
664.624	6.86
665.035	6.84
665.445	6.83
665.855	6.8
666.266	6.8
666.676	6.79
667.086	6.76
667.497	6.75
667.907	6.74
668.317	6.74
668.727	6.74
669.137	6.75
669.547	6.75
669.956	6.75
670.366	6.75
670.776	6.75
671.186	6.76
671.595	6.77
672.005	6.78
672.414	6.79
672.824	6.81
673.233	6.83
673.642	6.84
674.052	6.86
674.461	6.89
674.87	6.92
675.279	6.96
675.688	6.98
676.097	7.02
676.506	7.06
676.915	7.1
677.323	7.14
677.732	7.17
678.141	7.23
678.549	7.27
678.958	7.33
679.366	7.39
679.775	7.45
680.183	7.52
680.592	7.61
681	7.7
681.408	7.79
681.816	7.9
682.224	8.02
682.632	8.15
683.04	8.28
683.448	8.42
683.856	8.58
684.264	8.74
684.671	8.92
685.079	9.1
685.487	9.3
685.894	9.52
686.302	9.76
686.709	10
687.116	10.27
687.524	10.56
687.931	10.85
688.338	11.15
688.745	11.46
689.152	11.78
689.559	12.13
689.966	12.46
690.373	12.8
690.78	13.15
691.187	13.5
691.593	13.86
692	14.19
692.407	14.54
692.813	14.89
693.22	15.25
693.626	15.6
694.032	15.94
694.439	16.3
694.845	16.64
695.251	16.97
695.657	17.3
696.063	17.62
696.469	17.96
696.875	18.28
697.281	18.59
697.687	18.91
698.093	19.22
698.498	19.5
698.904	19.8
699.31	20.1
699.715	20.38
700.12	20.65
700.526	20.92
700.931	21.2
701.337	21.45
701.742	21.7
702.147	21.93
702.552	22.15
702.957	22.37
703.362	22.57
703.767	22.77
704.172	22.98
704.577	23.17
704.981	23.37
705.386	23.56
705.791	23.75
706.195	23.92
706.6	24.12
707.004	24.3
707.408	24.5
707.813	24.67
708.217	24.84
708.621	25.02
709.025	25.18
709.43	25.33
709.834	25.48
710.237	25.64
710.641	25.8
711.045	25.93
711.449	26.08
711.853	26.24
712.256	26.38
712.66	26.52
713.064	26.65
713.467	26.79
713.87	26.92
714.274	27.04
714.677	27.15
715.08	27.26
715.484	27.41
715.887	27.54
716.29	27.64
716.693	27.76
717.096	27.88
717.499	27.99
717.901	28.11
718.304	28.21
718.707	28.32
719.109	28.44
719.512	28.54
719.915	28.62
720.317	28.7
720.719	28.78
721.122	28.87
721.524	28.96
721.926	29.05
722.328	29.12
722.731	29.22
723.133	29.31
723.535	29.38
723.937	29.47
724.338	29.56
724.74	29.65
725.142	29.77
725.544	29.81
725.945	29.9
726.347	29.96
726.748	30.04
727.15	30.1
727.551	30.19
727.952	30.25
728.354	30.3
728.755	30.36
729.156	30.4
729.557	30.42
729.958	30.49
730.359	30.53
730.76	30.6
731.161	30.64
731.562	30.68
731.962	30.69
732.363	30.73
732.763	30.76
733.164	30.79
733.564	30.85
733.965	30.86
734.365	30.91
734.766	30.93
735.166	30.95
735.566	30.98
735.966	31.01
736.366	31.04
736.766	31.08
737.166	31.13
737.566	31.18
737.966	31.18
738.365	31.22
738.765	31.25
739.165	31.29
739.564	31.33
739.964	31.35
740.363	31.36
740.763	31.41
741.162	31.42
741.561	31.43
741.96	31.41
742.36	31.43
742.759	31.45
743.158	31.47
743.557	31.47
743.955	31.51
744.354	31.54
744.753	31.59
745.152	31.61
745.55	31.65
745.949	31.68
746.348	31.74
746.746	31.77
747.144	31.8
747.543	31.84
747.941	31.87
748.339	31.89
748.737	31.89
749.136	31.92
749.534	31.91
749.932	31.91
750.33	31.93
750.727	31.94
751.125	31.97
751.523	31.96
751.921	31.96
752.318	31.97
752.716	31.96
753.113	31.95
753.511	31.97
753.908	31.99
754.305	32
754.703	31.98
755.1	31.97
755.497	31.96
755.894	31.96
756.291	31.96
756.688	31.94
757.085	31.95
757.482	31.96
757.878	31.95
758.275	31.93
758.672	31.92
759.068	31.94
759.465	31.94
759.861	31.96
760.258	31.97
760.654	31.96
761.05	31.97
761.447	31.98
761.843	31.97
762.239	31.97
762.635	31.98
763.031	31.99
763.427	31.98
763.822	31.98
764.218	31.98
764.614	31.98
765.01	31.99
765.405	32
765.801	31.97
766.196	31.97
766.592	31.97
766.987	31.99
767.382	31.99
767.778	32
768.173	32.01
768.568	32.02
768.963	32.03
769.358	32.06
769.753	32.08
770.148	32.11
770.542	32.15
770.937	32.16
771.332	32.19
771.726	32.21
772.121	32.24
772.515	32.26
772.91	32.26
773.304	32.3
773.699	32.31
774.093	32.33
774.487	32.35
774.881	32.37
775.275	32.39
775.669	32.34
776.063	32.36
776.457	32.37
776.851	32.36
777.245	32.36
777.638	32.38
778.032	32.36
778.425	32.39
778.819	32.39
779.212	32.42
779.606	32.44
779.999	32.49
780.392	32.51
780.786	32.54
781.179	32.57
781.572	32.62
781.965	32.63
782.358	32.66
782.751	32.66
783.143	32.67
783.536	32.67
783.929	32.67
784.322	32.69
784.714	32.71
785.107	32.72
785.499	32.72
785.891	32.72
786.284	32.73
786.676	32.75
787.068	32.76
787.46	32.77
787.852	32.78
788.245	32.78
788.636	32.79
789.028	32.78
789.42	32.77
789.812	32.8
790.204	32.82
790.595	32.83
790.987	32.83
791.378	32.86
791.77	32.87
792.161	32.88
792.553	32.9
792.944	32.9
793.335	32.91
793.726	32.93
794.117	32.91
794.508	32.9
794.899	32.9
795.29	32.93
795.681	32.93
796.072	32.95
796.463	32.98
796.853	32.99
797.244	32.99
797.634	33.03
798.025	33.05
798.415	33.09
798.806	33.1
799.196	33.12
799.586	33.13
799.976	33.15
800.366	33.16
800.756	33.17
801.146	33.19
801.536	33.22
801.926	33.23
802.316	33.24
802.706	33.26
803.095	33.29
803.485	33.3
803.874	33.29
804.264	33.3
804.653	33.32
805.043	33.33
805.432	33.34
805.821	33.34
806.21	33.34
806.599	33.37
806.988	33.37
807.377	33.39
807.766	33.4
808.155	33.42
808.544	33.43
808.933	33.43
809.321	33.44
809.71	33.44
810.098	33.47
810.487	33.46
810.875	33.46
811.264	33.47
811.652	33.47
812.04	33.46
812.428	33.5
812.816	33.51
813.204	33.5
813.592	33.51
813.98	33.53
814.368	33.53
814.756	33.54
815.144	33.54
815.531	33.54
815.919	33.55
816.306	33.57
816.694	33.56
817.081	33.58
817.469	33.61
817.856	33.62
818.243	33.6
818.63	33.6
819.017	33.61
819.404	33.61
819.791	33.61
820.178	33.62
820.565	33.61
820.952	33.59
821.339	33.59
821.725	33.57
822.112	33.57
822.498	33.59
822.885	33.61
823.271	33.6
823.657	33.59
824.044	33.6
824.43	33.59
824.816	33.58
825.202	33.59
825.588	33.59
825.974	33.59
826.36	33.57
826.746	33.56
827.132	33.56
827.517	33.56
827.903	33.58
828.289	33.57
828.674	33.57
829.06	33.56
829.445	33.56
829.83	33.54
830.216	33.52
830.601	33.51
830.986	33.5
831.371	33.47
831.756	33.45
832.141	33.43
832.526	33.43
832.911	33.41
833.295	33.41
833.68	33.39
834.065	33.39
834.449	33.39
834.834	33.39
835.218	33.39
835.603	33.36
835.987	33.35
836.371	33.35
836.755	33.33
837.139	33.31
837.524	33.31
837.908	33.3
838.291	33.31
838.675	33.31
839.059	33.31
839.443	33.28
839.827	33.29
840.21	33.31
840.594	33.3
840.977	33.3
841.361	33.32
841.744	33.29
842.127	33.29
842.511	33.28
842.894	33.26
843.277	33.26
843.66	33.27
844.043	33.27
844.426	33.27
844.809	33.28
845.191	33.29
845.574	33.26
845.957	33.28
846.339	33.3
846.722	33.31
847.104	33.33
847.487	33.35
847.869	33.35
848.252	33.34
848.634	33.34
849.016	33.35
849.398	33.37
849.78	33.39
850.162	33.39
850.544	33.38
850.926	33.38
851.307	33.37
851.689	33.37
852.071	33.36
852.452	33.38
852.834	33.38
853.215	33.38
853.597	33.38
853.978	33.39
854.359	33.41
854.741	33.42
855.122	33.43
855.503	33.43
855.884	33.43
856.265	33.45
856.646	33.42
857.026	33.43
857.407	33.43
857.788	33.41
858.169	33.44
858.549	33.44
858.93	33.46
859.31	33.46
859.69	33.49
860.071	33.51
860.451	33.52
860.831	33.54
861.211	33.53
861.591	33.54
861.971	33.56
862.351	33.54
862.731	33.55
863.111	33.53
863.491	33.5
863.87	33.5
864.25	33.48
864.629	33.48
865.009	33.5
865.388	33.5
865.768	33.49
866.147	33.48
866.526	33.47
866.905	33.46
867.284	33.46
867.663	33.47
868.042	33.47
868.421	33.49
868.8	33.49
869.179	33.49
869.558	33.49
869.936	33.5
870.315	33.5
870.693	33.52
871.072	33.54
871.45	33.55
871.828	33.57
872.207	33.59
872.585	33.58
872.963	33.59
873.341	33.59
873.719	33.6
874.097	33.62
874.475	33.63
874.853	33.63
875.23	33.65
875.608	33.65
875.986	33.66
876.363	33.67
876.741	33.69
877.118	33.72
877.495	33.74
877.873	33.74
878.25	33.76
878.627	33.78
879.004	33.81
879.381	33.81
879.758	33.81
880.135	33.81
880.512	33.8
880.889	33.79
881.265	33.75
881.642	33.74
882.019	33.74
882.395	33.7
882.772	33.68
883.148	33.65
883.524	33.64
883.901	33.63
884.277	33.59
884.653	33.57
885.029	33.56
885.405	33.57
885.781	33.56
886.157	33.58
886.532	33.6
886.908	33.59
887.284	33.59
887.659	33.57
888.035	33.56
888.411	33.57
888.786	33.57
889.161	33.56
889.537	33.56
889.912	33.56
890.287	33.54
890.662	33.51
891.037	33.51
891.412	33.49
891.787	33.48
892.162	33.48
892.536	33.48
892.911	33.48
893.286	33.46
893.66	33.43
894.035	33.41
894.409	33.38
894.784	33.4
895.158	33.38
895.532	33.39
895.906	33.4
896.281	33.4
896.655	33.39
897.029	33.39
897.402	33.4
897.776	33.41
898.15	33.44
898.524	33.46
898.898	33.46
899.271	33.48
899.645	33.5
900.018	33.52
900.392	33.54
900.765	33.55
901.138	33.57
901.511	33.59
901.884	33.6
902.258	33.61
902.631	33.63
903.003	33.65
903.376	33.66
903.749	33.66
904.122	33.69
904.495	33.71
904.867	33.75
905.24	33.74
905.612	33.76
905.985	33.77
906.357	33.77
906.729	33.78
907.102	33.78
907.474	33.79
907.846	33.79
908.218	33.77
908.59	33.76
908.962	33.78
909.334	33.8
909.705	33.82
910.077	33.84
910.449	33.89
910.82	33.92
911.192	33.92
911.563	33.93
911.935	33.95
912.306	33.98
912.677	34.02
913.048	34.02
913.419	34.04
913.79	34.05
914.161	34.07
914.532	34.04
914.903	34.04
915.274	34.06
915.645	34.07
916.015	34.07
916.386	34.06
916.756	34.06
917.127	34.09
917.497	34.1
917.868	34.1
918.238	34.1
918.608	34.14
918.978	34.16
919.348	34.17
919.718	34.2
920.088	34.22
920.458	34.24
920.828	34.22
921.198	34.21
921.567	34.21
921.937	34.23
922.306	34.24
922.676	34.24
923.045	34.24
923.415	34.24
923.784	34.25
924.153	34.28
924.522	34.31
924.891	34.35
925.26	34.36
925.629	34.36
925.998	34.37
926.367	34.41
926.736	34.41
927.104	34.4
927.473	34.42
927.842	34.4
928.21	34.41
928.578	34.36
928.947	34.39
929.315	34.4
929.683	34.41
930.051	34.38
930.42	34.38
930.788	34.39
931.156	34.39
931.523	34.37
931.891	34.41
932.259	34.4
932.627	34.45
932.994	34.41
933.362	34.39
933.729	34.39
934.097	34.41
934.464	34.41
934.831	34.43
935.199	34.5
935.566	34.54
935.933	34.55
936.3	34.56
936.667	34.58
937.034	34.62
937.401	34.67
937.767	34.72
938.134	34.77
938.501	34.82
938.867	34.84
939.234	34.83
939.6	34.9
939.967	34.94
940.333	34.98
940.699	34.99
941.065	35.01
941.431	35.06
941.798	35.07
942.163	35.08
942.529	35.05
942.895	35.07
943.261	35.1
943.627	35.07
943.992	35.05
944.358	35.06
944.723	35.1
945.089	35.03
945.454	35.03
945.82	35.02
946.185	35.05
946.55	35.07
946.915	35.08
947.28	35.07
947.645	35.09
948.01	35.09
948.375	35.08
948.74	35.05
949.104	35.09
949.469	35.08
949.834	35.04
950.198	35.02
950.562	34.97
950.927	34.96
951.291	34.9
951.655	34.84
952.02	34.81
952.384	34.76
952.748	34.74
953.112	34.75
953.476	34.7
953.839	34.73
954.203	34.71
954.567	34.72
954.931	34.62
955.294	34.62
955.658	34.63
956.021	34.62
956.385	34.62
956.748	34.58
957.111	34.51
957.474	34.51
957.837	34.42
958.2	34.38
958.563	34.39
958.926	34.42
959.289	34.42
959.652	34.4
960.015	34.36
960.377	34.33
960.74	34.34
961.102	34.36
961.465	34.38
961.827	34.45
962.189	34.5
962.552	34.45
962.914	34.48
963.276	34.49
963.638	34.47
964	34.48
964.362	34.51
964.724	34.49
965.085	34.49
965.447	34.49
965.809	34.47
966.17	34.46
966.532	34.5
966.893	34.51
967.255	34.5
967.616	34.52
967.977	34.51
968.338	34.54
968.699	34.61
969.061	34.62
969.421	34.65
969.782	34.71
970.143	34.66
970.504	34.67
970.865	34.69
971.225	34.66
971.586	34.7
971.946	34.75
972.307	34.76
972.667	34.72
973.027	34.78
973.388	34.74
973.748	34.72
974.108	34.85
974.468	34.84
974.828	34.87
975.188	34.93
975.548	34.89
975.907	34.89
976.267	34.95
976.627	34.98
976.986	34.96
977.346	34.94
977.705	34.96
978.064	34.96
978.424	35.02
978.783	35.01
979.142	35.02
979.501	35.07
979.86	35.11
980.219	35.07
980.578	35.11
980.937	35.15
981.296	35.19
981.654	35.22
982.013	35.17
982.371	35.21
982.73	35.24
983.088	35.26
983.447	35.31
983.805	35.34
984.163	35.38
984.521	35.4
984.879	35.36
985.237	35.44
985.595	35.45
985.953	35.46
986.311	35.48
986.669	35.48
987.026	35.49
987.384	35.54
987.741	35.49
988.099	35.51
988.456	35.5
988.814	35.57
989.171	35.6
989.528	35.64
989.885	35.66
990.242	35.66
990.599	35.74
990.956	35.89
991.313	35.92
991.67	36.01
992.027	36.09
992.383	36.14
992.74	36.25
993.096	36.3
993.453	36.36
993.809	36.45
994.165	36.55
994.522	36.55
994.878	36.57
995.234	36.58
995.59	36.62
995.946	36.65
996.302	36.75
996.658	36.79
997.013	36.74
997.369	36.75
997.725	36.83
998.08	36.87
998.436	36.95
998.791	36.99
999.147	37.08
999.502	37.19
999.857	37.29
1000.212	37.26
1000.567	37.23
1000.922	37.4
1001.277	37.48
1001.632	37.51
1001.987	37.52
1002.342	37.52
1002.696	37.45
1003.051	37.6
1003.406	37.56
1003.76	37.59
1004.114	37.7
1004.469	37.8
1004.823	38.03
1005.177	38.07
1005.531	38.12
1005.885	38.12
1006.239	38.14
1006.593	38.37
1006.947	38.4
1007.301	38.5
1007.655	38.65
1008.008	38.71
1008.362	38.86
1008.715	38.73
1009.069	38.92
1009.422	39.03
1009.776	39.16
1010.129	39.29
1010.482	39.33
1010.835	39.35
1011.188	39.38
1011.541	39.33
1011.894	39.41
1012.247	39.46
1012.6	39.44
1012.952	39.41
1013.305	39.54
1013.657	39.62
1014.01	39.69
1014.362	39.63
1014.715	39.76
1015.067	40.03
1015.419	40.19
1015.771	40.19
1016.123	40.25
1016.475	40.42
1016.827	40.57
1017.179	40.69
1017.531	40.81
1017.883	40.97
1018.234	41.14
1018.586	41.2
1018.938	41.26
1019.289	41.12
1019.64	41.49
1019.992	41.63
1020.343	41.62
1020.694	41.73
1021.045	41.75
1021.396	41.94
1021.747	42.14
1022.098	42.28
1022.449	42.36
1022.8	42.5
1023.151	42.82
1023.501	42.7
1023.852	42.74
1024.202	42.91
1024.553	42.82
1024.903	43.07
1025.253	43.08
1025.604	42.98
1025.954	42.93
1026.304	43.03
1026.654	43.15
1027.004	43.05
1027.354	43.55
1027.703	43.57
1028.053	43.77
1028.403	44.07
1028.753	43.83
1029.102	44.07
1029.452	44.36
1029.801	44.72
1030.15	44.75
1030.499	44.61
897.758	931.15
901.051	933.26
904.343	937.14
907.636	950.74
910.928	924.18
914.22	922.62
917.511	909.03
920.803	875.68
924.094	869.74
927.384	850.17
930.675	816.11
933.965	812.52
937.255	764.45
940.544	731.52
943.834	702.09
947.123	696.83
950.411	656.11
953.7	642.95
956.988	607.01
960.276	580.72
963.563	574.61
966.851	551.81
970.138	547.73
973.424	532.79
976.711	537.02
979.997	507.4
983.283	505.11
986.568	495.97
989.853	480.94
993.138	470.61
996.423	457.88
999.708	444.02
1002.992	439.35
1006.275	421.29
1009.559	417.94
1012.842	400.69
1016.125	392.3
1019.408	384.21
1022.69	381.02
1025.972	372.98
1029.254	365
1032.536	357.24
1035.817	351.36
1039.098	347.4
1042.379	340.84
1045.659	336.62
1048.939	329.05
1052.219	322.34
1055.498	319.3
1058.778	310.14
1062.057	305.4
1065.335	302.53
1068.614	299.52
1071.892	295.27
1075.17	287.12
1078.447	282.1
1081.724	280.47
1085.001	277.99
1088.278	272.94
1091.554	267.16
1094.83	268.38
1098.106	265.78
1101.382	262.52
1104.657	260.33
1107.932	256.33
1111.206	258.05
1114.481	251.86
1117.755	249.7
1121.029	248.17
1124.302	247.13
1127.575	243.56
1130.848	240.15
1134.121	238.1
1137.393	237.45
1140.665	233.49
1143.937	231.57
1147.208	230.06
1150.48	228.93
1153.75	224.96
1157.021	223.15
1160.291	223.48
1163.561	219.67
1166.831	219.88
1170.101	217.66
1173.37	217.69
1176.639	217.22
1179.907	215.64
1183.176	213.24
1186.444	212.85
1189.711	213.35
1192.979	212.57
1196.246	210.81
1199.513	212.45
1202.78	210.86
1206.046	211.03
1209.312	208.64
1212.578	209.26
1215.843	210.79
1219.108	209.95
1222.373	214.02
1225.638	214.85
1228.902	217.14
1232.166	217.8
1235.43	218.66
1238.693	221.98
1241.956	223.33
1245.219	226.6
1248.482	227.11
1251.744	227.15
1255.006	227.8
1258.268	223.23
1261.529	221.69
1264.79	220.69
1268.051	218.28
1271.312	216.84
1274.572	214.04
1277.832	211.88
1281.092	208.11
1284.351	206.26
1287.61	206.34
1290.869	202.5
1294.128	200.88
1297.386	200.66
1300.644	198.6
1303.902	200.51
1307.159	199.42
1310.416	199.16
1313.673	197.98
1316.93	200.49
1320.186	199.93
1323.442	200.07
1326.697	203.52
1329.953	204.58
1333.208	205.33
1336.463	207.38
1339.717	207.24
1342.972	209.48
1346.226	210.55
1349.479	212.07
1352.733	212.75
1355.986	214.8
1359.238	214.25
1362.491	214.1
1365.743	216.45
1368.995	216.92
1372.247	215.36
1375.498	215.38
1378.749	215.75
1382	214.8
1385.251	214.78
1388.501	213.23
1391.751	212.29
1395	212.4
1398.25	211.23
1401.499	208.5
1404.748	207.78
1407.996	206.35
1411.244	205.19
1414.492	204.07
1417.74	201.22
1420.987	198.35
1424.234	198.26
1427.481	196.73
1430.728	196.28
1433.974	194.47
1437.22	192.38
1440.465	192
1443.711	190.11
1446.956	188.94
1450.201	187.15
1453.445	185.82
1456.689	185.2
1459.933	182.39
1463.177	180.19
1466.42	177.6
1469.663	175.84
1472.906	175.22
1476.148	170.24
1479.391	168.96
1482.633	167.77
1485.874	165.02
1489.115	163.87
1492.356	162.18
1495.597	161.37
1498.838	159.68
1502.078	158.46
1505.318	157.91
1508.557	157.88
1511.797	158.12
1515.036	155.67
1518.274	155.63
1521.513	154.78
1524.751	154.25
1527.989	154.04
1531.227	153.42
1534.464	153.06
1537.701	152.76
1540.938	152.09
1544.174	150.01
1547.41	150.56
1550.646	151.01
1553.882	150.09
1557.117	148.7
1560.352	148.25
1563.587	148.05
1566.821	147.1
1570.055	146.52
1573.289	144.96
1576.523	145.16
1579.756	144.36
1582.989	143.19
1586.222	142.71
1589.454	142.7
1592.686	143.37
1595.918	142.75
1599.15	141.93
1602.381	142.87
1605.612	142.3
1608.843	142.46
1612.073	142.67
1615.303	143.64
1618.533	143.59
1621.762	144.06
1624.992	144.26
1628.221	144.1
1631.449	143.54
1634.678	143.67
1637.906	143.94
1641.134	143.54
1644.361	143.65
1647.588	143.53
1650.815	143.12
1654.042	143.01
1657.269	143.33
1660.495	142.98
1663.72	142.89
1666.946	143.67
1670.171	144.06
1673.396	143.59
1676.621	143.96
1679.845	144.67
1683.069	144.81
1686.293	145.37
1689.517	146.16
1692.74	146
1695.963	146.37
1699.185	147.58
1702.408	147.79
1705.63	147.87
1708.852	148.26
1712.073	148.79
1715.294	148.79
1718.515	149.77
1721.736	149.65
1724.956	149.91
1728.176	149.87
1731.396	150.82
1734.616	149.97
1737.835	150.61
1741.054	149.58
1744.272	150.07
1747.491	151.64
1750.709	151.67
1753.927	151.1
1757.144	151.04
1760.361	151.08
1763.578	151.52
1766.795	151.06
1770.011	152.51
1773.227	152.05
1776.443	154.09
1779.658	154.23
1782.874	153.92
1786.089	153.92
1789.303	154.44
1792.518	156.42
1795.732	155.92
1798.945	157.4
1802.159	157.62
1805.372	157.35
1808.585	160.34
1811.797	160.4
1815.01	161.02
1818.222	161.87
1821.434	164.45
1824.645	164.74
1827.856	166.83
1831.067	168.24
1834.278	167.52
1837.488	169.05
1840.698	170.12
1843.908	168.43
1847.117	169.69
1850.326	170.76
1853.535	169.67
1856.744	171.23
1859.952	171.56
1863.16	169.68
1866.368	168.9
1869.575	170.4
1872.782	167.93
1875.989	168
1879.196	167.29
1882.402	165.68
1885.608	165.44
1888.814	165.62
1892.019	164.5
1895.224	163.55
1898.429	163.62
1901.634	164.26
1904.838	164.81
1908.042	165.49
1911.246	165.68
1914.449	166.35
1917.652	167
1920.855	166.61
1924.058	167.37
1927.26	166.8
1930.462	167.17
1933.664	168.52
1936.865	167.34
1940.066	166.17
1943.267	166.05
1946.467	166.06
1949.668	166.59
1952.868	168.85
1956.067	169.77
1959.267	169.27
1962.466	169.92
1965.665	169.63
1968.863	169.79
1972.061	173.44
1975.259	175.49
1978.457	175.91
1981.654	177.31
1984.852	178.19
1988.048	176.91
1991.245	178.77
1994.441	180.53
1997.637	181.89
2000.833	185.11
2004.028	187.48
2007.223	187.47
2010.418	188.7
2013.613	192.92
2016.807	194.45
2020.001	195.77
2023.194	199.6
2026.388	203.13
2029.581	208.82
2032.774	210.27
2035.966	214.39
2039.158	215.17
2042.35	218.51
2045.542	219.42
2048.733	223.04
2051.924	226.22
2055.115	230.21
2058.306	230.3
2061.496	232.38
2064.686	231.53
2067.875	236.2
2071.065	236.66
2074.254	234.98
2077.442	239.91
2080.631	241
2083.819	242.57
2087.007	243.44
2090.195	246.18
2093.382	248.61
2096.569	247.37
2099.756	251.59
2102.942	251.67
2106.128	253.49
2109.314	260.75
2112.5	258.34
2115.685	264.66
2118.87	265.56
2122.055	269.65
2125.239	271.03
2128.424	273.62
2131.608	275.55
2134.791	278.7
2137.974	280.02
2141.157	281.15
2144.34	280.76
2147.523	285.98
2150.705	283.9
2153.887	286.95
2157.068	287.47
2160.25	284.84
2163.431	286.7
2166.611	290.75
2169.792	295.13
2172.972	298.55
2176.152	302.39
2179.331	305.44
2182.511	308.7
2185.69	312.57
2188.868	318.76
2192.047	318.48
2195.225	329.13
2198.403	337.13
2201.58	341.66
2204.758	349.51
2207.935	355.59
2211.111	361.86
2214.288	366.17
2217.464	366.85
2220.64	374.12
2223.815	377.47
2226.991	394.22
2230.166	393.87
2233.34	397.59
2236.515	407.42
2239.689	406.89
2242.863	410.94
2246.036	419.03
2249.209	415.77
2252.382	425.14
2255.555	435.28
2258.727	437.98
2261.9	439.84
2265.071	445.29
2268.243	454.88
2271.414	458.43
2274.585	466.92
2277.756	471.24
2280.926	476.52
2284.096	489.12
2287.266	497.69
2290.436	500.49
2293.605	510.24
2296.774	527.87
2299.942	542.93
2303.111	545.69
2306.279	555.72
2309.447	564.94
2312.614	580.65
2315.781	594.6
2318.948	623.57
2322.115	615.26
2325.281	648.28
2328.447	638.8
2331.613	660.87
2334.779	654.74
2337.944	683.86
2341.109	690.84
2344.274	710.78
2347.438	732.23
2350.602	733.61
2353.766	754.02
2356.929	766.08
2360.092	761
2363.255	813.35
2366.418	812.91
2369.58	826.25
2372.742	874.86
2375.904	898.29
2379.066	890.13
2382.227	875.63
2385.388	948.23
2388.548	946.9
2391.709	957.15
2394.869	1069.75
2398.029	1023.61
2401.188	1055.79
2404.347	1050.38
2407.506	1032.43
2410.665	1067.9
2413.823	1128.42
2416.981	1190.08
2420.139	1161.94
2423.296	1142.87
2426.453	1197.5
2429.61	1153.74
2432.767	1209.78
2435.923	1192.45
2439.079	1309.96
2442.235	1335.1
2445.391	1314.47
2448.546	1305.58
2451.701	1273.42
2454.855	1261.32
2458.009	1353.44
2461.163	1400.16
2464.317	1446.79
2467.471	1481.39
2470.624	1482.75
2473.777	1440.25
2476.929	1391.31
2480.082	1347.73
2483.234	1341.22
2486.385	1409.81
2489.537	1417.68
2492.688	1459.26
2495.839	1428.39
2498.989	1390.07
2502.14	1394.56
2505.29	1412.31
2508.439	1427.32
2511.589	1427.89
2514.738	1565.04
2517.887	1524.9
2521.035	1600.3
2524.183	1625.16
2527.331	1637.82
2530.479	1620.78
2533.627	1641.13
