Data from N_3_DEC_OH_4N_Splice17_14-22-18-371.txt Node
Date: Sat Mar 07 14:22:18 EST 2020
User: sa697716
Spectrometer: NQ5500242
Trigger mode: 0
Integration Time (sec): 1.450000E-1
Scans to average: 20
Nonlinearity correction enabled: false
Boxcar width: 5
Storing dark spectrum: false
XAxis mode: Wavelengths
Number of Pixels in Spectrum: 512
>>>>>Begin Spectral Data<<<<<
187.83	129.16
188.298	147.32
188.766	138.79
189.233	116.6
189.701	112.27
190.169	126.37
190.636	122.92
191.104	89.82
191.571	168.13
192.039	232.45
192.506	529.36
192.974	60.83
193.441	147.61
193.908	102.54
194.375	91.73
194.842	84.9
195.31	70.29
195.777	-131.44
196.244	46.33
196.711	69.7
197.177	72.06
197.644	71.69
198.111	71.77
198.578	71.74
199.045	72.4
199.511	72.35
199.978	72.51
200.445	73.07
200.911	73.7
201.378	73.85
201.844	73.96
202.31	73.78
202.777	73.74
203.243	73.69
203.709	73.48
204.176	72.64
204.642	72.3
205.108	71.69
205.574	71.09
206.04	70.23
206.506	69.63
206.972	68.78
207.438	68.06
207.903	67.22
208.369	65.59
208.835	64.24
209.301	62.77
209.766	60.83
210.232	59.1
210.697	57.28
211.163	55.56
211.628	54.05
212.094	52.67
212.559	51.25
213.024	49.73
213.49	48.72
213.955	47.43
214.42	46.25
214.885	44.66
215.35	42.86
215.815	40.44
216.28	37.53
216.745	34.17
217.21	30.72
217.675	27.78
218.14	25.27
218.604	22.89
219.069	20.93
219.534	19.29
219.998	18.02
220.463	16.91
220.927	15.91
221.392	15.15
221.856	14.55
222.32	14.02
222.785	13.53
223.249	13.07
223.713	12.7
224.177	12.37
224.642	12.06
225.106	11.75
225.57	11.44
226.034	11.19
226.497	10.94
226.961	10.67
227.425	10.44
227.889	10.23
228.353	10.03
228.816	9.82
229.28	9.63
229.744	9.45
230.207	9.26
230.671	9.11
231.134	8.96
231.597	8.84
232.061	8.71
232.524	8.59
232.987	8.47
233.45	8.36
233.914	8.25
234.377	8.14
234.84	8.04
235.303	7.97
235.766	7.9
236.229	7.82
236.691	7.72
237.154	7.63
237.617	7.55
238.08	7.48
238.542	7.4
239.005	7.34
239.468	7.27
239.93	7.21
240.393	7.16
240.855	7.05
241.317	6.98
241.78	6.92
242.242	6.84
242.704	6.78
243.166	6.72
243.629	6.66
244.091	6.58
244.553	6.52
245.015	6.45
245.477	6.37
245.939	6.34
246.4	6.28
246.862	6.24
247.324	6.19
247.786	6.14
248.247	6.09
248.709	6.03
249.17	5.98
249.632	5.94
250.093	5.91
250.555	5.87
251.016	5.83
251.477	5.78
251.939	5.74
252.4	5.7
252.861	5.66
253.322	5.63
253.783	5.61
254.244	5.59
254.705	5.57
255.166	5.54
255.627	5.5
256.088	5.47
256.549	5.45
257.009	5.42
257.47	5.4
257.931	5.37
258.391	5.32
258.852	5.28
259.312	5.24
259.773	5.2
260.233	5.17
260.694	5.14
261.154	5.1
261.614	5.06
262.074	5.03
262.534	5
262.994	4.97
263.455	4.95
263.915	4.93
264.374	4.91
264.834	4.89
265.294	4.86
265.754	4.85
266.214	4.83
266.673	4.81
267.133	4.8
267.593	4.79
268.052	4.78
268.512	4.77
268.971	4.75
269.431	4.75
269.89	4.74
270.349	4.73
270.809	4.71
271.268	4.7
271.727	4.7
272.186	4.69
272.645	4.68
273.104	4.66
273.563	4.65
274.022	4.64
274.481	4.64
274.94	4.63
275.399	4.62
275.857	4.61
276.316	4.61
276.775	4.6
277.233	4.59
277.692	4.59
278.15	4.59
278.609	4.58
279.067	4.58
279.525	4.57
279.984	4.56
280.442	4.56
280.9	4.56
281.358	4.56
281.816	4.56
282.274	4.56
282.732	4.56
283.19	4.55
283.648	4.55
284.106	4.55
284.564	4.55
285.021	4.54
285.479	4.54
285.937	4.53
286.394	4.53
286.852	4.51
287.309	4.5
287.767	4.49
288.224	4.48
288.682	4.47
289.139	4.44
289.596	4.42
290.053	4.39
290.511	4.38
290.968	4.37
291.425	4.35
291.882	4.33
292.339	4.32
292.796	4.3
293.252	4.29
293.709	4.28
294.166	4.27
294.623	4.27
295.079	4.26
295.536	4.25
295.992	4.24
296.449	4.23
296.905	4.22
297.362	4.21
297.818	4.2
298.274	4.2
298.731	4.18
299.187	4.17
299.643	4.16
300.099	4.15
300.555	4.14
301.011	4.13
301.467	4.13
301.923	4.12
302.379	4.12
302.835	4.12
303.291	4.12
303.746	4.11
304.202	4.12
304.658	4.12
305.113	4.12
305.569	4.12
306.024	4.13
306.479	4.13
306.935	4.13
307.39	4.13
307.845	4.12
308.301	4.12
308.756	4.12
309.211	4.12
309.666	4.13
310.121	4.13
310.576	4.13
311.031	4.12
311.486	4.12
311.94	4.12
312.395	4.12
312.85	4.13
313.305	4.14
313.759	4.14
314.214	4.14
314.668	4.13
315.123	4.13
315.577	4.12
316.032	4.12
316.486	4.12
316.94	4.11
317.394	4.1
317.849	4.08
318.303	4.07
318.757	4.06
319.211	4.04
319.665	4.04
320.119	4.03
320.572	4.02
321.026	4
321.48	3.99
321.934	3.99
322.387	3.98
322.841	3.98
323.295	3.97
323.748	3.97
324.202	3.97
324.655	3.96
325.108	3.96
325.562	3.96
326.015	3.96
326.468	3.97
326.921	3.96
327.374	3.95
327.827	3.95
328.28	3.95
328.733	3.95
329.186	3.95
329.639	3.96
330.092	3.96
330.545	3.96
330.997	3.96
331.45	3.95
331.903	3.96
332.355	3.97
332.808	3.98
333.26	3.99
333.713	3.99
334.165	3.99
334.617	4
335.069	4
335.522	4
335.974	4.01
336.426	4.01
336.878	4.02
337.33	4.01
337.782	4.01
338.234	4.02
338.686	4.02
339.137	4.03
339.589	4.02
340.041	4.02
340.493	4
340.944	3.99
341.396	3.98
341.847	3.97
342.299	3.95
342.75	3.93
343.201	3.91
343.653	3.89
344.104	3.87
344.555	3.87
345.006	3.85
345.457	3.85
345.908	3.84
346.359	3.84
346.81	3.83
347.261	3.83
347.712	3.83
348.163	3.82
348.613	3.82
349.064	3.82
349.515	3.82
349.965	3.82
350.416	3.81
350.866	3.81
351.317	3.8
351.767	3.81
352.217	3.8
352.668	3.8
353.118	3.8
353.568	3.79
354.018	3.79
354.468	3.8
354.918	3.81
355.368	3.81
355.818	3.82
356.268	3.81
356.718	3.82
357.168	3.82
357.617	3.82
358.067	3.82
358.517	3.84
358.966	3.85
359.416	3.85
359.865	3.84
360.315	3.84
360.764	3.85
361.213	3.85
361.663	3.85
362.112	3.85
362.561	3.86
363.01	3.87
363.459	3.86
363.908	3.85
364.357	3.85
364.806	3.85
365.255	3.85
365.703	3.85
366.152	3.86
366.601	3.86
367.05	3.87
367.498	3.86
367.947	3.86
368.395	3.87
368.844	3.87
369.292	3.88
369.74	3.89
370.189	3.9
370.637	3.89
371.085	3.88
371.533	3.88
371.981	3.88
372.429	3.88
372.877	3.89
373.325	3.88
373.773	3.89
374.221	3.88
374.669	3.88
375.116	3.87
375.564	3.87
376.012	3.87
376.459	3.87
376.907	3.88
377.354	3.88
377.801	3.88
378.249	3.88
378.696	3.88
379.143	3.89
379.591	3.89
380.038	3.89
380.485	3.91
380.932	3.91
381.379	3.91
381.826	3.91
382.273	3.91
382.72	3.91
383.166	3.92
383.613	3.91
384.06	3.9
384.506	3.9
384.953	3.91
385.4	3.9
385.846	3.92
386.292	3.92
386.739	3.93
387.185	3.94
387.631	3.95
388.078	3.95
388.524	3.97
388.97	3.98
389.416	3.98
389.862	3.98
390.308	4
390.754	4.01
391.2	4.02
391.645	4.03
392.091	4.06
392.537	4.07
392.983	4.08
393.428	4.1
393.874	4.1
394.319	4.13
394.765	4.14
395.21	4.15
395.655	4.15
396.101	4.17
396.546	4.17
396.991	4.18
397.436	4.18
397.881	4.21
398.326	4.22
398.771	4.24
399.216	4.26
399.661	4.28
400.106	4.3
400.551	4.31
400.995	4.31
401.44	4.33
401.885	4.34
402.329	4.35
402.774	4.36
403.218	4.38
403.663	4.4
404.107	4.42
404.551	4.43
404.995	4.44
405.44	4.45
405.884	4.47
406.328	4.49
406.772	4.49
407.216	4.51
407.66	4.52
408.104	4.51
408.547	4.51
408.991	4.52
409.435	4.51
409.879	4.53
410.322	4.55
410.766	4.57
411.209	4.58
411.653	4.61
412.096	4.62
412.54	4.63
412.983	4.64
413.426	4.68
413.869	4.69
414.312	4.73
414.756	4.76
415.199	4.76
415.642	4.77
416.085	4.79
416.527	4.78
416.97	4.78
417.413	4.8
417.856	4.82
418.298	4.81
418.741	4.8
419.184	4.79
419.626	4.78
420.069	4.79
420.511	4.79
420.953	4.8
421.396	4.82
421.838	4.83
422.28	4.84
422.722	4.86
423.164	4.87
423.606	4.89
424.048	4.91
424.49	4.92
424.932	4.91
425.374	4.91
425.816	4.88
426.258	4.86
426.699	4.85
427.141	4.85
427.582	4.85
428.024	4.87
428.465	4.88
428.907	4.88
429.348	4.87
429.789	4.89
430.231	4.91
430.672	4.94
431.113	4.97
431.554	4.99
431.995	5.01
432.436	5.01
432.877	5.02
433.318	5.03
433.759	5.05
434.2	5.09
434.64	5.11
435.081	5.12
435.522	5.16
435.962	5.18
436.403	5.21
436.843	5.22
437.284	5.23
437.724	5.24
438.164	5.25
438.604	5.26
439.045	5.26
439.485	5.26
439.925	5.26
440.365	5.26
440.805	5.25
441.245	5.26
441.685	5.27
442.125	5.3
442.564	5.31
443.004	5.31
443.444	5.32
443.883	5.33
444.323	5.34
444.762	5.34
445.202	5.33
445.641	5.35
446.081	5.36
446.52	5.36
446.959	5.37
447.398	5.39
447.837	5.4
448.276	5.4
448.716	5.41
449.154	5.44
449.593	5.46
450.032	5.47
450.471	5.46
450.91	5.44
451.349	5.44
451.787	5.42
452.226	5.39
452.664	5.39
453.103	5.36
453.541	5.34
453.98	5.33
454.418	5.3
454.856	5.27
455.295	5.25
455.733	5.23
456.171	5.22
456.609	5.2
457.047	5.19
457.485	5.16
457.923	5.16
458.361	5.14
458.798	5.13
459.236	5.13
459.674	5.12
460.111	5.14
460.549	5.15
460.987	5.15
461.424	5.16
461.862	5.17
462.299	5.18
462.736	5.19
463.173	5.2
463.611	5.2
464.048	5.21
464.485	5.21
464.922	5.2
465.359	5.2
465.796	5.21
466.233	5.21
466.67	5.21
467.106	5.23
467.543	5.22
467.98	5.22
468.416	5.22
468.853	5.23
469.29	5.24
469.726	5.25
470.162	5.25
470.599	5.24
471.035	5.24
471.471	5.25
471.907	5.25
472.344	5.26
472.78	5.25
473.216	5.24
473.652	5.23
474.088	5.23
474.523	5.24
474.959	5.24
475.395	5.22
475.831	5.21
476.266	5.2
476.702	5.18
477.138	5.17
477.573	5.19
478.008	5.18
478.444	5.16
478.879	5.15
479.314	5.13
479.75	5.13
480.185	5.12
480.62	5.11
481.055	5.1
481.49	5.09
481.925	5.09
482.36	5.07
482.795	5.06
483.229	5.06
483.664	5.06
484.099	5.06
484.534	5.04
484.968	5.04
485.403	5.04
485.837	5.04
486.271	5.05
486.706	5.05
487.14	5.05
487.574	5.07
488.009	5.07
488.443	5.08
488.877	5.08
489.311	5.1
489.745	5.11
490.179	5.13
490.613	5.15
491.046	5.16
491.48	5.18
491.914	5.2
492.348	5.22
492.781	5.25
493.215	5.28
493.648	5.31
494.082	5.34
494.515	5.37
494.948	5.4
495.382	5.43
495.815	5.47
496.248	5.51
496.681	5.56
497.114	5.6
497.547	5.63
497.98	5.68
498.413	5.72
498.846	5.77
499.279	5.82
499.711	5.87
500.144	5.93
500.577	5.99
501.009	6.04
501.442	6.09
501.874	6.16
502.306	6.22
502.739	6.29
503.171	6.36
503.603	6.43
504.036	6.51
504.468	6.58
504.9	6.64
505.332	6.72
505.764	6.81
506.196	6.91
506.627	7
507.059	7.09
507.491	7.18
507.923	7.28
508.354	7.38
508.786	7.49
509.217	7.6
509.649	7.71
510.08	7.82
510.512	7.93
510.943	8.02
511.374	8.13
511.805	8.25
512.237	8.35
512.668	8.47
513.099	8.59
513.53	8.7
513.961	8.84
514.391	8.97
514.822	9.1
515.253	9.22
515.684	9.36
516.114	9.48
516.545	9.61
516.975	9.74
517.406	9.87
517.836	9.99
518.267	10.13
518.697	10.23
519.127	10.36
519.558	10.47
519.988	10.59
520.418	10.71
520.848	10.83
521.278	10.93
521.708	11.14
522.138	11.26
522.567	11.36
522.997	11.46
523.427	11.57
523.857	11.66
524.286	11.75
524.716	11.85
525.145	11.95
525.575	12.03
526.004	12.13
526.433	12.12
526.863	12.21
527.292	12.3
527.721	12.38
528.15	12.46
528.579	12.55
529.008	12.63
529.437	12.69
529.866	12.74
530.295	12.82
530.724	12.89
531.152	12.95
531.581	13.01
532.01	13.07
532.438	13.12
532.867	13.17
533.295	13.21
533.723	13.25
534.152	13.3
534.58	13.36
535.008	13.39
535.436	13.43
535.865	13.46
536.293	13.49
536.721	13.51
537.149	13.55
537.576	13.58
538.004	13.61
538.432	13.64
538.86	13.67
539.287	13.69
539.715	13.73
540.143	13.75
540.57	13.78
540.998	13.79
541.425	13.81
541.852	13.83
542.28	13.86
542.707	13.87
543.134	13.89
543.561	13.92
543.988	13.95
544.415	13.96
544.842	13.98
545.269	14.01
545.696	14.06
546.123	14.09
546.549	14.13
546.976	14.16
547.403	14.2
547.829	14.23
548.256	14.26
548.682	14.28
549.108	14.32
549.535	14.36
549.961	14.39
550.387	14.4
550.813	14.42
551.24	14.42
551.666	14.44
552.092	14.46
552.518	14.48
552.943	14.49
553.369	14.5
553.795	14.49
554.221	14.5
554.646	14.48
555.072	14.49
555.498	14.49
555.923	14.49
556.349	14.48
556.774	14.47
557.199	14.45
557.625	14.44
558.05	14.44
558.475	14.42
558.9	14.4
559.325	14.38
559.75	14.37
560.175	14.35
560.6	14.32
561.025	14.3
561.449	14.27
561.874	14.24
562.299	14.19
562.723	14.15
563.148	14.1
563.572	14.05
563.997	14.01
564.421	13.95
564.846	13.89
565.27	13.84
565.694	13.79
566.118	13.73
566.542	13.68
566.966	13.61
567.39	13.56
567.814	13.5
568.238	13.43
568.662	13.37
569.086	13.31
569.509	13.26
569.933	13.2
570.357	13.15
570.78	13.09
571.204	13.03
571.627	12.99
572.05	12.95
572.474	12.9
572.897	12.86
573.32	12.82
573.743	12.78
574.166	12.74
574.589	12.69
575.012	12.66
575.435	12.63
575.858	12.59
576.281	12.56
576.704	12.52
577.126	12.5
577.549	12.46
577.972	12.44
578.394	12.41
578.817	12.38
579.239	12.37
579.661	12.34
580.084	12.32
580.506	12.31
580.928	12.3
581.35	12.28
581.772	12.26
582.194	12.24
582.616	12.22
583.038	12.2
583.46	12.17
583.882	12.15
584.303	12.11
584.725	12.08
585.147	12.06
585.568	12.03
585.99	12
586.411	11.98
586.833	11.96
587.254	11.93
587.675	11.91
588.096	11.89
588.518	11.88
588.939	11.86
589.36	11.85
589.781	11.83
590.202	11.82
590.623	11.81
591.043	11.8
591.464	11.79
591.885	11.77
592.305	11.76
592.726	11.75
593.147	11.73
593.567	11.71
593.987	11.68
594.408	11.65
594.828	11.63
595.248	11.61
595.669	11.58
596.089	11.56
596.509	11.55
596.929	11.52
597.349	11.5
597.769	11.49
598.189	11.47
598.608	11.47
599.028	11.47
599.448	11.45
599.867	11.44
600.287	11.43
600.706	11.42
601.126	11.41
601.545	11.4
601.965	11.39
602.384	11.37
602.803	11.36
603.222	11.34
603.641	11.33
604.061	11.32
604.48	11.3
604.898	11.27
605.317	11.25
605.736	11.24
606.155	11.22
606.574	11.21
606.992	11.19
607.411	11.17
607.829	11.13
608.248	11.09
608.666	11.06
609.085	11.05
609.503	11.04
609.921	11.03
610.339	11.01
610.758	10.98
611.176	10.96
611.594	10.93
612.012	10.92
612.43	10.91
612.847	10.9
613.265	10.87
613.683	10.86
614.101	10.84
614.518	10.82
614.936	10.78
615.353	10.77
615.771	10.75
616.188	10.74
616.606	10.72
617.023	10.7
617.44	10.7
617.857	10.69
618.274	10.66
618.691	10.63
619.108	10.61
619.525	10.6
619.942	10.59
620.359	10.59
620.776	10.58
621.192	10.57
621.609	10.57
622.026	10.56
622.442	10.55
622.859	10.55
623.275	10.55
623.691	10.56
624.108	10.56
624.524	10.56
624.94	10.56
625.356	10.55
625.772	10.55
626.188	10.55
626.604	10.55
627.02	10.55
627.436	10.55
627.852	10.55
628.268	10.54
628.683	10.53
629.099	10.53
629.514	10.52
629.93	10.51
630.345	10.5
630.761	10.48
631.176	10.46
631.591	10.43
632.007	10.4
632.422	10.37
632.837	10.34
633.252	10.29
633.667	10.25
634.082	10.2
634.497	10.15
634.911	10.08
635.326	10.03
635.741	9.97
636.155	9.91
636.57	9.85
636.984	9.79
637.399	9.72
637.813	9.64
638.228	9.56
638.642	9.47
639.056	9.39
639.47	9.31
639.884	9.23
640.298	9.14
640.712	9.05
641.126	8.97
641.54	8.87
641.954	8.78
642.368	8.7
642.781	8.63
643.195	8.56
643.609	8.5
644.022	8.44
644.436	8.37
644.849	8.31
645.262	8.25
645.676	8.2
646.089	8.16
646.502	8.12
646.915	8.09
647.328	8.06
647.741	8.03
648.154	8
648.567	7.98
648.98	7.96
649.393	7.95
649.805	7.96
650.218	7.94
650.631	7.95
651.043	7.94
651.456	7.93
651.868	7.93
652.28	7.92
652.693	7.92
653.105	7.92
653.517	7.92
653.929	7.92
654.341	7.9
654.753	7.88
655.165	7.86
655.577	7.86
655.989	7.83
656.401	7.82
656.813	7.8
657.224	7.78
657.636	7.74
658.047	7.71
658.459	7.68
658.87	7.65
659.282	7.62
659.693	7.59
660.104	7.54
660.515	7.51
660.926	7.47
661.338	7.43
661.749	7.4
662.159	7.37
662.57	7.35
662.981	7.32
663.392	7.3
663.803	7.28
664.213	7.25
664.624	7.22
665.035	7.2
665.445	7.19
665.855	7.18
666.266	7.16
666.676	7.15
667.086	7.12
667.497	7.11
667.907	7.1
668.317	7.09
668.727	7.08
669.137	7.09
669.547	7.1
669.956	7.1
670.366	7.1
670.776	7.09
671.186	7.09
671.595	7.1
672.005	7.11
672.414	7.13
672.824	7.14
673.233	7.16
673.642	7.18
674.052	7.2
674.461	7.21
674.87	7.24
675.279	7.29
675.688	7.32
676.097	7.37
676.506	7.39
676.915	7.43
677.323	7.48
677.732	7.52
678.141	7.58
678.549	7.62
678.958	7.69
679.366	7.75
679.775	7.81
680.183	7.89
680.592	7.98
681	8.08
681.408	8.19
681.816	8.3
682.224	8.43
682.632	8.54
683.04	8.68
683.448	8.83
683.856	8.99
684.264	9.17
684.671	9.36
685.079	9.54
685.487	9.76
685.894	9.99
686.302	10.24
686.709	10.48
687.116	10.77
687.524	11.05
687.931	11.34
688.338	11.65
688.745	11.97
689.152	12.29
689.559	12.63
689.966	12.98
690.373	13.32
690.78	13.67
691.187	14.03
691.593	14.39
692	14.76
692.407	15.1
692.813	15.47
693.22	15.81
693.626	16.17
694.032	16.54
694.439	16.88
694.845	17.23
695.251	17.56
695.657	17.88
696.063	18.21
696.469	18.53
696.875	18.87
697.281	19.15
697.687	19.48
698.093	19.78
698.498	20.06
698.904	20.35
699.31	20.62
699.715	20.89
700.12	21.18
700.526	21.44
700.931	21.69
701.337	21.94
701.742	22.19
702.147	22.42
702.552	22.65
702.957	22.86
703.362	23.07
703.767	23.28
704.172	23.48
704.577	23.67
704.981	23.88
705.386	24.09
705.791	24.28
706.195	24.46
706.6	24.64
707.004	24.81
707.408	25.01
707.813	25.18
708.217	25.36
708.621	25.54
709.025	25.71
709.43	25.86
709.834	26.02
710.237	26.16
710.641	26.34
711.045	26.48
711.449	26.65
711.853	26.81
712.256	26.96
712.66	27.11
713.064	27.25
713.467	27.37
713.87	27.52
714.274	27.64
714.677	27.78
715.08	27.88
715.484	28.01
715.887	28.16
716.29	28.25
716.693	28.37
717.096	28.51
717.499	28.62
717.901	28.75
718.304	28.86
718.707	28.97
719.109	29.09
719.512	29.2
719.915	29.31
720.317	29.39
720.719	29.48
721.122	29.57
721.524	29.64
721.926	29.72
722.328	29.82
722.731	29.91
723.133	30.01
723.535	30.09
723.937	30.14
724.338	30.21
724.74	30.29
725.142	30.39
725.544	30.46
725.945	30.53
726.347	30.58
726.748	30.65
727.15	30.7
727.551	30.76
727.952	30.82
728.354	30.9
728.755	30.98
729.156	31.03
729.557	31.06
729.958	31.11
730.359	31.17
730.76	31.25
731.161	31.29
731.562	31.33
731.962	31.36
732.363	31.41
732.763	31.43
733.164	31.45
733.564	31.5
733.965	31.55
734.365	31.63
734.766	31.66
735.166	31.69
735.566	31.73
735.966	31.79
736.366	31.83
736.766	31.83
737.166	31.9
737.566	31.93
737.966	31.96
738.365	31.97
738.765	31.98
739.165	32.01
739.564	32.03
739.964	32.04
740.363	32.06
740.763	32.1
741.162	32.15
741.561	32.15
741.96	32.18
742.36	32.21
742.759	32.24
743.158	32.25
743.557	32.27
743.955	32.31
744.354	32.35
744.753	32.39
745.152	32.43
745.55	32.47
745.949	32.5
746.348	32.53
746.746	32.57
747.144	32.6
747.543	32.65
747.941	32.68
748.339	32.71
748.737	32.72
749.136	32.72
749.534	32.71
749.932	32.73
750.33	32.75
750.727	32.77
751.125	32.77
751.523	32.76
751.921	32.75
752.318	32.74
752.716	32.76
753.113	32.76
753.511	32.77
753.908	32.77
754.305	32.77
754.703	32.76
755.1	32.76
755.497	32.76
755.894	32.77
756.291	32.78
756.688	32.79
757.085	32.79
757.482	32.8
757.878	32.8
758.275	32.81
758.672	32.82
759.068	32.83
759.465	32.83
759.861	32.85
760.258	32.87
760.654	32.88
761.05	32.89
761.447	32.91
761.843	32.9
762.239	32.91
762.635	32.92
763.031	32.93
763.427	32.93
763.822	32.94
764.218	32.96
764.614	32.98
765.01	32.98
765.405	32.97
765.801	32.96
766.196	33
766.592	33.02
766.987	33.04
767.382	33.05
767.778	33.08
768.173	33.11
768.568	33.1
768.963	33.11
769.358	33.12
769.753	33.15
770.148	33.17
770.542	33.18
770.937	33.21
771.332	33.21
771.726	33.23
772.121	33.24
772.515	33.27
772.91	33.28
773.304	33.31
773.699	33.33
774.093	33.36
774.487	33.37
774.881	33.39
775.275	33.39
775.669	33.42
776.063	33.43
776.457	33.44
776.851	33.45
777.245	33.43
777.638	33.44
778.032	33.47
778.425	33.51
778.819	33.53
779.212	33.56
779.606	33.58
779.999	33.61
780.392	33.64
780.786	33.66
781.179	33.67
781.572	33.71
781.965	33.73
782.358	33.74
782.751	33.72
783.143	33.73
783.536	33.71
783.929	33.72
784.322	33.75
784.714	33.77
785.107	33.81
785.499	33.84
785.891	33.87
786.284	33.88
786.676	33.89
787.068	33.9
787.46	33.93
787.852	33.96
788.245	33.97
788.636	33.97
789.028	33.95
789.42	33.95
789.812	33.96
790.204	33.97
790.595	33.99
790.987	34
791.378	34.02
791.77	34.01
792.161	34.03
792.553	34.04
792.944	34.04
793.335	34.09
793.726	34.1
794.117	34.11
794.508	34.09
794.899	34.09
795.29	34.09
795.681	34.1
796.072	34.13
796.463	34.13
796.853	34.14
797.244	34.15
797.634	34.16
798.025	34.19
798.415	34.2
798.806	34.24
799.196	34.26
799.586	34.28
799.976	34.31
800.366	34.33
800.756	34.36
801.146	34.39
801.536	34.44
801.926	34.45
802.316	34.45
802.706	34.49
803.095	34.51
803.485	34.54
803.874	34.55
804.264	34.58
804.653	34.59
805.043	34.6
805.432	34.6
805.821	34.61
806.21	34.63
806.599	34.65
806.988	34.64
807.377	34.65
807.766	34.66
808.155	34.68
808.544	34.7
808.933	34.7
809.321	34.71
809.71	34.73
810.098	34.74
810.487	34.73
810.875	34.72
811.264	34.75
811.652	34.74
812.04	34.77
812.428	34.8
812.816	34.79
813.204	34.79
813.592	34.79
813.98	34.81
814.368	34.82
814.756	34.85
815.144	34.85
815.531	34.87
815.919	34.89
816.306	34.9
816.694	34.88
817.081	34.93
817.469	34.96
817.856	34.98
818.243	34.96
818.63	34.96
819.017	34.97
819.404	34.99
819.791	34.98
820.178	35
820.565	34.99
820.952	34.99
821.339	34.97
821.725	34.98
822.112	34.97
822.498	35
822.885	35.01
823.271	35.01
823.657	34.99
824.044	34.99
824.43	34.98
824.816	34.99
825.202	34.99
825.588	34.98
825.974	34.99
826.36	34.99
826.746	34.97
827.132	34.97
827.517	34.97
827.903	35
828.289	34.99
828.674	34.99
829.06	34.98
829.445	34.96
829.83	34.96
830.216	34.94
830.601	34.94
830.986	34.94
831.371	34.91
831.756	34.91
832.141	34.89
832.526	34.88
832.911	34.88
833.295	34.88
833.68	34.89
834.065	34.89
834.449	34.9
834.834	34.88
835.218	34.88
835.603	34.87
835.987	34.85
836.371	34.84
836.755	34.84
837.139	34.82
837.524	34.8
837.908	34.81
838.291	34.81
838.675	34.81
839.059	34.82
839.443	34.81
839.827	34.81
840.21	34.8
840.594	34.82
840.977	34.81
841.361	34.82
841.744	34.8
842.127	34.78
842.511	34.77
842.894	34.75
843.277	34.75
843.66	34.74
844.043	34.75
844.426	34.78
844.809	34.78
845.191	34.78
845.574	34.78
845.957	34.8
846.339	34.8
846.722	34.8
847.104	34.81
847.487	34.82
847.869	34.84
848.252	34.85
848.634	34.84
849.016	34.85
849.398	34.88
849.78	34.9
850.162	34.89
850.544	34.89
850.926	34.91
851.307	34.91
851.689	34.92
852.071	34.92
852.452	34.93
852.834	34.93
853.215	34.93
853.597	34.93
853.978	34.92
854.359	34.95
854.741	34.95
855.122	34.95
855.503	34.96
855.884	34.96
856.265	34.98
856.646	34.98
857.026	34.99
857.407	35.01
857.788	35.01
858.169	35.04
858.549	35.03
858.93	35.06
859.31	35.09
859.69	35.12
860.071	35.14
860.451	35.12
860.831	35.12
861.211	35.1
861.591	35.09
861.971	35.1
862.351	35.1
862.731	35.12
863.111	35.1
863.491	35.11
863.87	35.11
864.25	35.1
864.629	35.12
865.009	35.15
865.388	35.17
865.768	35.19
866.147	35.2
866.526	35.21
866.905	35.22
867.284	35.25
867.663	35.24
868.042	35.24
868.421	35.26
868.8	35.27
869.179	35.24
869.558	35.25
869.936	35.26
870.315	35.26
870.693	35.27
871.072	35.28
871.45	35.28
871.828	35.31
872.207	35.32
872.585	35.31
872.963	35.32
873.341	35.32
873.719	35.33
874.097	35.34
874.475	35.35
874.853	35.36
875.23	35.35
875.608	35.34
875.986	35.35
876.363	35.36
876.741	35.36
877.118	35.36
877.495	35.39
877.873	35.42
878.25	35.42
878.627	35.43
879.004	35.43
879.381	35.44
879.758	35.45
880.135	35.46
880.512	35.45
880.889	35.47
881.265	35.47
881.642	35.5
882.019	35.5
882.395	35.5
882.772	35.49
883.148	35.47
883.524	35.49
883.901	35.49
884.277	35.47
884.653	35.47
885.029	35.46
885.405	35.46
885.781	35.42
886.157	35.41
886.532	35.41
886.908	35.4
887.284	35.4
887.659	35.38
888.035	35.36
888.411	35.34
888.786	35.32
889.161	35.31
889.537	35.31
889.912	35.31
890.287	35.29
890.662	35.27
891.037	35.26
891.412	35.24
891.787	35.22
892.162	35.23
892.536	35.23
892.911	35.22
893.286	35.21
893.66	35.19
894.035	35.18
894.409	35.18
894.784	35.18
895.158	35.16
895.532	35.19
895.906	35.19
896.281	35.19
896.655	35.18
897.029	35.2
897.402	35.21
897.776	35.23
898.15	35.23
898.524	35.25
898.898	35.29
899.271	35.31
899.645	35.32
900.018	35.34
900.392	35.36
900.765	35.4
901.138	35.4
901.511	35.44
901.884	35.46
902.258	35.5
902.631	35.52
903.003	35.52
903.376	35.55
903.749	35.57
904.122	35.6
904.495	35.64
904.867	35.64
905.24	35.67
905.612	35.7
905.985	35.7
906.357	35.71
906.729	35.72
907.102	35.73
907.474	35.77
907.846	35.74
908.218	35.75
908.59	35.76
908.962	35.78
909.334	35.78
909.705	35.75
910.077	35.76
910.449	35.78
910.82	35.79
911.192	35.8
911.563	35.8
911.935	35.83
912.306	35.83
912.677	35.85
913.048	35.86
913.419	35.88
913.79	35.92
914.161	35.94
914.532	35.92
914.903	35.94
915.274	35.96
915.645	35.97
916.015	35.99
916.386	36.01
916.756	35.99
917.127	36.02
917.497	36.01
917.868	36
918.238	36.02
918.608	36.07
918.978	36.08
919.348	36.08
919.718	36.09
920.088	36.12
920.458	36.12
920.828	36.15
921.198	36.12
921.567	36.17
921.937	36.22
922.306	36.22
922.676	36.22
923.045	36.24
923.415	36.23
923.784	36.23
924.153	36.23
924.522	36.26
924.891	36.26
925.26	36.28
925.629	36.26
925.998	36.24
926.367	36.26
926.736	36.26
927.104	36.25
927.473	36.24
927.842	36.24
928.21	36.26
928.578	36.25
928.947	36.28
929.315	36.31
929.683	36.31
930.051	36.29
930.42	36.28
930.788	36.27
931.156	36.3
931.523	36.32
931.891	36.4
932.259	36.41
932.627	36.43
932.994	36.41
933.362	36.4
933.729	36.44
934.097	36.48
934.464	36.53
934.831	36.56
935.199	36.58
935.566	36.63
935.933	36.62
936.3	36.64
936.667	36.66
937.034	36.68
937.401	36.75
937.767	36.77
938.134	36.78
938.501	36.79
938.867	36.83
939.234	36.87
939.6	36.88
939.967	36.91
940.333	36.94
940.699	37.03
941.065	37.05
941.431	37.05
941.798	37.09
942.163	37.12
942.529	37.14
942.895	37.18
943.261	37.13
943.627	37.16
943.992	37.18
944.358	37.2
944.723	37.17
945.089	37.13
945.454	37.18
945.82	37.15
946.185	37.17
946.55	37.14
946.915	37.13
947.28	37.19
947.645	37.17
948.01	37.15
948.375	37.13
948.74	37.11
949.104	37.2
949.469	37.19
949.834	37.16
950.198	37.12
950.562	37.1
950.927	37.11
951.291	37.06
951.655	37.02
952.02	37
952.384	36.93
952.748	36.89
953.112	36.79
953.476	36.77
953.839	36.74
954.203	36.71
954.567	36.65
954.931	36.53
955.294	36.53
955.658	36.53
956.021	36.53
956.385	36.52
956.748	36.51
957.111	36.49
957.474	36.44
957.837	36.45
958.2	36.45
958.563	36.45
958.926	36.52
959.289	36.5
959.652	36.5
960.015	36.46
960.377	36.48
960.74	36.51
961.102	36.53
961.465	36.56
961.827	36.59
962.189	36.61
962.552	36.63
962.914	36.63
963.276	36.64
963.638	36.61
964	36.61
964.362	36.61
964.724	36.59
965.085	36.57
965.447	36.52
965.809	36.47
966.17	36.48
966.532	36.48
966.893	36.49
967.255	36.48
967.616	36.49
967.977	36.52
968.338	36.52
968.699	36.52
969.061	36.55
969.421	36.57
969.782	36.58
970.143	36.54
970.504	36.51
970.865	36.51
971.225	36.53
971.586	36.59
971.946	36.59
972.307	36.63
972.667	36.67
973.027	36.69
973.388	36.68
973.748	36.73
974.108	36.86
974.468	36.91
974.828	36.98
975.188	36.97
975.548	36.92
975.907	36.94
976.267	36.99
976.627	36.99
976.986	36.99
977.346	37.04
977.705	37.02
978.064	36.99
978.424	37.05
978.783	37
979.142	37.02
979.501	37.05
979.86	37.11
980.219	37.09
980.578	37.14
980.937	37.13
981.296	37.15
981.654	37.24
982.013	37.25
982.371	37.22
982.73	37.27
983.088	37.3
983.447	37.32
983.805	37.31
984.163	37.31
984.521	37.32
984.879	37.35
985.237	37.38
985.595	37.4
985.953	37.4
986.311	37.44
986.669	37.43
987.026	37.52
987.384	37.59
987.741	37.56
988.099	37.58
988.456	37.6
988.814	37.68
989.171	37.71
989.528	37.72
989.885	37.76
990.242	37.83
990.599	37.91
990.956	38.01
991.313	37.98
991.67	38.12
992.027	38.28
992.383	38.38
992.74	38.45
993.096	38.42
993.453	38.48
993.809	38.51
994.165	38.55
994.522	38.56
994.878	38.55
995.234	38.68
995.59	38.67
995.946	38.67
996.302	38.68
996.658	38.74
997.013	38.92
997.369	38.98
997.725	39
998.08	39.15
998.436	39.18
998.791	39.21
999.147	39.18
999.502	39.32
999.857	39.39
1000.212	39.33
1000.567	39.39
1000.922	39.41
1001.277	39.43
1001.632	39.49
1001.987	39.42
1002.342	39.49
1002.696	39.46
1003.051	39.63
1003.406	39.6
1003.76	39.58
1004.114	39.63
1004.469	39.69
1004.823	39.96
1005.177	40.04
1005.531	40.16
1005.885	40.23
1006.239	40.38
1006.593	40.48
1006.947	40.49
1007.301	40.6
1007.655	40.71
1008.008	40.88
1008.362	40.92
1008.715	40.81
1009.069	40.98
1009.422	41.07
1009.776	41.05
1010.129	41.04
1010.482	41.1
1010.835	41.27
1011.188	41.38
1011.541	41.42
1011.894	41.54
1012.247	41.62
1012.6	41.72
1012.952	41.67
1013.305	41.81
1013.657	41.93
1014.01	42.17
1014.362	42.35
1014.715	42.34
1015.067	42.5
1015.419	42.68
1015.771	42.64
1016.123	42.64
1016.475	42.7
1016.827	42.7
1017.179	42.76
1017.531	42.84
1017.883	42.89
1018.234	43.04
1018.586	43.05
1018.938	43.1
1019.289	43.08
1019.64	43.29
1019.992	43.54
1020.343	43.48
1020.694	43.69
1021.045	43.71
1021.396	43.77
1021.747	44.07
1022.098	44.15
1022.449	44.32
1022.8	44.49
1023.151	44.66
1023.501	44.69
1023.852	44.81
1024.202	44.88
1024.553	45.1
1024.903	45.2
1025.253	45.54
1025.604	45.25
1025.954	45.18
1026.304	45.59
1026.654	45.71
1027.004	45.86
1027.354	46.04
1027.703	45.87
1028.053	46.17
1028.403	46.03
1028.753	46.04
1029.102	46.3
1029.452	46.65
1029.801	47.03
1030.15	46.74
1030.499	46.66
897.758	928.51
901.051	936.07
904.343	935.26
907.636	951.88
910.928	927.73
914.22	925.63
917.511	914.41
920.803	878.98
924.094	875.39
927.384	854.85
930.675	822.33
933.965	819.67
937.255	770.67
940.544	739.92
943.834	708.01
947.123	701.37
950.411	660.39
953.7	647.21
956.988	611.92
960.276	583.61
963.563	577.48
966.851	555.6
970.138	551.07
973.424	535.51
976.711	539.62
979.997	510.24
983.283	508.09
986.568	499.94
989.853	484.2
993.138	475.23
996.423	460.91
999.708	447.15
1002.992	441.6
1006.275	423.57
1009.559	420.33
1012.842	403.1
1016.125	394.09
1019.408	385.46
1022.69	382.15
1025.972	374.16
1029.254	365.21
1032.536	358.05
1035.817	352.53
1039.098	348.03
1042.379	340.97
1045.659	336.36
1048.939	329.31
1052.219	322.58
1055.498	319.98
1058.778	310.6
1062.057	306.41
1065.335	303.92
1068.614	301.14
1071.892	296.14
1075.17	288.34
1078.447	282.92
1081.724	281.09
1085.001	279.15
1088.278	273.95
1091.554	267.94
1094.83	269.26
1098.106	265.66
1101.382	263.27
1104.657	260.97
1107.932	257.83
1111.206	259.69
1114.481	253.15
1117.755	251.29
1121.029	249.09
1124.302	248.3
1127.575	245.14
1130.848	241.85
1134.121	240.17
1137.393	238.74
1140.665	234.25
1143.937	231.7
1147.208	230.4
1150.48	230.06
1153.75	225.83
1157.021	223.67
1160.291	224.11
1163.561	220.18
1166.831	220.06
1170.101	218.24
1173.37	218.55
1176.639	218.56
1179.907	217.39
1183.176	214.47
1186.444	214.06
1189.711	214.9
1192.979	214.51
1196.246	212.67
1199.513	214.32
1202.78	212.6
1206.046	212.67
1209.312	209.66
1212.578	210.11
1215.843	210.9
1219.108	210.71
1222.373	214.54
1225.638	215.08
1228.902	217.21
1232.166	218.03
1235.43	218.61
1238.693	222.61
1241.956	223.52
1245.219	227.01
1248.482	227.24
1251.744	227.74
1255.006	228.01
1258.268	223.97
1261.529	222.65
1264.79	221.91
1268.051	219.6
1271.312	217.53
1274.572	214.12
1277.832	212.67
1281.092	208.95
1284.351	207.52
1287.61	207.42
1290.869	203.74
1294.128	201.96
1297.386	201.68
1300.644	199.11
1303.902	200.91
1307.159	200.93
1310.416	200.5
1313.673	198.97
1316.93	201.6
1320.186	200.97
1323.442	201.5
1326.697	204.59
1329.953	205.8
1333.208	206.57
1336.463	209.01
1339.717	208.98
1342.972	210.6
1346.226	212.42
1349.479	213.77
1352.733	214.58
1355.986	216.38
1359.238	215.63
1362.491	215.89
1365.743	217.63
1368.995	217.97
1372.247	216.89
1375.498	216.87
1378.749	216.94
1382	215.54
1385.251	216.06
1388.501	214.32
1391.751	213.53
1395	212.87
1398.25	211.82
1401.499	209.81
1404.748	209.22
1407.996	206.5
1411.244	205.55
1414.492	204.48
1417.74	201.23
1420.987	198.41
1424.234	198.31
1427.481	196.62
1430.728	196.68
1433.974	194.83
1437.22	193.17
1440.465	192.29
1443.711	191.06
1446.956	189.72
1450.201	187.54
1453.445	186.73
1456.689	185.68
1459.933	182.81
1463.177	180.71
1466.42	178.47
1469.663	176.37
1472.906	174.89
1476.148	170.6
1479.391	168.73
1482.633	167.41
1485.874	165.63
1489.115	164.15
1492.356	162.83
1495.597	161.85
1498.838	160.13
1502.078	158.66
1505.318	158.18
1508.557	158.23
1511.797	158.12
1515.036	156.66
1518.274	156.27
1521.513	155.4
1524.751	154.77
1527.989	154.21
1531.227	153.77
1534.464	154.07
1537.701	153.94
1540.938	153.25
1544.174	151.51
1547.41	151.95
1550.646	151.8
1553.882	151.05
1557.117	149.37
1560.352	149.12
1563.587	148.85
1566.821	147.72
1570.055	147.11
1573.289	145.41
1576.523	145.83
1579.756	144.76
1582.989	143.78
1586.222	143.88
1589.454	143.56
1592.686	144.05
1595.918	143.45
1599.15	142.92
1602.381	143.59
1605.612	142.7
1608.843	143.04
1612.073	142.84
1615.303	144.02
1618.533	143.76
1621.762	143.91
1624.992	144.4
1628.221	144.44
1631.449	144.06
1634.678	143.93
1637.906	144.6
1641.134	144.39
1644.361	144.38
1647.588	144.87
1650.815	144.25
1654.042	144.35
1657.269	144.53
1660.495	144.32
1663.72	144.01
1666.946	144.55
1670.171	145.06
1673.396	144.63
1676.621	144.54
1679.845	145.24
1683.069	145.19
1686.293	145.54
1689.517	146.16
1692.74	146.08
1695.963	146.87
1699.185	148.03
1702.408	148.18
1705.63	148.23
1708.852	148.72
1712.073	149.4
1715.294	149.28
1718.515	149.93
1721.736	149.98
1724.956	150.22
1728.176	150.24
1731.396	150.92
1734.616	149.96
1737.835	150.84
1741.054	149.81
1744.272	150.13
1747.491	151.71
1750.709	152.04
1753.927	151.68
1757.144	151.42
1760.361	151.64
1763.578	151.96
1766.795	151.18
1770.011	153.66
1773.227	152.67
1776.443	154.91
1779.658	155.07
1782.874	154.6
1786.089	154.25
1789.303	154.71
1792.518	156.83
1795.732	156.63
1798.945	157.7
1802.159	158.24
1805.372	157.23
1808.585	160.55
1811.797	160.45
1815.01	161.51
1818.222	162.43
1821.434	164.84
1824.645	165.18
1827.856	167.11
1831.067	168.06
1834.278	168.48
1837.488	169.81
1840.698	170.84
1843.908	169.38
1847.117	170.34
1850.326	171.03
1853.535	170.1
1856.744	172.07
1859.952	172.45
1863.16	171.12
1866.368	170.53
1869.575	171.52
1872.782	168.77
1875.989	168.97
1879.196	168.28
1882.402	166.72
1885.608	166.64
1888.814	166.91
1892.019	165.67
1895.224	164.54
1898.429	164.24
1901.634	164.89
1904.838	164.73
1908.042	166.25
1911.246	165.87
1914.449	166.39
1917.652	166.98
1920.855	166.23
1924.058	167.48
1927.26	166.79
1930.462	166.98
1933.664	168.32
1936.865	166.77
1940.066	166.29
1943.267	165.7
1946.467	166.28
1949.668	167.1
1952.868	169.24
1956.067	170.18
1959.267	169.45
1962.466	170.19
1965.665	169.84
1968.863	170.79
1972.061	174.05
1975.259	175.9
1978.457	176.05
1981.654	177.4
1984.852	177.79
1988.048	176.8
1991.245	178.84
1994.441	180.2
1997.637	181.88
2000.833	185.24
2004.028	187.14
2007.223	187.11
2010.418	188.62
2013.613	193.37
2016.807	194.72
2020.001	196.51
2023.194	200.18
2026.388	203.79
2029.581	209.52
2032.774	210.34
2035.966	214.53
2039.158	214.97
2042.35	219.12
2045.542	220.19
2048.733	224.16
2051.924	227.15
2055.115	230.69
2058.306	230.99
2061.496	233.07
2064.686	232.42
2067.875	237.5
2071.065	237.68
2074.254	235.98
2077.442	240.37
2080.631	241.26
2083.819	241.94
2087.007	242.94
2090.195	246.59
2093.382	248.52
2096.569	247.06
2099.756	250.5
2102.942	250.65
2106.128	253.03
2109.314	261.34
2112.5	259.38
2115.685	265.41
2118.87	266.63
2122.055	271.18
2125.239	271.77
2128.424	275.2
2131.608	277.12
2134.791	281.56
2137.974	283.38
2141.157	284
2144.34	283
2147.523	288.69
2150.705	287.1
2153.887	289.91
2157.068	290.49
2160.25	287.57
2163.431	289.83
2166.611	293.09
2169.792	298.02
2172.972	300.16
2176.152	304.27
2179.331	307.32
2182.511	309.46
2185.69	313.85
2188.868	320.16
2192.047	319.9
2195.225	330.4
2198.403	337.28
2201.58	342.73
2204.758	350.39
2207.935	355.94
2211.111	362.7
2214.288	366.76
2217.464	368.54
2220.64	375.27
2223.815	378.37
2226.991	394.73
2230.166	394.87
2233.34	400.51
2236.515	409.27
2239.689	407.79
2242.863	412.21
2246.036	419.56
2249.209	417.22
2252.382	426.27
2255.555	434.43
2258.727	438
2261.9	440.68
2265.071	445.9
2268.243	453.91
2271.414	459.12
2274.585	467.32
2277.756	471.23
2280.926	477.03
2284.096	489.16
2287.266	498.33
2290.436	503.38
2293.605	513.84
2296.774	528.76
2299.942	545.84
2303.111	548.49
2306.279	557.79
2309.447	568.29
2312.614	584.11
2315.781	599.21
2318.948	626.32
2322.115	617.57
2325.281	651.54
2328.447	640.02
2331.613	662.62
2334.779	654.03
2337.944	684.74
2341.109	692.65
2344.274	709.86
2347.438	734.8
2350.602	735.77
2353.766	755.51
2356.929	766.72
2360.092	763.6
2363.255	815.56
2366.418	817.94
2369.58	831.33
2372.742	882.76
2375.904	904.14
2379.066	898.19
2382.227	880.34
2385.388	951.89
2388.548	953.96
2391.709	965.48
2394.869	1074.26
2398.029	1026.8
2401.188	1059.39
2404.347	1054.36
2407.506	1031.46
2410.665	1067.07
2413.823	1127.57
2416.981	1190.88
2420.139	1160.93
2423.296	1146.05
2426.453	1201.28
2429.61	1155.37
2432.767	1211.37
2435.923	1194.15
2439.079	1308.48
2442.235	1334.34
2445.391	1317.83
2448.546	1306.91
2451.701	1273.75
2454.855	1265.21
2458.009	1351.21
2461.163	1393.82
2464.317	1441.07
2467.471	1478.7
2470.624	1478.7
2473.777	1442.54
2476.929	1393.03
2480.082	1344.66
2483.234	1338.81
2486.385	1408.91
2489.537	1414.19
2492.688	1457.71
2495.839	1425.28
2498.989	1389.7
2502.14	1393.89
2505.29	1408.39
2508.439	1426.28
2511.589	1427.18
2514.738	1563.49
2517.887	1526.58
2521.035	1601.71
2524.183	1625.81
2527.331	1636.39
2530.479	1623.93
2533.627	1642.44
